Data from USB4F104151__61__12-12-26-754.txt Node

Date: Fri Mar 14 12:12:26 EDT 2025
User: louis
Spectrometer: USB4F10415
Trigger mode: 4
Integration Time (sec): 5.000000E-2
Scans to average: 1
Electric dark correction enabled: true
Nonlinearity correction enabled: false
Boxcar width: 0
XAxis mode: Wavelengths
Number of Pixels in Spectrum: 3648
>>>>>Begin Spectral Data<<<<<
178.204	-165.54
178.424	-165.54
178.644	-165.54
178.864	-226.98
179.084	-177.83
179.304	26.96
179.524	18.77
179.744	-3.75
179.964	14.68
180.184	-87.72
180.404	55.64
180.624	-13.99
180.844	6.49
181.064	-34.47
181.283	22.87
181.503	-52.91
181.723	47.44
181.943	31.06
182.163	80.21
182.383	2.39
182.602	41.3
182.822	18.77
183.042	29.01
183.262	20.82
183.482	8.53
183.701	-67.24
183.921	33.11
184.141	-24.23
184.361	104.79
184.58	53.59
184.8	45.4
185.02	-16.04
185.239	129.36
185.459	49.49
185.679	76.12
185.898	-63.15
186.118	12.63
186.338	49.49
186.557	59.73
186.777	10.58
186.997	-30.38
187.216	0.34
187.436	110.93
187.655	-1.71
187.875	55.64
188.095	-3.75
188.314	82.26
188.534	92.5
188.753	-11.95
188.973	57.68
189.192	4.44
189.412	33.11
189.631	-7.85
189.851	-18.09
190.07	51.54
190.29	-18.09
190.509	43.35
190.729	-1.71
190.948	129.36
191.168	272.72
191.387	57.68
191.607	24.92
191.826	39.25
192.045	16.73
192.265	-30.38
192.484	-32.43
192.704	-1.71
192.923	-16.04
193.142	102.74
193.362	8.53
193.581	94.55
193.8	53.59
194.02	6.49
194.239	-16.04
194.458	2.39
194.678	-26.28
194.897	-11.95
195.116	-48.81
195.335	14.68
195.555	104.79
195.774	31.06
195.993	69.97
196.212	31.06
196.432	-69.29
196.651	37.2
196.87	-20.14
197.089	102.74
197.308	76.12
197.528	90.45
197.747	10.58
197.966	-34.47
198.185	67.92
198.404	10.58
198.623	72.02
198.842	-50.86
199.062	29.01
199.281	59.73
199.5	-75.43
199.719	45.4
199.938	94.55
200.157	74.07
200.376	-18.09
200.595	29.01
200.814	53.59
201.033	-42.67
201.252	69.97
201.471	-16.04
201.69	76.12
201.909	14.68
202.128	78.16
202.347	37.2
202.566	8.53
202.785	-50.86
203.004	69.97
203.223	143.7
203.442	84.31
203.661	-89.77
203.879	41.3
204.098	135.51
204.317	-28.33
204.536	72.02
204.755	0.34
204.974	76.12
205.193	57.68
205.411	90.45
205.63	20.82
205.849	-36.52
206.068	22.87
206.287	49.49
206.505	76.12
206.724	22.87
206.943	-63.15
207.162	41.3
207.381	-1.71
207.599	4.44
207.818	20.82
208.037	-54.95
208.255	-42.67
208.474	43.35
208.693	-13.99
208.911	-18.09
209.13	51.54
209.349	39.25
209.567	22.87
209.786	-26.28
210.005	53.59
210.223	61.78
210.442	6.49
210.661	0.34
210.879	8.53
211.098	-44.71
211.316	-69.29
211.535	39.25
211.753	26.96
211.972	37.2
212.191	8.53
212.409	-18.09
212.628	24.92
212.846	-40.62
213.065	20.82
213.283	123.22
213.502	-36.52
213.72	18.77
213.938	-42.67
214.157	-16.04
214.375	94.55
214.594	-18.09
214.812	96.6
215.031	86.36
215.249	-65.19
215.467	55.64
215.686	26.96
215.904	74.07
216.122	0.34
216.341	51.54
216.559	55.64
216.778	37.2
216.996	74.07
217.214	74.07
217.432	14.68
217.651	12.63
217.869	51.54
218.087	-3.75
218.306	92.5
218.524	-1.71
218.742	41.3
218.96	61.78
219.179	51.54
219.397	4.44
219.615	127.32
219.833	14.68
220.051	-32.43
220.27	94.55
220.488	69.97
220.706	82.26
220.924	8.53
221.142	59.73
221.36	-20.14
221.578	51.54
221.796	37.2
222.015	63.83
222.233	94.55
222.451	135.51
222.669	-22.19
222.887	121.17
223.105	45.4
223.323	43.35
223.541	2.39
223.759	-26.28
223.977	4.44
224.195	69.97
224.413	45.4
224.631	33.11
224.849	29.01
225.067	22.87
225.285	74.07
225.503	-26.28
225.721	-71.34
225.939	74.07
226.157	53.59
226.375	198.99
226.592	-20.14
226.81	2.39
227.028	74.07
227.246	94.55
227.464	8.53
227.682	24.92
227.9	108.88
228.117	84.31
228.335	53.59
228.553	47.44
228.771	6.49
228.989	53.59
229.206	88.4
229.424	6.49
229.642	20.82
229.86	-48.81
230.077	84.31
230.295	74.07
230.513	59.73
230.731	100.69
230.948	92.5
231.166	123.22
231.384	16.73
231.601	-26.28
231.819	78.16
232.037	-28.33
232.254	-5.8
232.472	45.4
232.689	-42.67
232.907	47.44
233.125	45.4
233.342	-34.47
233.56	35.16
233.777	-48.81
233.995	55.64
234.213	174.42
234.43	67.92
234.648	-30.38
234.865	-13.99
235.083	37.2
235.3	-5.8
235.518	84.31
235.735	92.5
235.953	39.25
236.17	0.34
236.388	112.98
236.605	59.73
236.822	24.92
237.04	43.35
237.257	47.44
237.475	45.4
237.692	8.53
237.909	53.59
238.127	65.88
238.344	-1.71
238.562	47.44
238.779	-22.19
238.996	-30.38
239.214	33.11
239.431	102.74
239.648	-11.95
239.865	20.82
240.083	6.49
240.3	24.92
240.517	8.53
240.735	-28.33
240.952	98.64
241.169	69.97
241.386	94.55
241.603	6.49
241.821	-26.28
242.038	63.83
242.255	53.59
242.472	-32.43
242.689	6.49
242.907	59.73
243.124	-5.8
243.341	-18.09
243.558	-48.81
243.775	31.06
243.992	8.53
244.209	-9.9
244.426	88.4
244.643	33.11
244.86	14.68
245.078	108.88
245.295	35.16
245.512	53.59
245.729	16.73
245.946	-26.28
246.163	6.49
246.38	51.54
246.597	29.01
246.814	-16.04
247.031	69.97
247.248	-1.71
247.464	49.49
247.681	-34.47
247.898	98.64
248.115	102.74
248.332	37.2
248.549	121.17
248.766	86.36
248.983	41.3
249.2	22.87
249.417	8.53
249.633	12.63
249.85	135.51
250.067	31.06
250.284	45.4
250.501	35.16
250.717	82.26
250.934	-30.38
251.151	8.53
251.368	47.44
251.585	-3.75
251.801	43.35
252.018	-18.09
252.235	24.92
252.451	-63.15
252.668	-3.75
252.885	102.74
253.102	63.83
253.318	29.01
253.535	-48.81
253.752	4.44
253.968	55.64
254.185	-36.52
254.401	-11.95
254.618	80.21
254.835	51.54
255.051	84.31
255.268	43.35
255.484	37.2
255.701	4.44
255.917	112.98
256.134	43.35
256.351	-28.33
256.567	-20.14
256.784	57.68
257	-50.86
257.217	29.01
257.433	8.53
257.65	41.3
257.866	18.77
258.082	0.34
258.299	-26.28
258.515	57.68
258.732	29.01
258.948	-5.8
259.165	39.25
259.381	0.34
259.597	57.68
259.814	86.36
260.03	-1.71
260.246	117.08
260.463	131.41
260.679	170.32
260.895	47.44
261.112	35.16
261.328	22.87
261.544	-11.95
261.761	158.03
261.977	10.58
262.193	-54.95
262.409	18.77
262.626	84.31
262.842	10.58
263.058	-83.63
263.274	59.73
263.49	6.49
263.707	112.98
263.923	10.58
264.139	-24.23
264.355	-61.1
264.571	131.41
264.787	94.55
265.004	41.3
265.22	29.01
265.436	-13.99
265.652	-65.19
265.868	0.34
266.084	-48.81
266.3	74.07
266.516	22.87
266.732	67.92
266.948	12.63
267.164	-20.14
267.38	102.74
267.596	86.36
267.812	104.79
268.028	108.88
268.244	-44.71
268.46	104.79
268.676	4.44
268.892	-20.14
269.108	2.39
269.324	20.82
269.54	-54.95
269.756	47.44
269.972	-1.71
270.188	-22.19
270.403	-52.91
270.619	-32.43
270.835	-18.09
271.051	94.55
271.267	74.07
271.483	-30.38
271.698	59.73
271.914	-26.28
272.13	-57
272.346	-50.86
272.562	16.73
272.777	10.58
272.993	8.53
273.209	-59.05
273.425	59.73
273.64	-3.75
273.856	59.73
274.072	41.3
274.287	-38.57
274.503	86.36
274.719	12.63
274.934	41.3
275.15	-30.38
275.366	18.77
275.581	33.11
275.797	-3.75
276.012	35.16
276.228	12.63
276.444	74.07
276.659	92.5
276.875	-18.09
277.09	24.92
277.306	-32.43
277.521	-5.8
277.737	18.77
277.952	-28.33
278.168	41.3
278.383	22.87
278.599	39.25
278.814	14.68
279.03	45.4
279.245	129.36
279.461	59.73
279.676	121.17
279.892	-20.14
280.107	55.64
280.322	-18.09
280.538	16.73
280.753	-32.43
280.969	20.82
281.184	41.3
281.399	57.68
281.615	-3.75
281.83	18.77
282.045	-65.19
282.26	-26.28
282.476	-32.43
282.691	43.35
282.906	-3.75
283.122	53.59
283.337	-30.38
283.552	47.44
283.767	-13.99
283.983	47.44
284.198	47.44
284.413	57.68
284.628	10.58
284.843	92.5
285.058	-26.28
285.274	51.54
285.489	-3.75
285.704	22.87
285.919	-5.8
286.134	31.06
286.349	-46.76
286.564	14.68
286.779	80.21
286.995	24.92
287.21	-54.95
287.425	41.3
287.64	57.68
287.855	53.59
288.07	-61.1
288.285	65.88
288.5	94.55
288.715	129.36
288.93	55.64
289.145	18.77
289.36	76.12
289.575	-3.75
289.79	12.63
290.004	-32.43
290.219	2.39
290.434	18.77
290.649	-38.57
290.864	45.4
291.079	6.49
291.294	-20.14
291.509	35.16
291.724	16.73
291.938	63.83
292.153	12.63
292.368	14.68
292.583	33.11
292.798	35.16
293.012	39.25
293.227	43.35
293.442	-46.76
293.657	86.36
293.871	43.35
294.086	37.2
294.301	117.08
294.516	6.49
294.73	45.4
294.945	-63.15
295.16	0.34
295.374	88.4
295.589	47.44
295.804	-18.09
296.018	14.68
296.233	49.49
296.447	0.34
296.662	-28.33
296.877	-5.8
297.091	80.21
297.306	74.07
297.52	-44.71
297.735	65.88
297.949	10.58
298.164	41.3
298.378	94.55
298.593	41.3
298.807	41.3
299.022	-13.99
299.236	82.26
299.451	12.63
299.665	8.53
299.88	33.11
300.094	172.37
300.309	41.3
300.523	47.44
300.737	0.34
300.952	86.36
301.166	43.35
301.381	-24.23
301.595	-65.19
301.809	61.78
302.024	29.01
302.238	-13.99
302.452	53.59
302.667	41.3
302.881	43.35
303.095	26.96
303.309	51.54
303.524	-13.99
303.738	-3.75
303.952	-83.63
304.166	100.69
304.381	-124.58
304.595	24.92
304.809	-83.63
305.023	-24.23
305.237	-34.47
305.452	-104.11
305.666	96.6
305.88	59.73
306.094	86.36
306.308	94.55
306.522	80.21
306.736	63.83
306.95	35.16
307.164	35.16
307.379	115.03
307.593	80.21
307.807	76.12
308.021	96.6
308.235	63.83
308.449	-102.06
308.663	78.16
308.877	100.69
309.091	35.16
309.305	8.53
309.519	-26.28
309.733	39.25
309.947	-13.99
310.161	63.83
310.374	-24.23
310.588	74.07
310.802	-7.85
311.016	-36.52
311.23	6.49
311.444	-30.38
311.658	49.49
311.872	69.97
312.085	139.6
312.299	94.55
312.513	43.35
312.727	78.16
312.941	10.58
313.154	26.96
313.368	2.39
313.582	67.92
313.796	78.16
314.009	94.55
314.223	61.78
314.437	49.49
314.651	53.59
314.864	-48.81
315.078	26.96
315.292	31.06
315.505	8.53
315.719	0.34
315.933	4.44
316.146	-18.09
316.36	-16.04
316.573	80.21
316.787	35.16
317.001	55.64
317.214	-16.04
317.428	41.3
317.641	-81.58
317.855	-5.8
318.068	45.4
318.282	-59.05
318.495	92.5
318.709	49.49
318.922	2.39
319.136	102.74
319.349	51.54
319.563	47.44
319.776	61.78
319.99	-7.85
320.203	26.96
320.417	80.21
320.63	106.84
320.843	153.94
321.057	-5.8
321.27	24.92
321.483	123.22
321.697	117.08
321.91	100.69
322.124	45.4
322.337	22.87
322.55	4.44
322.763	-9.9
322.977	-11.95
323.19	24.92
323.403	74.07
323.617	80.21
323.83	55.64
324.043	-38.57
324.256	80.21
324.469	26.96
324.683	78.16
324.896	10.58
325.109	-18.09
325.322	0.34
325.535	78.16
325.748	92.5
325.962	92.5
326.175	69.97
326.388	24.92
326.601	96.6
326.814	-28.33
327.027	43.35
327.24	49.49
327.453	-7.85
327.666	84.31
327.879	31.06
328.092	151.89
328.305	24.92
328.518	6.49
328.731	43.35
328.944	8.53
329.157	82.26
329.37	8.53
329.583	127.32
329.796	33.11
330.009	29.01
330.222	90.45
330.435	67.92
330.648	-52.91
330.861	37.2
331.073	10.58
331.286	84.31
331.499	37.2
331.712	-38.57
331.925	24.92
332.138	72.02
332.35	49.49
332.563	-3.75
332.776	102.74
332.989	-5.8
333.202	0.34
333.414	-67.24
333.627	37.2
333.84	-11.95
334.053	49.49
334.265	37.2
334.478	-9.9
334.691	57.68
334.903	45.4
335.116	-40.62
335.329	24.92
335.541	-22.19
335.754	137.56
335.966	-114.34
336.179	31.06
336.392	-5.8
336.604	47.44
336.817	86.36
337.029	8.53
337.242	29.01
337.454	96.6
337.667	-7.85
337.88	20.82
338.092	61.78
338.305	4.44
338.517	-3.75
338.729	16.73
338.942	86.36
339.154	20.82
339.367	-16.04
339.579	102.74
339.792	-30.38
340.004	63.83
340.217	8.53
340.429	82.26
340.641	-36.52
340.854	69.97
341.066	35.16
341.278	117.08
341.491	61.78
341.703	45.4
341.915	29.01
342.128	47.44
342.34	35.16
342.552	49.49
342.764	31.06
342.977	16.73
343.189	2.39
343.401	45.4
343.613	-48.81
343.826	65.88
344.038	55.64
344.25	74.07
344.462	-32.43
344.674	84.31
344.886	100.69
345.099	31.06
345.311	35.16
345.523	72.02
345.735	-50.86
345.947	84.31
346.159	67.92
346.371	-7.85
346.583	0.34
346.795	18.77
347.007	-18.09
347.219	-16.04
347.431	37.2
347.643	149.84
347.855	-24.23
348.067	106.84
348.279	-11.95
348.491	94.55
348.703	16.73
348.915	-30.38
349.127	61.78
349.339	-61.1
349.551	-65.19
349.763	63.83
349.975	53.59
350.187	96.6
350.399	98.64
350.61	63.83
350.822	-44.71
351.034	74.07
351.246	51.54
351.458	86.36
351.669	78.16
351.881	37.2
352.093	59.73
352.305	127.32
352.517	125.27
352.728	115.03
352.94	72.02
353.152	76.12
353.363	-3.75
353.575	65.88
353.787	135.51
353.999	65.88
354.21	123.22
354.422	-40.62
354.633	-3.75
354.845	22.87
355.057	-9.9
355.268	61.78
355.48	33.11
355.692	0.34
355.903	33.11
356.115	-26.28
356.326	4.44
356.538	106.84
356.749	90.45
356.961	10.58
357.172	16.73
357.384	12.63
357.595	80.21
357.807	37.2
358.018	-30.38
358.23	-38.57
358.441	139.6
358.653	4.44
358.864	18.77
359.075	37.2
359.287	12.63
359.498	51.54
359.709	53.59
359.921	2.39
360.132	51.54
360.344	35.16
360.555	43.35
360.766	-3.75
360.977	61.78
361.189	110.93
361.4	47.44
361.611	45.4
361.823	47.44
362.034	53.59
362.245	-65.19
362.456	35.16
362.667	98.64
362.879	24.92
363.09	22.87
363.301	45.4
363.512	6.49
363.723	-7.85
363.935	29.01
364.146	92.5
364.357	-11.95
364.568	10.58
364.779	43.35
364.99	39.25
365.201	-3.75
365.412	106.84
365.623	41.3
365.834	31.06
366.045	51.54
366.256	84.31
366.467	45.4
366.678	18.77
366.889	29.01
367.1	22.87
367.311	12.63
367.522	37.2
367.733	47.44
367.944	96.6
368.155	-20.14
368.366	84.31
368.577	74.07
368.788	143.7
368.999	-48.81
369.209	35.16
369.42	168.27
369.631	104.79
369.842	55.64
370.053	6.49
370.264	110.93
370.474	29.01
370.685	141.65
370.896	-7.85
371.107	37.2
371.317	59.73
371.528	-5.8
371.739	53.59
371.95	67.92
372.16	18.77
372.371	-24.23
372.582	-5.8
372.792	8.53
373.003	49.49
373.214	2.39
373.424	26.96
373.635	0.34
373.846	80.21
374.056	43.35
374.267	96.6
374.477	29.01
374.688	-28.33
374.898	31.06
375.109	-42.67
375.319	53.59
375.53	84.31
375.74	88.4
375.951	20.82
376.161	39.25
376.372	74.07
376.582	12.63
376.793	69.97
377.003	78.16
377.214	12.63
377.424	53.59
377.635	31.06
377.845	-42.67
378.055	29.01
378.266	-36.52
378.476	119.12
378.686	-42.67
378.897	145.75
379.107	92.5
379.317	18.77
379.528	61.78
379.738	86.36
379.948	-81.58
380.158	72.02
380.369	4.44
380.579	98.64
380.789	112.98
380.999	74.07
381.21	90.45
381.42	168.27
381.63	-48.81
381.84	112.98
382.05	61.78
382.261	20.82
382.471	129.36
382.681	-16.04
382.891	117.08
383.101	14.68
383.311	-22.19
383.521	65.88
383.731	102.74
383.941	90.45
384.151	110.93
384.361	74.07
384.571	35.16
384.781	45.4
384.991	129.36
385.201	86.36
385.411	57.68
385.621	86.36
385.831	-40.62
386.041	72.02
386.251	24.92
386.461	82.26
386.671	76.12
386.881	41.3
387.091	-5.8
387.301	108.88
387.511	12.63
387.72	41.3
387.93	84.31
388.14	29.01
388.35	12.63
388.56	127.32
388.769	80.21
388.979	51.54
389.189	12.63
389.399	59.73
389.609	112.98
389.818	49.49
390.028	49.49
390.238	92.5
390.447	26.96
390.657	69.97
390.867	57.68
391.076	-7.85
391.286	78.16
391.496	69.97
391.705	-7.85
391.915	102.74
392.125	119.12
392.334	-22.19
392.544	123.22
392.753	90.45
392.963	12.63
393.172	29.01
393.382	-5.8
393.591	180.56
393.801	-13.99
394.01	174.42
394.22	57.68
394.429	47.44
394.639	96.6
394.848	133.46
395.058	115.03
395.267	35.16
395.477	149.84
395.686	88.4
395.895	190.8
396.105	205.14
396.314	112.98
396.524	88.4
396.733	-28.33
396.942	178.51
397.152	63.83
397.361	112.98
397.57	18.77
397.78	112.98
397.989	139.6
398.198	174.42
398.407	0.34
398.617	63.83
398.826	88.4
399.035	53.59
399.244	164.18
399.453	127.32
399.663	74.07
399.872	96.6
400.081	16.73
400.29	217.43
400.499	80.21
400.708	123.22
400.917	112.98
401.127	94.55
401.336	2.39
401.545	250.19
401.754	147.8
401.963	141.65
402.172	94.55
402.381	86.36
402.59	192.85
402.799	88.4
403.008	84.31
403.217	102.74
403.426	164.18
403.635	35.16
403.844	90.45
404.053	123.22
404.262	69.97
404.471	225.62
404.68	147.8
404.888	117.08
405.097	174.42
405.306	178.51
405.515	188.75
405.724	176.47
405.933	246.1
406.142	217.43
406.35	237.91
406.559	176.47
406.768	278.87
406.977	272.72
407.185	252.24
407.394	237.91
407.603	121.17
407.812	276.82
408.02	266.58
408.229	268.63
408.438	262.48
408.646	231.76
408.855	280.91
409.064	270.67
409.272	239.95
409.481	278.87
409.69	237.91
409.898	244.05
410.107	315.73
410.315	401.74
410.524	344.4
410.733	328.02
410.941	244.05
411.15	368.98
411.358	409.94
411.567	504.14
411.775	528.72
411.984	491.85
412.192	500.05
412.401	481.61
412.609	483.66
412.818	573.77
413.026	543.05
413.234	545.1
413.443	565.58
413.651	577.87
413.86	657.74
414.068	682.31
414.276	696.65
414.485	704.84
414.693	663.88
414.901	848.2
415.11	768.33
415.318	751.95
415.526	813.38
415.734	917.83
415.943	870.73
416.151	1003.85
416.359	852.3
416.567	969.03
416.776	977.22
416.984	1100.1
417.192	1128.77
417.4	1040.71
417.608	971.08
417.817	1139.01
418.025	1161.54
418.233	1190.21
418.441	1208.64
418.649	1341.76
418.857	1384.77
419.065	1399.1
419.273	1249.6
419.481	1487.17
419.689	1558.85
419.897	1579.33
420.105	1575.23
420.313	1655.1
420.521	1755.45
420.729	1777.98
420.937	1818.94
421.145	1843.51
421.353	2029.88
421.561	2117.94
421.769	2156.85
421.977	2292.02
422.185	2275.63
422.393	2216.24
422.601	2525.49
422.809	2556.21
423.017	2591.02
423.224	2517.29
423.432	2584.88
423.64	2689.32
423.848	2892.07
424.056	2785.58
424.263	3090.73
424.471	3047.72
424.679	3166.5
424.887	3328.29
425.094	3346.72
425.302	3383.59
425.51	3453.22
425.718	3578.14
425.925	3684.64
426.133	3672.35
426.341	3944.73
426.548	4176.15
426.756	4071.7
426.964	4294.93
427.171	4419.86
427.379	4540.69
427.586	4569.36
427.794	4710.67
428.001	5077.26
428.209	5320.96
428.417	5075.21
428.624	5513.47
428.832	5568.77
429.039	5310.72
429.247	5474.56
429.454	6027.51
429.662	6332.66
429.869	6007.03
430.076	6199.54
430.284	6121.72
430.491	6598.9
430.699	6918.38
430.906	6775.02
431.114	6899.95
431.321	7276.77
431.528	7250.15
431.736	7461.09
431.943	8022.23
432.15	7665.89
432.358	7913.69
432.565	8405.21
432.772	8235.22
432.979	8779.98
433.187	8845.52
433.394	8945.87
433.601	9537.73
433.808	9496.77
434.016	9408.71
434.223	9674.95
434.43	10442.93
434.637	10055.87
434.844	10772.66
435.052	10930.35
435.259	10916.01
435.466	11212.97
435.673	10807.47
435.88	11497.64
436.087	12206.24
436.294	12427.42
436.501	11874.46
436.708	12202.14
436.915	12511.38
437.122	13160.59
437.329	13076.62
437.537	13543.56
437.743	13639.81
437.95	13582.47
438.157	14188.67
438.364	14669.94
438.571	14624.89
438.778	14887.03
438.985	16138.34
439.192	15407.21
439.399	16025.7
439.606	15648.87
439.813	16332.89
440.02	17434.7
440.227	17070.16
440.433	16875.6
440.64	17639.5
440.847	17248.33
441.054	17961.03
441.261	19154.99
441.467	18679.86
441.674	19183.66
441.881	19746.86
442.088	19671.08
442.294	19623.98
442.501	19931.17
442.708	20297.76
442.914	21315.6
443.121	21970.95
443.328	21547.02
443.534	22779.9
443.741	22208.51
443.948	21827.59
444.154	23736.3
444.361	23363.57
444.568	23470.06
444.774	23508.97
444.981	23623.66
445.187	24584.16
445.394	25583.57
445.6	25243.6
445.807	27199.41
446.013	26548.16
446.22	26611.65
446.426	27701.17
446.633	28307.37
446.839	28751.77
447.046	27613.1
447.252	29460.37
447.459	29192.09
447.665	29231
447.871	30470.02
448.078	31584.12
448.284	30187.4
448.491	30869.37
448.697	32147.31
448.903	32470.89
449.11	32677.73
449.316	32352.1
449.522	33023.84
449.728	33933.14
449.935	34107.21
450.141	33931.09
450.347	34586.44
450.553	33769.3
450.76	33707.86
450.966	35061.57
451.172	34398.02
451.378	35262.27
451.584	34750.28
451.791	35518.26
451.997	35458.87
452.203	36288.3
452.409	36060.98
452.615	35743.54
452.821	34578.25
453.027	34289.48
453.233	35782.45
453.44	34443.08
453.646	34533.19
453.852	35055.42
454.058	35157.82
454.264	34191.18
454.47	35217.21
454.676	33849.17
454.882	35106.62
455.088	32018.28
455.294	32425.83
455.5	32857.95
455.705	33367.9
455.911	31983.47
456.117	31375.22
456.323	31031.16
456.529	29384.6
456.735	30652.29
456.941	29798.29
457.147	29257.62
457.352	28323.75
457.558	28172.2
457.764	28108.71
457.97	27770.8
458.176	26986.43
458.381	26959.8
458.587	25628.62
458.793	25800.65
458.999	24373.22
459.204	25868.23
459.41	25128.92
459.616	23386.1
459.821	23535.6
460.027	23130.1
460.233	23093.24
460.438	21764.11
460.644	21950.47
460.85	20754.46
461.055	20654.11
461.261	20242.46
461.466	19068.98
461.672	18327.61
461.878	19632.17
462.083	18169.92
462.289	18133.06
462.494	18104.39
462.7	17266.77
462.905	16549.98
463.111	17023.06
463.316	17277.01
463.522	16644.18
463.727	16650.33
463.932	16668.76
464.138	16386.14
464.343	16459.87
464.549	16115.81
464.754	16363.61
464.959	16099.42
465.165	16248.93
465.37	15607.91
465.575	15261.8
465.781	15743.08
465.986	15472.75
466.191	15208.56
466.397	15136.88
466.602	13854.85
466.807	14688.37
467.012	14917.75
467.218	14616.69
467.423	14366.84
467.628	14450.81
467.833	15116.4
468.038	14456.95
468.244	14026.88
468.449	14596.21
468.654	14160
468.859	13930.62
469.064	13938.82
469.269	13236.36
469.474	13437.06
469.679	13684.87
469.885	13473.93
470.09	13422.73
470.295	13301.9
470.5	13109.39
470.705	13068.43
470.91	13174.92
471.115	12513.43
471.32	12927.12
471.525	12810.39
471.73	12388.5
471.935	12327.07
472.139	11813.03
472.344	12212.38
472.549	11933.86
472.754	11937.95
472.959	11886.75
473.164	11278.51
473.369	11225.26
473.574	11673.76
473.778	11503.78
473.983	11403.43
474.188	11266.22
474.393	10881.2
474.598	10791.09
474.802	10823.86
475.007	10696.88
475.212	10772.66
475.417	10318.01
475.621	10231.99
475.826	10213.56
476.031	10098.88
476.235	10002.62
476.44	10039.48
476.645	9988.28
476.849	9957.57
477.054	9867.45
477.259	9316.55
477.463	9705.67
477.668	9181.39
477.872	9437.38
478.077	9203.91
478.282	8880.33
478.486	8863.95
478.691	8843.47
478.895	8874.19
479.1	8859.85
479.304	8863.95
479.509	8493.27
479.713	8597.71
479.918	8454.36
480.122	8493.27
480.326	8329.43
480.531	8585.43
480.735	8247.51
480.94	8323.29
481.144	8573.14
481.348	8149.21
481.553	8306.9
481.757	8020.19
481.961	8210.65
482.166	8257.75
482.37	8214.74
482.574	7948.51
482.778	7772.38
482.983	8222.94
483.187	8091.87
483.391	8106.2
483.595	8059.1
483.8	7887.07
484.004	7901.4
484.208	8018.14
484.412	8077.53
484.616	7954.65
484.821	7833.82
485.025	7934.17
485.229	8091.87
485.433	7966.94
485.637	7983.32
485.841	7995.61
486.045	7946.46
486.249	7930.08
486.453	7936.22
486.657	7985.37
486.861	7887.07
487.065	7739.62
487.269	8120.54
487.473	7981.28
487.677	8184.02
487.881	8161.5
488.085	7782.62
488.289	8153.3
488.493	7807.2
488.697	8077.53
488.901	7872.73
489.105	7854.3
489.309	7874.78
489.512	8093.91
489.716	8106.2
489.92	7938.27
490.124	7952.6
490.328	8233.18
490.531	8040.67
490.735	8073.43
490.939	8227.03
491.143	7905.5
491.346	8145.11
491.55	8233.18
491.754	8224.98
491.958	8241.37
492.161	8200.41
492.365	8323.29
492.569	8237.27
492.772	8407.25
492.976	8499.41
493.18	8370.39
493.383	8495.32
493.587	8335.57
493.79	8454.36
493.994	8544.47
494.197	8814.8
494.401	8749.26
494.605	8653.01
494.808	8825.04
495.012	8732.88
495.215	8749.26
495.419	8978.64
495.622	8847.57
495.825	8980.68
496.029	8945.87
496.232	9097.42
496.436	9277.64
496.639	9427.14
496.843	9392.33
497.046	9396.42
497.249	9502.92
497.453	9652.42
497.656	9652.42
497.859	10053.82
498.063	10055.87
498.266	10094.78
498.469	10057.92
498.673	10156.22
498.876	10301.62
499.079	10406.07
499.282	10348.73
499.485	10733.75
499.689	10731.7
499.892	10819.76
500.095	11028.65
500.298	11045.04
500.501	11102.38
500.705	11528.36
500.908	11440.29
501.111	11550.89
501.314	11571.36
501.517	11577.51
501.72	11761.83
501.923	12038.3
502.126	12310.68
502.329	12359.83
502.532	12646.55
502.735	12425.37
502.938	12714.13
503.141	12636.31
503.344	12761.23
503.547	12865.68
503.75	12941.46
503.953	13219.98
504.156	13537.41
504.359	13623.43
504.562	13680.77
504.765	13887.62
504.968	13983.87
505.17	14063.74
505.373	13979.78
505.576	14389.37
505.779	14762.1
505.982	14792.82
506.185	14938.23
506.387	14919.79
506.59	14997.62
506.793	15319.15
506.996	15253.61
507.198	15761.51
507.401	15554.66
507.604	15771.75
507.807	16117.86
508.009	16230.49
508.212	16670.81
508.415	16535.64
508.617	16500.83
508.82	16762.97
509.022	16666.71
509.225	17199.18
509.428	17291.34
509.63	17481.8
509.833	17578.06
510.035	17832.01
510.238	17520.71
510.44	17870.92
510.643	18229.31
510.845	18284.61
511.048	18257.98
511.25	18391.1
511.453	18632.76
511.655	19415.09
511.858	19056.69
512.06	19314.73
512.262	19408.94
512.465	19308.59
512.667	19824.68
512.87	19718.18
513.072	20125.73
513.274	20148.26
513.477	20025.38
513.679	20703.26
513.881	20682.78
514.084	20600.86
514.286	21043.22
514.488	20973.59
514.69	21440.53
514.893	21446.67
515.095	21673.99
515.297	21561.36
515.499	21753.87
515.701	22278.15
515.904	22413.31
516.106	22634.49
516.308	22702.07
516.51	22685.69
516.712	22927.35
516.914	23375.86
517.116	23363.57
517.318	23488.49
517.52	23519.21
517.722	23683.05
517.925	24043.49
518.127	23910.38
518.329	24602.59
518.531	24285.15
518.733	24641.5
518.935	24844.25
519.136	24649.69
519.338	25147.35
519.54	25200.6
519.742	25479.12
519.944	25558.99
520.146	26140.61
520.348	25823.18
520.55	26050.5
520.752	26179.53
520.954	26472.39
521.155	26527.68
521.357	26752.96
521.559	26765.24
521.761	27592.62
521.963	27156.41
522.164	27193.27
522.366	27512.75
522.568	27422.64
522.77	27533.23
522.971	27985.83
523.173	27711.41
523.375	28297.13
523.576	27805.61
523.778	27905.96
523.98	28798.88
524.181	28454.82
524.383	28506.02
524.584	28839.84
524.786	28938.14
524.988	28854.17
525.189	29249.43
525.391	29153.18
525.592	29347.73
525.794	29343.64
525.995	29298.58
526.197	29306.77
526.398	29482.9
526.6	29448.08
526.801	29837.2
527.003	29970.32
527.204	29310.87
527.406	29857.68
527.607	30021.52
527.808	29943.69
528.01	29691.79
528.211	29757.33
528.412	30302.09
528.614	30162.83
528.815	30482.31
529.016	29915.02
529.218	29945.74
529.419	30181.26
529.62	30158.73
529.822	30467.97
530.023	30226.31
530.224	30068.62
530.425	30267.27
530.626	30279.56
530.828	30222.22
531.029	30443.4
531.23	30541.7
531.431	30146.44
531.632	30345.09
531.833	30566.27
532.035	30592.9
532.236	30470.02
532.437	30584.71
532.638	30304.13
532.839	30764.93
533.04	30769.02
533.241	30232.46
533.442	30820.22
533.643	30683.01
533.844	30447.49
534.045	30654.34
534.246	30173.06
534.447	30736.26
534.648	30330.76
534.849	30523.27
535.05	30185.35
535.251	30498.69
535.451	30199.69
535.652	30982.01
535.853	30343.05
536.054	30922.62
536.255	30584.71
536.456	30134.15
536.657	30627.71
536.857	30275.46
537.058	30295.94
537.259	30648.19
537.46	30513.03
537.66	30326.66
537.861	30220.17
538.062	30658.43
538.263	30326.66
538.463	30422.92
538.664	29992.84
538.865	30457.73
539.065	30429.06
539.266	29886.35
539.466	30117.77
539.667	29941.64
539.868	30553.99
540.068	30295.94
540.269	30224.26
540.469	30551.94
540.67	30148.49
540.87	30353.29
541.071	30306.18
541.271	30394.25
541.472	30470.02
541.672	29894.54
541.873	30064.52
542.073	29636.5
542.274	30429.06
542.474	29669.26
542.675	30021.52
542.875	30365.57
543.075	30125.96
543.276	29652.88
543.476	30326.66
543.676	30013.32
543.877	30119.82
544.077	29779.85
544.277	29699.98
544.478	30029.71
544.678	30142.35
544.878	29654.93
545.078	29851.53
545.279	29757.33
545.479	29816.72
545.679	30074.76
545.879	29994.89
546.079	29806.48
546.28	30211.98
546.48	29267.86
546.68	29904.78
546.88	29833.1
547.08	30058.38
547.28	29921.16
547.48	29339.54
547.68	29859.73
547.88	29763.47
548.081	29970.32
548.281	29859.73
548.481	29609.87
548.681	29822.86
548.881	29794.19
549.081	29941.64
549.28	29900.69
549.48	30125.96
549.68	29628.31
549.88	29869.97
550.08	29288.34
550.28	29939.6
550.48	29632.4
550.68	29972.36
550.88	29730.7
551.08	29869.97
551.279	29728.66
551.479	29685.65
551.679	29915.02
551.879	29626.26
552.079	29996.94
552.278	29675.41
552.478	29570.96
552.678	29585.3
552.878	29714.32
553.077	29663.12
553.277	29466.52
553.477	29681.55
553.676	29552.53
553.876	29400.98
554.076	29495.19
554.275	29257.62
554.475	29347.73
554.674	29415.32
554.874	29753.23
555.074	29276.05
555.273	29505.43
555.473	29269.91
555.672	29382.55
555.872	29321.11
556.071	29446.04
556.271	29472.66
556.47	29140.89
556.67	29147.03
556.869	29220.76
557.068	29411.22
557.268	29290.39
557.467	28989.34
557.667	29204.38
557.866	29339.54
558.065	29106.07
558.265	29058.97
558.464	29095.83
558.663	29114.27
558.863	28891.04
559.062	29560.72
559.261	28827.55
559.461	29458.32
559.66	28788.64
559.859	29063.07
560.058	28485.54
560.258	28721.06
560.457	28741.53
560.656	29202.33
560.855	28831.65
561.054	28786.59
561.253	28819.36
561.453	28952.48
561.652	28964.76
561.851	28895.13
562.05	28854.17
562.249	28589.99
562.448	29142.94
562.647	28979.1
562.846	28985.24
563.045	28839.84
563.244	28430.24
563.443	28893.08
563.642	28620.7
563.841	28876.7
564.04	28503.97
564.239	28923.8
564.438	28647.33
564.637	28686.24
564.836	28630.94
565.035	28440.48
565.234	28618.66
565.432	28483.49
565.631	28653.47
565.83	28944.28
566.029	28387.24
566.228	28594.08
566.427	28557.22
566.625	28211.11
566.824	27953.07
567.023	28557.22
567.222	28082.09
567.42	28657.57
567.619	28028.84
567.818	28223.4
568.016	28385.19
568.215	28622.75
568.414	28354.47
568.612	28307.37
568.811	28084.14
569.01	28178.34
569.208	28049.32
569.407	28444.58
569.605	28000.17
569.804	28239.78
570.002	27967.4
570.201	28100.52
570.4	28135.34
570.598	27977.64
570.797	27881.39
570.995	28209.06
571.193	27559.86
571.392	27928.49
571.59	27953.07
571.789	28141.48
571.987	28102.57
572.186	27940.78
572.384	27862.96
572.582	28047.27
572.781	27875.24
572.979	27310
573.177	27451.31
573.376	27817.9
573.574	27539.38
573.772	28012.46
573.971	27631.54
574.169	27217.85
574.367	27613.1
574.565	27697.07
574.763	27328.44
574.962	27391.92
575.16	27144.12
575.358	27381.68
575.556	27049.91
575.754	27586.48
575.952	27043.77
576.151	27656.11
576.349	26982.33
576.547	27221.94
576.745	27058.1
576.943	27006.91
577.141	27295.67
577.339	27203.51
577.537	26992.57
577.735	27215.8
577.933	26425.28
578.131	26712
578.329	27041.72
578.527	26783.68
578.725	26804.16
578.923	26767.29
579.121	26781.63
579.319	26779.58
579.516	26863.55
579.714	26668.99
579.912	26695.61
580.11	26511.3
580.308	26783.68
580.506	26591.17
580.704	26369.99
580.901	26161.09
581.099	26679.23
581.297	26365.89
581.495	26593.22
581.692	26507.2
581.89	26292.16
582.088	26378.18
582.285	26220.49
582.483	26316.74
582.681	26212.29
582.878	26273.73
583.076	26159.05
583.274	26218.44
583.471	25933.77
583.669	26247.11
583.866	25724.88
584.064	26195.91
584.262	25925.58
584.459	26200.01
584.657	25788.36
584.854	26349.51
585.052	25573.33
585.249	25841.61
585.447	26091.46
585.644	25649.1
585.841	25849.8
586.039	26167.24
586.236	25778.12
586.434	25655.25
586.631	25567.18
586.828	25624.53
587.026	25530.32
587.223	25278.42
587.42	25376.72
587.618	25595.85
587.815	25411.54
588.012	25624.53
588.21	25712.59
588.407	25735.12
588.604	25278.42
588.801	25298.9
588.999	25237.46
589.196	25362.39
589.393	25192.4
589.59	25208.79
589.787	25120.73
589.984	24915.93
590.182	24948.7
590.379	25216.98
590.576	25366.48
590.773	25229.27
590.97	25075.67
591.167	25210.84
591.364	24825.82
591.561	25028.57
591.758	24612.83
591.955	24860.63
592.152	25143.25
592.349	24848.35
592.546	25139.16
592.743	24940.5
592.94	24518.62
593.137	24956.89
593.334	25303
593.531	24735.71
593.727	24858.59
593.924	24524.77
594.121	24743.9
594.318	25112.53
594.515	24489.95
594.712	24905.69
594.908	24606.69
595.105	24907.74
595.302	24678.36
595.499	24573.92
595.696	24565.73
595.892	24520.67
596.089	24834.01
596.286	24942.55
596.482	24922.07
596.679	24879.07
596.876	24684.51
597.072	24791
597.269	24389.6
597.466	24604.64
597.662	24627.17
597.859	24575.97
598.055	24850.39
598.252	24633.31
598.448	24801.24
598.645	24387.55
598.841	24592.35
599.038	24649.69
599.234	24856.54
599.431	24635.36
599.627	24551.39
599.824	24809.43
600.02	24702.94
600.217	24549.34
600.413	24453.09
600.609	24936.41
600.806	24723.42
601.002	24661.98
601.198	24410.08
601.395	24219.62
601.591	24512.48
601.787	24424.42
601.984	24403.94
602.18	25020.38
602.376	24535.01
602.572	24852.44
602.769	24725.47
602.965	24541.15
603.161	24768.48
603.357	24731.61
603.553	24592.35
603.75	24719.32
603.946	24866.78
604.142	25042.9
604.338	24700.89
604.534	24831.96
604.73	24518.62
604.926	24704.99
605.122	25100.25
605.318	24416.22
605.514	24887.26
605.71	24760.28
605.906	24907.74
606.102	24676.32
606.298	24938.46
606.494	24915.93
606.69	24977.37
606.886	25319.38
607.082	24829.91
607.278	24983.51
607.474	25020.38
607.67	25337.81
607.866	24758.24
608.062	25372.63
608.257	24934.36
608.453	25526.22
608.649	25481.17
608.845	25036.76
609.041	25315.28
609.236	25462.74
609.432	25587.66
609.628	25216.98
609.824	25360.34
610.019	25300.95
610.215	25649.1
610.411	25688.01
610.606	25612.24
610.802	25790.41
610.998	25810.89
611.193	25651.15
611.389	25894.86
611.584	25788.36
611.78	25698.25
611.976	26206.15
612.171	26013.64
612.367	25972.68
612.562	25952.2
612.758	25806.8
612.953	26062.79
613.149	26345.41
613.344	25839.56
613.539	26761.15
613.735	26232.77
613.93	26435.52
614.126	26462.15
614.321	26687.42
614.517	26163.14
614.712	26320.84
614.907	26468.29
615.103	26795.96
615.298	26496.96
615.493	26998.71
615.688	26425.28
615.884	27068.34
616.079	26417.09
616.274	26697.66
616.47	26892.22
616.665	26793.92
616.86	26808.25
617.055	26916.79
617.25	26619.84
617.445	27019.19
617.641	26439.62
617.836	26980.28
618.031	26408.9
618.226	26886.08
618.421	26939.32
618.616	27029.43
618.811	26906.55
619.006	27219.89
619.201	26920.89
619.396	27228.09
619.591	26605.5
619.786	26978.23
619.981	26611.65
620.176	27047.86
620.371	26525.63
620.566	27207.61
620.761	26499.01
620.956	27236.28
621.151	26646.46
621.346	26675.13
621.541	26314.69
621.735	26724.29
621.93	26453.95
622.125	26533.82
622.32	26511.3
622.515	26406.85
622.709	26111.94
622.904	26345.41
623.099	26161.09
623.294	26253.25
623.488	25989.06
623.683	26146.76
623.878	25767.88
624.072	25892.81
624.267	26042.31
624.462	25585.61
624.656	25585.61
624.851	25708.49
625.046	25741.26
625.24	25538.51
625.435	25307.09
625.629	25346
625.824	25290.71
626.018	25251.8
626.213	25251.8
626.407	25286.61
626.602	24899.55
626.796	25026.52
626.991	24954.84
627.185	24903.64
627.38	24580.06
627.574	24688.6
627.768	24633.31
627.963	24088.55
628.157	24537.05
628.352	24602.59
628.546	24070.12
628.74	24332.26
628.935	23998.44
629.129	24176.61
629.323	23760.87
629.517	23502.83
629.712	23728.11
629.906	23601.13
630.1	23322.61
630.294	23638
630.489	23400.43
630.683	23656.43
630.877	23250.93
631.071	23140.34
631.265	23113.72
631.459	23039.99
631.653	23089.14
631.848	22933.5
632.042	23001.08
632.236	22740.99
632.43	22654.97
632.624	22614.01
632.818	22745.08
633.012	22202.37
633.206	22200.32
633.4	22523.9
633.594	21968.9
633.788	22304.77
633.982	22362.11
634.176	21970.95
634.369	21559.31
634.563	21970.95
634.757	21510.16
634.951	21839.88
635.145	21659.66
635.339	21663.75
635.533	21286.93
635.726	21358.61
635.92	20971.54
636.114	20926.49
636.308	20942.87
636.501	21065.75
636.695	20705.31
636.889	21010.45
637.083	20572.19
637.276	20752.41
637.47	20602.91
637.664	20510.75
637.857	20447.26
638.051	20475.93
638.244	20336.67
638.438	20174.88
638.632	20092.96
638.825	19976.23
639.019	19935.27
639.212	19548.2
639.406	19611.69
639.599	19472.43
639.793	19470.38
639.986	19089.46
640.18	19195.95
640.373	19292.21
640.567	18901.04
640.76	19087.41
640.954	18937.91
641.147	18620.47
641.34	18538.55
641.534	18618.43
641.727	18460.73
641.92	18556.99
642.114	18432.06
642.307	18073.67
642.5	18298.94
642.694	17930.31
642.887	18028.61
643.08	18030.66
643.273	17879.11
643.467	17588.3
643.66	17647.69
643.853	17334.35
644.046	17125.46
644.239	17776.71
644.432	17006.67
644.626	17403.98
644.819	16762.97
645.012	17006.67
645.205	16932.95
645.398	17006.67
645.591	16670.81
645.784	16549.98
645.977	16345.18
646.17	16554.07
646.363	16246.88
646.556	16369.76
646.749	16078.94
646.942	16277.6
647.135	16226.4
647.328	15982.69
647.521	16011.36
647.714	15771.75
647.907	15734.89
648.099	15577.19
648.292	15593.58
648.485	15556.71
648.678	15208.56
648.871	15222.89
649.064	15231.08
649.256	15163.5
649.449	15048.82
649.642	14991.47
649.835	14801.01
650.027	14891.12
650.22	14565.5
650.413	14545.02
650.605	14465.14
650.798	14508.15
650.991	14284.92
651.183	14481.53
651.376	14098.56
651.568	14143.61
651.761	13996.16
651.954	14045.31
652.146	14055.55
652.339	13842.56
652.531	13627.53
652.724	13981.82
652.916	13353.1
653.109	13373.58
653.301	13232.27
653.494	13301.9
653.686	13334.67
653.879	13297.8
654.071	13072.53
654.263	13054.09
654.456	12816.53
654.648	12857.49
654.84	12886.16
655.033	12587.16
655.225	12581.01
655.417	12388.5
655.61	12574.87
655.802	12685.46
655.994	12365.98
656.186	12431.51
656.379	12325.02
656.571	12257.43
656.763	12009.63
656.955	11976.86
657.148	11991.2
657.34	11780.26
657.532	11649.19
657.724	11593.89
657.916	11471.01
658.108	11417.77
658.3	11415.72
658.492	11419.82
658.684	11380.9
658.876	11274.41
659.068	11010.22
659.26	10979.5
659.452	11290.79
659.644	10977.45
659.836	10948.78
660.028	10821.81
660.22	10721.46
660.412	10668.21
660.604	10778.8
660.796	10715.31
660.988	10442.93
661.18	10543.28
661.372	10338.49
661.563	10621.11
661.755	10168.51
661.947	10262.71
662.139	10113.21
662.331	10068.16
662.522	10006.72
662.714	10004.67
662.906	9744.58
663.097	9920.7
663.289	9656.51
663.481	9488.58
663.673	9767.1
663.864	9525.44
664.056	9382.09
664.247	9601.22
664.439	9386.18
664.631	9359.56
664.822	9396.42
665.014	9210.06
665.205	9109.71
665.397	9019.6
665.588	9205.96
665.78	9033.93
665.971	8990.92
666.163	8855.76
666.354	8767.7
666.546	8693.97
666.737	8792.27
666.929	8601.81
667.12	8450.26
667.311	8618.19
667.503	8521.94
667.694	8360.15
667.885	8517.84
668.077	8448.21
668.268	8245.46
668.459	8220.89
668.651	8235.22
668.842	8323.29
669.033	8196.31
669.224	7940.32
669.416	8153.3
669.607	8227.03
669.798	7919.84
669.989	8026.33
670.18	8120.54
670.371	7913.69
670.563	7837.92
670.754	7854.3
670.945	7643.36
671.136	7708.9
671.327	7645.41
671.518	7768.29
671.709	7674.08
671.9	7749.86
672.091	7860.45
672.282	7528.67
672.473	7530.72
672.664	7520.48
672.855	7358.69
673.046	7395.56
673.237	7287.01
673.428	7495.91
673.619	7319.78
673.809	7162.09
674	7334.12
674.191	7196.9
674.382	7184.62
674.573	7178.47
674.764	7151.85
674.954	7110.89
675.145	7031.02
675.336	6938.86
675.527	6957.29
675.717	6988.01
675.908	6914.28
676.099	6959.34
676.289	6920.43
676.48	7096.55
676.671	6922.48
676.861	6942.96
677.052	6772.97
677.243	6678.77
677.433	6887.66
677.624	6963.44
677.814	6598.9
678.005	6609.14
678.195	6650.1
678.386	6707.44
678.576	6693.1
678.767	6656.24
678.957	6613.23
679.148	6643.95
679.338	6559.99
679.529	6646
679.719	6338.8
679.909	6623.47
680.1	6639.86
680.29	6543.6
680.481	6426.87
680.671	6625.52
680.861	6539.51
681.052	6445.3
681.242	6457.59
681.432	6551.79
681.622	6217.97
681.813	6416.63
682.003	6463.73
682.193	6279.41
682.383	6383.86
682.573	6232.31
682.764	6373.62
682.954	6371.57
683.144	6287.61
683.334	6105.34
683.524	6297.85
683.714	6377.72
683.904	6197.49
684.094	6359.28
684.284	6340.85
684.474	6357.24
684.664	6004.99
684.854	6265.08
685.044	6312.18
685.234	6166.78
685.424	6174.97
685.614	6183.16
685.804	6144.25
685.994	6244.6
686.184	6177.02
686.374	6004.99
686.564	6082.81
686.753	6213.88
686.943	5916.92
687.133	5847.29
687.323	6078.71
687.513	6068.47
687.702	5851.39
687.892	5808.38
688.082	5822.72
688.272	5910.78
688.461	6054.14
688.651	5906.68
688.841	5736.7
689.03	5892.35
689.22	5853.44
689.41	5753.09
689.599	5775.61
689.789	5941.5
689.979	5875.96
690.168	6013.18
690.358	5740.8
690.547	5902.59
690.737	5697.79
690.926	5933.31
691.116	5689.6
691.305	5736.7
691.495	5607.68
691.684	5662.97
691.874	5871.87
692.063	5810.43
692.252	5656.83
692.442	5769.47
692.631	5662.97
692.82	5693.69
693.01	5779.71
693.199	5773.57
693.388	5634.3
693.578	5525.76
693.767	5597.44
693.956	5566.72
694.146	5574.91
694.335	5646.59
694.524	5404.93
694.713	5605.63
694.902	5681.41
695.092	5619.97
695.281	5525.76
695.47	5544.19
695.659	5648.64
695.848	5521.67
696.037	5603.58
696.226	5564.67
696.415	5816.57
696.604	5751.04
696.793	5556.48
696.982	5601.54
697.171	5636.35
697.36	5642.5
697.549	5626.11
697.738	5460.23
697.927	5503.23
698.116	5576.96
698.305	5466.37
698.494	5572.86
698.683	5542.14
698.872	5675.26
699.061	5460.23
699.25	5449.99
699.438	5495.04
699.627	5607.68
699.816	5726.46
700.005	5458.18
700.193	5445.89
700.382	5568.77
700.571	5656.83
700.76	5486.85
700.948	5552.38
701.137	5622.02
701.326	5511.43
701.514	5429.51
701.703	5443.84
701.892	5552.38
702.08	5507.33
702.269	5476.61
702.457	5458.18
702.646	5595.39
702.834	5257.48
703.023	5390.6
703.212	5548.29
703.4	5470.47
703.589	5202.18
703.777	5597.44
703.965	5212.42
704.154	5429.51
704.342	5265.67
704.531	5449.99
704.719	5304.58
704.907	5460.23
705.096	5443.84
705.284	5316.87
705.472	5382.4
705.661	5351.68
705.849	5357.83
706.037	5374.21
706.226	5415.17
706.414	5302.53
706.602	5423.36
706.79	5245.19
706.979	5146.89
707.167	5298.44
707.355	5327.11
707.543	5380.36
707.731	5325.06
707.919	5304.58
708.107	5167.37
708.296	5026.06
708.484	5128.46
708.672	5277.96
708.86	5230.85
709.048	5247.24
709.236	5228.81
709.424	5392.64
709.612	5218.57
709.8	5218.57
709.988	5173.51
710.176	5089.54
710.364	5335.3
710.551	5234.95
710.739	5009.67
710.927	5185.8
711.115	5120.26
711.303	5058.82
711.491	5155.08
711.679	4950.28
711.866	4974.86
712.054	5124.36
712.242	5036.3
712.43	5245.19
712.617	4976.91
712.805	4937.99
712.993	4991.24
713.181	4849.93
713.368	4989.19
713.556	4958.47
713.744	4974.86
713.931	5077.26
714.119	4729.1
714.306	4849.93
714.494	4886.79
714.682	4880.65
714.869	4825.36
715.057	4929.8
715.244	4909.32
715.432	4749.58
715.619	5056.78
715.807	4800.78
715.994	4978.95
716.182	4835.6
716.369	4933.9
716.556	4890.89
716.744	4702.48
716.931	4778.25
717.119	4921.61
717.306	4765.96
717.493	4872.46
717.681	4722.96
717.868	4718.86
718.055	4700.43
718.242	4571.41
718.43	4727.05
718.617	4696.33
718.804	4616.46
718.991	4634.89
719.179	4786.44
719.366	4667.66
719.553	4665.61
719.74	4573.46
719.927	4655.37
720.114	4477.2
720.301	4487.44
720.488	4571.41
720.676	4497.68
720.863	4727.05
721.05	4698.38
721.237	4636.94
721.424	4487.44
721.611	4602.13
721.798	4368.66
721.985	4473.11
722.172	4532.5
722.358	4448.53
722.545	4458.77
722.732	4317.46
722.919	4643.09
723.106	4417.81
723.293	4354.32
723.48	4262.16
723.667	4309.27
723.853	4428.05
724.04	4370.71
724.227	4415.76
724.414	4360.47
724.6	4215.06
724.787	4319.51
724.974	4286.74
725.161	4364.56
725.347	4120.85
725.534	4344.08
725.72	4266.26
725.907	4286.74
726.094	4159.77
726.28	4176.15
726.467	4221.2
726.653	4194.58
726.84	4172.05
727.027	4249.88
727.213	4178.2
727.4	4219.16
727.586	4208.92
727.773	4147.48
727.959	4139.29
728.145	4081.94
728.332	4188.44
728.518	4061.46
728.705	4256.02
728.891	4174.1
729.077	4063.51
729.264	3883.29
729.45	4000.02
729.636	4100.37
729.823	4102.42
730.009	4012.31
730.195	4063.51
730.382	3909.91
730.568	3930.39
730.754	3877.15
730.94	3834.14
731.126	3979.54
731.313	4049.18
731.499	3778.84
731.685	3930.39
731.871	3793.18
732.057	3805.47
732.243	3881.24
732.429	3778.84
732.615	3866.91
732.801	3770.65
732.987	3725.6
733.173	3787.04
733.359	3727.64
733.545	3713.31
733.731	3809.56
733.917	3811.61
734.103	3770.65
734.289	3715.36
734.475	3780.89
734.661	3924.25
734.847	3889.43
735.033	3793.18
735.219	3604.77
735.404	3555.62
735.59	3600.67
735.776	3492.13
735.962	3602.72
736.148	3664.16
736.333	3649.82
736.519	3670.3
736.705	3541.28
736.89	3633.44
737.076	3668.25
737.262	3447.07
737.447	3551.52
737.633	3391.78
737.819	3608.86
738.004	3535.14
738.19	3404.07
738.375	3541.28
738.561	3567.9
738.747	3453.22
738.932	3387.68
739.118	3436.83
739.303	3412.26
739.489	3322.15
739.674	3397.92
739.859	3334.43
740.045	3326.24
740.23	3326.24
740.416	3283.24
740.601	3209.51
740.786	3309.86
740.972	3184.93
741.157	3205.41
741.342	3154.21
741.528	3201.32
741.713	3057.96
741.898	3170.6
742.084	3084.58
742.269	3162.41
742.454	3146.02
742.639	3209.51
742.824	3074.34
743.01	3236.13
743.195	3172.64
743.38	3014.95
743.565	2992.42
743.75	3127.59
743.935	3064.1
744.12	3076.39
744.305	2830.63
744.49	2855.21
744.675	3035.43
744.86	2992.42
745.045	2941.22
745.23	2863.4
745.415	2914.6
745.6	2863.4
745.785	2933.03
745.97	2816.3
746.155	2791.72
746.34	2820.39
746.525	2695.47
746.71	2922.79
746.895	2726.19
747.079	2638.13
747.264	2736.43
747.449	2765.1
747.634	2689.32
747.819	2623.79
748.003	2601.26
748.188	2685.23
748.373	2595.12
748.557	2638.13
748.742	2519.34
748.927	2543.92
749.111	2597.17
749.296	2572.59
749.481	2554.16
749.665	2525.49
749.85	2472.24
750.034	2531.63
750.219	2584.88
750.404	2519.34
750.588	2517.29
750.773	2425.14
750.957	2400.56
751.141	2328.88
751.326	2396.46
751.51	2330.93
751.695	2412.85
751.879	2382.13
752.064	2347.31
752.248	2242.87
752.432	2273.59
752.617	2357.55
752.801	2353.46
752.985	2189.62
753.17	2208.05
753.354	2226.48
753.538	2304.31
753.722	2271.54
753.907	2029.88
754.091	2203.96
754.275	2105.65
754.459	2152.76
754.643	2079.03
754.828	2117.94
755.012	2068.79
755.196	1988.92
755.38	2013.49
755.564	2003.25
755.748	2033.97
755.932	2144.56
756.116	2038.07
756.3	1974.58
756.484	1958.2
756.668	1913.14
756.852	1812.79
757.036	1986.87
757.22	1937.72
757.404	1835.32
757.588	1800.51
757.772	1835.32
757.956	1931.58
758.14	2011.45
758.323	1802.55
758.507	1804.6
758.691	1792.31
758.875	1835.32
759.059	1734.97
759.242	1757.5
759.426	1753.4
759.61	1710.4
759.794	1745.21
759.977	1747.26
760.161	1884.47
760.345	1730.87
760.528	1710.4
760.712	1661.24
760.895	1698.11
761.079	1610.04
761.263	1737.02
761.446	1622.33
761.63	1638.72
761.813	1663.29
761.997	1694.01
762.18	1546.56
762.364	1667.39
762.547	1503.55
762.731	1651
762.914	1507.65
763.098	1524.03
763.281	1485.12
763.464	1544.51
763.648	1681.72
763.831	1462.59
764.015	1483.07
764.198	1556.8
764.381	1491.26
764.564	1550.65
764.748	1524.03
764.931	1519.93
765.114	1499.45
765.297	1495.36
765.481	1507.65
765.664	1460.54
765.847	1427.78
766.03	1495.36
766.213	1440.06
766.397	1417.54
766.58	1466.69
766.763	1483.07
766.946	1397.06
767.129	1380.67
767.312	1440.06
767.495	1433.92
767.678	1407.3
767.861	1472.83
768.044	1438.02
768.227	1374.53
768.41	1384.77
768.593	1214.79
768.776	1499.45
768.959	1356.1
769.142	1347.9
769.324	1358.14
769.507	1298.75
769.69	1308.99
769.873	1358.14
770.056	1468.73
770.239	1278.27
770.421	1341.76
770.604	1249.6
770.787	1257.79
770.97	1325.38
771.152	1325.38
771.335	1263.94
771.518	1288.51
771.7	1339.71
771.883	1413.44
772.066	1270.08
772.248	1222.98
772.431	1245.51
772.613	1278.27
772.796	1270.08
772.978	1249.6
773.161	1282.37
773.343	1302.85
773.526	1198.4
773.708	1231.17
773.891	1157.44
774.073	1198.4
774.256	1245.51
774.438	1259.84
774.621	1212.74
774.803	1247.55
774.985	1155.4
775.168	1192.26
775.35	1091.91
775.532	1157.44
775.715	1071.43
775.897	1182.02
776.079	1034.57
776.261	1157.44
776.444	1128.77
776.626	1120.58
776.808	969.03
776.99	985.41
777.173	1063.24
777.355	1116.48
777.537	1116.48
777.719	1048.9
777.901	1061.19
778.083	901.45
778.265	1022.28
778.447	1012.04
778.629	1079.62
778.811	971.08
778.993	1079.62
779.175	1028.42
779.357	969.03
779.539	950.6
779.721	942.41
779.903	1012.04
780.085	885.06
780.267	971.08
780.449	917.83
780.631	930.12
780.812	885.06
780.994	864.58
781.176	782.67
781.358	860.49
781.54	788.81
781.721	971.08
781.903	919.88
782.085	817.48
782.267	878.92
782.448	807.24
782.63	823.62
782.812	819.53
782.993	885.06
783.175	850.25
783.357	874.82
783.538	837.96
783.72	799.05
783.901	725.32
784.083	837.96
784.264	770.38
784.446	766.28
784.627	770.38
784.809	780.62
784.99	643.4
785.172	747.85
785.353	735.56
785.535	758.09
785.716	727.37
785.897	741.71
786.079	659.79
786.26	721.23
786.441	739.66
786.623	627.02
786.804	690.51
786.985	723.27
787.167	637.26
787.348	696.65
787.529	692.55
787.71	794.95
787.891	575.82
788.073	653.64
788.254	600.4
788.435	715.08
788.616	584.01
788.797	600.4
788.978	682.31
789.159	600.4
789.34	665.93
789.522	598.35
789.703	590.16
789.884	514.38
790.065	641.36
790.246	633.16
790.427	520.53
790.607	649.55
790.788	538.96
790.969	520.53
791.15	600.4
791.331	524.62
791.512	520.53
791.693	549.2
791.874	506.19
792.054	661.84
792.235	618.83
792.416	491.85
792.597	409.94
792.778	524.62
792.958	518.48
793.139	534.86
793.32	506.19
793.5	614.73
793.681	635.21
793.862	444.75
794.042	469.33
794.223	467.28
794.404	436.56
794.584	409.94
794.765	467.28
794.945	469.33
795.126	526.67
795.306	481.61
795.487	371.02
795.667	448.85
795.848	520.53
796.028	495.95
796.209	545.1
796.389	487.76
796.57	471.37
796.75	403.79
796.93	493.9
797.111	401.74
797.291	377.17
797.471	389.46
797.652	436.56
797.832	483.66
798.012	479.57
798.192	360.78
798.373	287.06
798.553	385.36
798.733	395.6
798.913	405.84
799.093	340.3
799.274	442.7
799.454	428.37
799.634	383.31
799.814	477.52
799.994	418.13
800.174	391.5
800.354	366.93
800.534	307.54
800.714	450.89
800.894	360.78
801.074	348.5
801.254	328.02
801.434	434.51
801.614	383.31
801.794	344.4
801.974	1294.66
802.154	328.02
802.334	371.02
802.514	305.49
802.693	360.78
802.873	287.06
803.053	450.89
803.233	334.16
803.413	334.16
803.592	342.35
803.772	315.73
803.952	346.45
804.131	272.72
804.311	356.69
804.491	321.87
804.67	287.06
804.85	305.49
805.03	389.46
805.209	366.93
805.389	315.73
805.568	239.95
805.748	323.92
805.928	237.91
806.107	295.25
806.287	258.39
806.466	297.3
806.646	254.29
806.825	313.68
807.004	301.39
807.184	332.11
807.363	354.64
807.543	291.15
807.722	270.67
807.901	338.26
808.081	385.36
808.26	194.9
808.439	317.78
808.619	278.87
808.798	225.62
808.977	213.33
809.156	299.34
809.336	285.01
809.515	373.07
809.694	280.91
809.873	227.67
810.052	274.77
810.231	317.78
810.411	266.58
810.59	246.1
810.769	244.05
810.948	250.19
811.127	162.13
811.306	291.15
811.485	182.61
811.664	364.88
811.843	350.54
812.022	186.71
812.201	225.62
812.38	176.47
812.559	215.38
812.737	211.28
812.916	162.13
813.095	225.62
813.274	196.95
813.453	207.19
813.632	293.2
813.811	305.49
813.989	141.65
814.168	178.51
814.347	164.18
814.526	272.72
814.704	184.66
814.883	334.16
815.062	209.23
815.24	264.53
815.419	192.85
815.598	303.44
815.776	196.95
815.955	201.04
816.133	125.27
816.312	248.15
816.49	225.62
816.669	233.81
816.847	221.52
817.026	178.51
817.204	158.03
817.383	125.27
817.561	166.23
817.74	174.42
817.918	205.14
818.097	108.88
818.275	168.27
818.453	258.39
818.632	227.67
818.81	209.23
818.988	129.36
819.167	135.51
819.345	213.33
819.523	176.47
819.701	151.89
819.879	172.37
820.058	133.46
820.236	190.8
820.414	160.08
820.592	151.89
820.77	162.13
820.948	119.12
821.127	168.27
821.305	102.74
821.483	188.75
821.661	227.67
821.839	194.9
822.017	172.37
822.195	162.13
822.373	235.86
822.551	182.61
822.729	231.76
822.907	86.36
823.085	176.47
823.262	217.43
823.44	133.46
823.618	219.47
823.796	207.19
823.974	133.46
824.152	110.93
824.329	139.6
824.507	117.08
824.685	139.6
824.863	188.75
825.04	125.27
825.218	168.27
825.396	121.17
825.574	121.17
825.751	121.17
825.929	217.43
826.107	145.75
826.284	37.2
826.462	158.03
826.639	174.42
826.817	88.4
826.994	133.46
827.172	90.45
827.349	127.32
827.527	178.51
827.704	67.92
827.882	98.64
828.059	135.51
828.237	153.94
828.414	164.18
828.591	147.8
828.769	139.6
828.946	100.69
829.124	141.65
829.301	203.09
829.478	59.73
829.655	176.47
829.833	145.75
830.01	67.92
830.187	178.51
830.364	155.99
830.542	129.36
830.719	227.67
830.896	164.18
831.073	164.18
831.25	149.84
831.427	115.03
831.604	90.45
831.782	74.07
831.959	141.65
832.136	86.36
832.313	96.6
832.49	61.78
832.667	192.85
832.844	65.88
833.021	194.9
833.198	98.64
833.374	39.25
833.551	133.46
833.728	63.83
833.905	170.32
834.082	-22.19
834.259	57.68
834.436	158.03
834.612	131.41
834.789	102.74
834.966	67.92
835.143	108.88
835.319	29.01
835.496	135.51
835.673	141.65
835.85	74.07
836.026	57.68
836.203	158.03
836.38	22.87
836.556	12.63
836.733	49.49
836.909	178.51
837.086	117.08
837.262	-20.14
837.439	115.03
837.616	37.2
837.792	88.4
837.968	131.41
838.145	-22.19
838.321	61.78
838.498	80.21
838.674	80.21
838.851	102.74
839.027	24.92
839.203	96.6
839.38	141.65
839.556	80.21
839.732	90.45
839.909	35.16
840.085	92.5
840.261	35.16
840.437	57.68
840.614	0.34
840.79	76.12
840.966	98.64
841.142	119.12
841.318	10.58
841.494	129.36
841.671	69.97
841.847	-16.04
842.023	139.6
842.199	84.31
842.375	106.84
842.551	14.68
842.727	-13.99
842.903	65.88
843.079	35.16
843.255	141.65
843.431	72.02
843.607	88.4
843.783	16.73
843.959	100.69
844.134	-28.33
844.31	94.55
844.486	96.6
844.662	26.96
844.838	117.08
845.013	82.26
845.189	82.26
845.365	61.78
845.541	100.69
845.716	53.59
845.892	119.12
846.068	139.6
846.244	59.73
846.419	123.22
846.595	-93.87
846.77	12.63
846.946	65.88
847.122	-52.91
847.297	26.96
847.473	153.94
847.648	47.44
847.824	-54.95
847.999	-38.57
848.175	55.64
848.35	80.21
848.526	125.27
848.701	29.01
848.876	115.03
849.052	115.03
849.227	92.5
849.403	22.87
849.578	-11.95
849.753	8.53
849.929	4.44
850.104	24.92
850.279	39.25
850.454	2.39
850.63	90.45
850.805	69.97
850.98	20.82
851.155	47.44
851.33	49.49
851.505	-42.67
851.681	112.98
851.856	-1.71
852.031	86.36
852.206	33.11
852.381	20.82
852.556	10.58
852.731	26.96
852.906	43.35
853.081	35.16
853.256	69.97
853.431	24.92
853.606	26.96
853.781	26.96
853.956	-81.58
854.131	8.53
854.305	67.92
854.48	-28.33
854.655	0.34
854.83	47.44
855.005	6.49
855.18	-5.8
855.354	2.39
855.529	53.59
855.704	45.4
855.879	96.6
856.053	-32.43
856.228	43.35
856.403	4.44
856.577	125.27
856.752	-102.06
856.926	49.49
857.101	16.73
857.276	29.01
857.45	57.68
857.625	106.84
857.799	22.87
857.974	63.83
858.148	2.39
858.323	53.59
858.497	-61.1
858.672	2.39
858.846	82.26
859.02	84.31
859.195	24.92
859.369	-18.09
859.543	88.4
859.718	76.12
859.892	45.4
860.066	45.4
860.241	16.73
860.415	20.82
860.589	-46.76
860.763	26.96
860.938	-16.04
861.112	59.73
861.286	-9.9
861.46	2.39
861.634	-22.19
861.808	74.07
861.982	24.92
862.157	53.59
862.331	8.53
862.505	39.25
862.679	-87.72
862.853	6.49
863.027	20.82
863.201	80.21
863.375	-3.75
863.549	18.77
863.722	35.16
863.896	69.97
864.07	-100.01
864.244	0.34
864.418	20.82
864.592	-42.67
864.766	20.82
864.939	16.73
865.113	-16.04
865.287	74.07
865.461	-3.75
865.634	104.79
865.808	-18.09
865.982	10.58
866.156	-5.8
866.329	-65.19
866.503	-30.38
866.676	18.77
866.85	-3.75
867.024	-54.95
867.197	84.31
867.371	-24.23
867.544	-24.23
867.718	-42.67
867.891	53.59
868.065	-20.14
868.238	53.59
868.412	102.74
868.585	94.55
868.759	55.64
868.932	-46.76
869.105	-65.19
869.279	18.77
869.452	-46.76
869.625	45.4
869.799	-30.38
869.972	-65.19
870.145	45.4
870.319	37.2
870.492	-11.95
870.665	31.06
870.838	-22.19
871.011	-87.72
871.185	43.35
871.358	-73.39
871.531	-18.09
871.704	-52.91
871.877	33.11
872.05	-46.76
872.223	-16.04
872.396	8.53
872.569	76.12
872.742	-7.85
872.915	57.68
873.088	-46.76
873.261	-42.67
873.434	63.83
873.607	63.83
873.78	33.11
873.953	-67.24
874.126	12.63
874.299	31.06
874.471	-34.47
874.644	-38.57
874.817	29.01
874.99	39.25
875.163	-79.53
875.335	37.2
875.508	-30.38
875.681	65.88
875.853	-5.8
876.026	41.3
876.199	45.4
876.371	10.58
876.544	33.11
876.717	8.53
876.889	-59.05
877.062	53.59
877.234	-18.09
877.407	-11.95
877.579	-24.23
877.752	24.92
877.924	43.35
878.097	24.92
878.269	-1.71
878.442	74.07
878.614	14.68
878.786	102.74
878.959	-9.9
879.131	8.53
879.303	-42.67
879.476	-38.57
879.648	8.53
879.82	12.63
879.993	-79.53
880.165	-3.75
880.337	-28.33
880.509	43.35
880.681	24.92
880.854	26.96
881.026	29.01
881.198	22.87
881.37	18.77
881.542	-63.15
881.714	-63.15
881.886	-30.38
882.058	-16.04
882.23	-9.9
882.402	98.64
882.574	-7.85
882.746	-9.9
882.918	2.39
883.09	14.68
883.262	16.73
883.434	-81.58
883.606	24.92
883.778	35.16
883.95	20.82
884.122	65.88
884.293	-1.71
884.465	-28.33
884.637	24.92
884.809	-9.9
884.98	16.73
885.152	72.02
885.324	121.17
885.496	12.63
885.667	-32.43
885.839	-5.8
886.011	92.5
886.182	0.34
886.354	6.49
886.525	47.44
886.697	-44.71
886.869	-7.85
887.04	-46.76
887.212	12.63
887.383	67.92
887.555	-1.71
887.726	-42.67
887.897	0.34
888.069	-16.04
888.24	31.06
888.412	12.63
888.583	14.68
888.754	-50.86
888.926	-83.63
889.097	10.58
889.268	8.53
889.44	-36.52
889.611	-75.43
889.782	-67.24
889.953	-59.05
890.125	82.26
890.296	-40.62
890.467	-32.43
890.638	-83.63
890.809	10.58
890.98	-32.43
891.151	102.74
891.323	16.73
891.494	2.39
891.665	-3.75
891.836	4.44
892.007	20.82
892.178	-13.99
892.349	-18.09
892.52	-38.57
892.691	-16.04
892.862	-42.67
893.032	-26.28
893.203	8.53
893.374	-20.14
893.545	51.54
893.716	8.53
893.887	72.02
894.057	-81.58
894.228	-11.95
894.399	-36.52
894.57	0.34
894.74	-61.1
894.911	-3.75
895.082	-38.57
895.253	-61.1
895.423	-7.85
895.594	37.2
895.764	8.53
895.935	-11.95
896.106	-38.57
896.276	8.53
896.447	4.44
896.617	-1.71
896.788	-151.21
896.958	-24.23
897.129	-30.38
897.299	-40.62
897.47	20.82
897.64	55.64
897.81	6.49
897.981	51.54
898.151	-26.28
898.322	-42.67
898.492	-38.57
898.662	-71.34
898.832	16.73
899.003	-67.24
899.173	53.59
899.343	41.3
899.513	-34.47
