Data from USB4F104151__80__12-12-51-052.txt Node

Date: Fri Mar 14 12:12:51 EDT 2025
User: louis
Spectrometer: USB4F10415
Trigger mode: 4
Integration Time (sec): 5.000000E-2
Scans to average: 1
Electric dark correction enabled: true
Nonlinearity correction enabled: false
Boxcar width: 0
XAxis mode: Wavelengths
Number of Pixels in Spectrum: 3648
>>>>>Begin Spectral Data<<<<<
178.204	-172.37
178.424	-172.37
178.644	-172.37
178.864	-217.43
179.084	-186.71
179.304	42.67
179.524	-39.25
179.744	13.99
179.964	73.39
180.184	20.14
180.404	-8.53
180.624	52.91
180.844	-10.58
181.064	-55.64
181.283	-29.01
181.503	-33.11
181.723	-26.96
181.943	-22.87
182.163	71.34
182.383	-14.68
182.602	57
182.822	-18.77
183.042	59.05
183.262	-29.01
183.482	34.47
183.701	61.1
183.921	-16.73
184.141	-18.77
184.361	104.11
184.58	28.33
184.8	30.38
185.02	-31.06
185.239	114.34
185.459	50.86
185.679	42.67
185.898	-100.69
186.118	61.1
186.338	67.24
186.557	97.96
186.777	-14.68
186.997	77.48
187.216	5.8
187.436	85.67
187.655	44.71
187.875	138.92
188.095	40.62
188.314	100.01
188.534	110.25
188.753	30.38
188.973	116.39
189.192	112.3
189.412	26.28
189.631	-35.16
189.851	93.87
190.07	104.11
190.29	-14.68
190.509	20.14
190.729	44.71
190.948	61.1
191.168	214.7
191.387	87.72
191.607	11.95
191.826	61.1
192.045	-20.82
192.265	83.63
192.484	61.1
192.704	59.05
192.923	-20.82
193.142	159.4
193.362	42.67
193.581	48.81
193.8	-4.44
194.02	42.67
194.239	1.71
194.458	63.15
194.678	67.24
194.897	38.57
195.116	32.43
195.335	85.67
195.555	42.67
195.774	42.67
195.993	140.97
196.212	-2.39
196.432	40.62
196.651	-12.63
196.87	13.99
197.089	145.06
197.308	-4.44
197.528	102.06
197.747	-61.78
197.966	18.09
198.185	159.4
198.404	13.99
198.623	106.15
198.842	116.39
199.062	54.95
199.281	67.24
199.5	26.28
199.719	44.71
199.938	71.34
200.157	93.87
200.376	63.15
200.595	59.05
200.814	36.52
201.033	5.8
201.252	89.77
201.471	77.48
201.69	106.15
201.909	52.91
202.128	106.15
202.347	83.63
202.566	54.95
202.785	18.09
203.004	18.09
203.223	130.73
203.442	48.81
203.661	-6.49
203.879	102.06
204.098	83.63
204.317	-22.87
204.536	155.3
204.755	32.43
204.974	71.34
205.193	1.71
205.411	177.83
205.63	140.97
205.849	3.75
206.068	7.85
206.287	-10.58
206.505	20.14
206.724	32.43
206.943	1.71
207.162	-20.82
207.381	30.38
207.599	9.9
207.818	13.99
208.037	46.76
208.255	73.39
208.474	63.15
208.693	130.73
208.911	30.38
209.13	114.34
209.349	126.63
209.567	54.95
209.786	22.19
210.005	42.67
210.223	5.8
210.442	34.47
210.661	114.34
210.879	46.76
211.098	13.99
211.316	9.9
211.535	75.43
211.753	50.86
211.972	57
212.191	-88.4
212.409	-31.06
212.628	-24.92
212.846	16.04
213.065	65.19
213.283	136.87
213.502	20.14
213.72	11.95
213.938	54.95
214.157	11.95
214.375	69.29
214.594	42.67
214.812	59.05
215.031	81.58
215.249	61.1
215.467	42.67
215.686	-10.58
215.904	22.19
216.122	-0.34
216.341	91.82
216.559	-12.63
216.778	77.48
216.996	149.16
217.214	36.52
217.432	-2.39
217.651	-49.49
217.869	48.81
218.087	81.58
218.306	24.23
218.524	30.38
218.742	50.86
218.96	54.95
219.179	24.23
219.397	93.87
219.615	159.4
219.833	52.91
220.051	-0.34
220.27	69.29
220.488	38.57
220.706	40.62
220.924	34.47
221.142	-31.06
221.36	36.52
221.578	32.43
221.796	52.91
222.015	63.15
222.233	93.87
222.451	89.77
222.669	42.67
222.887	59.05
223.105	28.33
223.323	75.43
223.541	40.62
223.759	124.58
223.977	11.95
224.195	34.47
224.413	75.43
224.631	50.86
224.849	11.95
225.067	102.06
225.285	5.8
225.503	71.34
225.721	-90.45
225.939	36.52
226.157	9.9
226.375	147.11
226.592	-35.16
226.81	104.11
227.028	79.53
227.246	145.06
227.464	-53.59
227.682	57
227.9	93.87
228.117	7.85
228.335	67.24
228.553	5.8
228.771	34.47
228.989	46.76
229.206	-37.2
229.424	30.38
229.642	-47.44
229.86	-102.74
230.077	69.29
230.295	16.04
230.513	110.25
230.731	83.63
230.948	89.77
231.166	75.43
231.384	-24.92
231.601	130.73
231.819	95.91
232.037	-8.53
232.254	57
232.472	81.58
232.689	-4.44
232.907	116.39
233.125	18.09
233.342	-47.44
233.56	48.81
233.777	77.48
233.995	-14.68
234.213	157.35
234.43	79.53
234.648	75.43
234.865	13.99
235.083	54.95
235.3	75.43
235.518	54.95
235.735	95.91
235.953	44.71
236.17	-2.39
236.388	69.29
236.605	89.77
236.822	138.92
237.04	102.06
237.257	38.57
237.475	-51.54
237.692	63.15
237.909	20.14
238.127	-59.73
238.344	28.33
238.562	108.2
238.779	67.24
238.996	9.9
239.214	40.62
239.431	104.11
239.648	18.09
239.865	-0.34
240.083	85.67
240.3	28.33
240.517	-20.82
240.735	38.57
240.952	77.48
241.169	24.23
241.386	18.09
241.603	9.9
241.821	44.71
242.038	50.86
242.255	44.71
242.472	1.71
242.689	116.39
242.907	100.01
243.124	63.15
243.341	77.48
243.558	-33.11
243.775	44.71
243.992	-10.58
244.209	54.95
244.426	202.41
244.643	97.96
244.86	93.87
245.078	71.34
245.295	-14.68
245.512	-22.87
245.729	-8.53
245.946	44.71
246.163	57
246.38	-33.11
246.597	110.25
246.814	97.96
247.031	67.24
247.248	3.75
247.464	52.91
247.681	61.1
247.898	77.48
248.115	138.92
248.332	-8.53
248.549	75.43
248.766	91.82
248.983	-8.53
249.2	-2.39
249.417	54.95
249.633	-26.96
249.85	95.91
250.067	48.81
250.284	-8.53
250.501	75.43
250.717	104.11
250.934	22.19
251.151	36.52
251.368	7.85
251.585	83.63
251.801	52.91
252.018	71.34
252.235	126.63
252.451	36.52
252.668	34.47
252.885	71.34
253.102	75.43
253.318	42.67
253.535	16.04
253.752	36.52
253.968	13.99
254.185	-39.25
254.401	18.09
254.618	73.39
254.835	40.62
255.051	50.86
255.268	38.57
255.484	20.14
255.701	54.95
255.917	59.05
256.134	-14.68
256.351	48.81
256.567	-47.44
256.784	36.52
257	-74.07
257.217	93.87
257.433	30.38
257.65	59.05
257.866	18.09
258.082	-2.39
258.299	-57.68
258.515	83.63
258.732	38.57
258.948	-33.11
259.165	26.28
259.381	38.57
259.597	-14.68
259.814	9.9
260.03	-22.87
260.246	81.58
260.463	63.15
260.679	104.11
260.895	95.91
261.112	44.71
261.328	69.29
261.544	-37.2
261.761	171.69
261.977	-24.92
262.193	26.28
262.409	116.39
262.626	81.58
262.842	67.24
263.058	-20.82
263.274	63.15
263.49	-35.16
263.707	42.67
263.923	77.48
264.139	-69.97
264.355	3.75
264.571	81.58
264.787	5.8
265.004	81.58
265.22	11.95
265.436	-24.92
265.652	71.34
265.868	30.38
266.084	50.86
266.3	93.87
266.516	5.8
266.732	-12.63
266.948	22.19
267.164	89.77
267.38	100.01
267.596	3.75
267.812	153.26
268.028	42.67
268.244	26.28
268.46	44.71
268.676	1.71
268.892	91.82
269.108	-4.44
269.324	-82.26
269.54	-57.68
269.756	36.52
269.972	-4.44
270.188	67.24
270.403	-0.34
270.619	163.5
270.835	-8.53
271.051	11.95
271.267	13.99
271.483	16.04
271.698	79.53
271.914	11.95
272.13	85.67
272.346	18.09
272.562	26.28
272.777	59.05
272.993	-26.96
273.209	104.11
273.425	42.67
273.64	-51.54
273.856	97.96
274.072	-0.34
274.287	-43.35
274.503	126.63
274.719	32.43
274.934	-0.34
275.15	-24.92
275.366	77.48
275.581	24.23
275.797	5.8
276.012	61.1
276.228	18.09
276.444	9.9
276.659	24.23
276.875	38.57
277.09	32.43
277.306	85.67
277.521	91.82
277.737	34.47
277.952	69.29
278.168	91.82
278.383	20.14
278.599	48.81
278.814	36.52
279.03	89.77
279.245	143.02
279.461	-26.96
279.676	87.72
279.892	-69.97
280.107	-33.11
280.322	-29.01
280.538	46.76
280.753	3.75
280.969	26.28
281.184	26.28
281.399	48.81
281.615	-6.49
281.83	24.23
282.045	-35.16
282.26	11.95
282.476	38.57
282.691	61.1
282.906	-0.34
283.122	42.67
283.337	7.85
283.552	59.05
283.767	22.19
283.983	26.28
284.198	-43.35
284.413	138.92
284.628	-47.44
284.843	93.87
285.058	114.34
285.274	1.71
285.489	-29.01
285.704	73.39
285.919	69.29
286.134	1.71
286.349	38.57
286.564	-33.11
286.779	190.12
286.995	-0.34
287.21	-18.77
287.425	57
287.64	40.62
287.855	95.91
288.07	-55.64
288.285	110.25
288.5	65.19
288.715	71.34
288.93	46.76
289.145	-59.73
289.36	87.72
289.575	5.8
289.79	40.62
290.004	61.1
290.219	40.62
290.434	7.85
290.649	36.52
290.864	3.75
291.079	-2.39
291.294	30.38
291.509	-14.68
291.724	40.62
291.938	106.15
292.153	54.95
292.368	22.19
292.583	-4.44
292.798	110.25
293.012	7.85
293.227	-14.68
293.442	-37.2
293.657	65.19
293.871	69.29
294.086	57
294.301	145.06
294.516	32.43
294.73	110.25
294.945	3.75
295.16	26.28
295.374	97.96
295.589	28.33
295.804	-14.68
296.018	-22.87
296.233	128.68
296.447	91.82
296.662	24.23
296.877	93.87
297.091	100.01
297.306	44.71
297.52	24.23
297.735	173.74
297.949	77.48
298.164	67.24
298.378	61.1
298.593	30.38
298.807	11.95
299.022	97.96
299.236	151.21
299.451	54.95
299.665	16.04
299.88	26.28
300.094	40.62
300.309	7.85
300.523	30.38
300.737	97.96
300.952	77.48
301.166	38.57
301.381	7.85
301.595	-12.63
301.809	11.95
302.024	24.23
302.238	59.05
302.452	54.95
302.667	50.86
302.881	102.06
303.095	32.43
303.309	52.91
303.524	34.47
303.738	22.19
303.952	28.33
304.166	7.85
304.381	-47.44
304.595	102.06
304.809	52.91
305.023	108.2
305.237	59.05
305.452	11.95
305.666	85.67
305.88	102.06
306.094	79.53
306.308	65.19
306.522	85.67
306.736	32.43
306.95	67.24
307.164	13.99
307.379	24.23
307.593	73.39
307.807	73.39
308.021	36.52
308.235	85.67
308.449	-45.4
308.663	93.87
308.877	50.86
309.091	59.05
309.305	26.28
309.519	1.71
309.733	87.72
309.947	-37.2
310.161	116.39
310.374	91.82
310.588	102.06
310.802	32.43
311.016	63.15
311.23	81.58
311.444	32.43
311.658	48.81
311.872	28.33
312.085	69.29
312.299	32.43
312.513	149.16
312.727	116.39
312.941	-20.82
313.154	87.72
313.368	48.81
313.582	50.86
313.796	24.23
314.009	-12.63
314.223	83.63
314.437	24.23
314.651	59.05
314.864	-45.4
315.078	75.43
315.292	61.1
315.505	46.76
315.719	44.71
315.933	57
316.146	-33.11
316.36	26.28
316.573	57
316.787	30.38
317.001	130.73
317.214	16.04
317.428	97.96
317.641	-20.82
317.855	34.47
318.068	93.87
318.282	7.85
318.495	83.63
318.709	13.99
318.922	3.75
319.136	77.48
319.349	42.67
319.563	54.95
319.776	106.15
319.99	-16.73
320.203	24.23
320.417	-2.39
320.63	24.23
320.843	151.21
321.057	106.15
321.27	93.87
321.483	95.91
321.697	67.24
321.91	-0.34
322.124	13.99
322.337	91.82
322.55	24.23
322.763	20.14
322.977	-14.68
323.19	-45.4
323.403	48.81
323.617	32.43
323.83	71.34
324.043	20.14
324.256	16.04
324.469	42.67
324.683	102.06
324.896	34.47
325.109	69.29
325.322	1.71
325.535	128.68
325.748	106.15
325.962	11.95
326.175	79.53
326.388	132.78
326.601	67.24
326.814	20.14
327.027	44.71
327.24	83.63
327.453	20.14
327.666	95.91
327.879	143.02
328.092	85.67
328.305	26.28
328.518	44.71
328.731	3.75
328.944	28.33
329.157	22.19
329.37	1.71
329.583	124.58
329.796	77.48
330.009	42.67
330.222	77.48
330.435	61.1
330.648	-12.63
330.861	3.75
331.073	61.1
331.286	97.96
331.499	85.67
331.712	-57.68
331.925	67.24
332.138	77.48
332.35	143.02
332.563	40.62
332.776	36.52
332.989	-43.35
333.202	-33.11
333.414	63.15
333.627	57
333.84	69.29
334.053	110.25
334.265	-2.39
334.478	13.99
334.691	3.75
334.903	63.15
335.116	42.67
335.329	50.86
335.541	28.33
335.754	40.62
335.966	16.04
336.179	65.19
336.392	28.33
336.604	1.71
336.817	122.54
337.029	42.67
337.242	13.99
337.454	87.72
337.667	69.29
337.88	7.85
338.092	40.62
338.305	42.67
338.517	-12.63
338.729	24.23
338.942	54.95
339.154	-33.11
339.367	-29.01
339.579	28.33
339.792	-2.39
340.004	79.53
340.217	63.15
340.429	38.57
340.641	34.47
340.854	-31.06
341.066	22.19
341.278	32.43
341.491	95.91
341.703	34.47
341.915	-16.73
342.128	34.47
342.34	52.91
342.552	22.19
342.764	38.57
342.977	97.96
343.189	34.47
343.401	38.57
343.613	36.52
343.826	71.34
344.038	16.04
344.25	91.82
344.462	18.09
344.674	28.33
344.886	20.14
345.099	5.8
345.311	20.14
345.523	-57.68
345.735	44.71
345.947	77.48
346.159	30.38
346.371	7.85
346.583	-20.82
346.795	114.34
347.007	38.57
347.219	42.67
347.431	7.85
347.643	57
347.855	85.67
348.067	118.44
348.279	-10.58
348.491	9.9
348.703	75.43
348.915	-12.63
349.127	-61.78
349.339	61.1
349.551	-31.06
349.763	24.23
349.975	57
350.187	52.91
350.399	54.95
350.61	106.15
350.822	11.95
351.034	91.82
351.246	-24.92
351.458	46.76
351.669	28.33
351.881	95.91
352.093	-20.82
352.305	114.34
352.517	22.19
352.728	24.23
352.94	44.71
353.152	77.48
353.363	-31.06
353.575	9.9
353.787	81.58
353.999	151.21
354.21	-29.01
354.422	-10.58
354.633	42.67
354.845	50.86
355.057	-14.68
355.268	24.23
355.48	89.77
355.692	-31.06
355.903	-45.4
356.115	-96.6
356.326	-45.4
356.538	57
356.749	18.09
356.961	61.1
357.172	61.1
357.384	13.99
357.595	130.73
357.807	34.47
358.018	-4.44
358.23	-18.77
358.441	114.34
358.653	91.82
358.864	-6.49
359.075	-14.68
359.287	67.24
359.498	155.3
359.709	112.3
359.921	67.24
360.132	7.85
360.344	59.05
360.555	77.48
360.766	26.28
360.977	7.85
361.189	85.67
361.4	112.3
361.611	77.48
361.823	77.48
362.034	-16.73
362.245	11.95
362.456	36.52
362.667	120.49
362.879	-0.34
363.09	38.57
363.301	40.62
363.512	24.23
363.723	5.8
363.935	1.71
364.146	71.34
364.357	16.04
364.568	89.77
364.779	13.99
364.99	112.3
365.201	-72.02
365.412	118.44
365.623	7.85
365.834	97.96
366.045	40.62
366.256	61.1
366.467	116.39
366.678	46.76
366.889	34.47
367.1	-14.68
367.311	48.81
367.522	-39.25
367.733	79.53
367.944	102.06
368.155	24.23
368.366	22.19
368.577	75.43
368.788	59.05
368.999	34.47
369.209	81.58
369.42	149.16
369.631	108.2
369.842	59.05
370.053	-16.73
370.264	50.86
370.474	-0.34
370.685	5.8
370.896	48.81
371.107	54.95
371.317	-16.73
371.528	-14.68
371.739	104.11
371.95	108.2
372.16	40.62
372.371	11.95
372.582	77.48
372.792	40.62
373.003	63.15
373.214	13.99
373.424	91.82
373.635	1.71
373.846	108.2
374.056	114.34
374.267	61.1
374.477	67.24
374.688	100.01
374.898	57
375.109	40.62
375.319	-4.44
375.53	108.2
375.74	9.9
375.951	77.48
376.161	65.19
376.372	48.81
376.582	112.3
376.793	32.43
377.003	42.67
377.214	-35.16
377.424	61.1
377.635	32.43
377.845	5.8
378.055	128.68
378.266	-65.88
378.476	-20.82
378.686	87.72
378.897	67.24
379.107	118.44
379.317	22.19
379.528	18.09
379.738	11.95
379.948	48.81
380.158	38.57
380.369	48.81
380.579	128.68
380.789	-8.53
380.999	67.24
381.21	-18.77
381.42	102.06
381.63	22.19
381.84	40.62
382.05	108.2
382.261	114.34
382.471	-16.73
382.681	32.43
382.891	91.82
383.101	124.58
383.311	36.52
383.521	54.95
383.731	85.67
383.941	38.57
384.151	104.11
384.361	136.87
384.571	34.47
384.781	44.71
384.991	108.2
385.201	134.82
385.411	147.11
385.621	44.71
385.831	65.19
386.041	-10.58
386.251	24.23
386.461	71.34
386.671	100.01
386.881	65.19
387.091	42.67
387.301	124.58
387.511	42.67
387.72	151.21
387.93	87.72
388.14	-47.44
388.35	89.77
388.56	106.15
388.769	79.53
388.979	-20.82
389.189	26.28
389.399	91.82
389.609	-2.39
389.818	93.87
390.028	42.67
390.238	24.23
390.447	-2.39
390.657	50.86
390.867	9.9
391.076	3.75
391.286	1.71
391.496	40.62
391.705	20.14
391.915	106.15
392.125	83.63
392.334	63.15
392.544	28.33
392.753	-0.34
392.963	22.19
393.172	18.09
393.382	93.87
393.591	218.79
393.801	61.1
394.01	73.39
394.22	79.53
394.429	69.29
394.639	48.81
394.848	77.48
395.058	20.14
395.267	118.44
395.477	140.97
395.686	91.82
395.895	69.29
396.105	173.74
396.314	132.78
396.524	38.57
396.733	102.06
396.942	91.82
397.152	26.28
397.361	85.67
397.57	3.75
397.78	5.8
397.989	116.39
398.198	169.64
398.407	34.47
398.617	57
398.826	81.58
399.035	22.19
399.244	124.58
399.453	85.67
399.663	100.01
399.872	106.15
400.081	7.85
400.29	77.48
400.499	104.11
400.708	83.63
400.917	65.19
401.127	-39.25
401.336	52.91
401.545	243.37
401.754	89.77
401.963	149.16
402.172	83.63
402.381	38.57
402.59	81.58
402.799	30.38
403.008	130.73
403.217	163.5
403.426	159.4
403.635	54.95
403.844	79.53
404.053	87.72
404.262	93.87
404.471	208.55
404.68	95.91
404.888	75.43
405.097	24.23
405.306	145.06
405.515	132.78
405.724	145.06
405.933	132.78
406.142	118.44
406.35	214.7
406.559	112.3
406.768	128.68
406.977	132.78
407.185	165.54
407.394	145.06
407.603	83.63
407.812	202.41
408.02	198.31
408.229	163.5
408.438	175.78
408.646	130.73
408.855	188.07
409.064	231.08
409.272	153.26
409.481	136.87
409.69	120.49
409.898	210.6
410.107	186.02
410.315	216.74
410.524	124.58
410.733	310.95
410.941	171.69
411.15	272.04
411.358	276.13
411.567	265.89
411.775	261.8
411.984	220.84
412.192	290.47
412.401	251.56
412.609	333.48
412.818	304.81
413.026	378.53
413.234	274.09
413.443	286.37
413.651	310.95
413.86	290.47
414.068	413.35
414.276	396.96
414.485	356.01
414.693	476.84
414.901	460.45
415.11	413.35
415.318	470.69
415.526	386.72
415.734	450.21
415.943	478.88
416.151	532.13
416.359	544.42
416.567	562.85
416.776	556.71
416.984	560.8
417.192	636.58
417.4	589.47
417.608	556.71
417.817	568.99
418.025	589.47
418.233	655.01
418.441	659.1
418.649	638.62
418.857	728.74
419.065	728.74
419.273	673.44
419.481	767.65
419.689	806.56
419.897	849.57
420.105	849.57
420.313	947.87
420.521	964.25
420.729	1068.7
420.937	1001.12
421.145	994.97
421.353	1091.23
421.561	1111.71
421.769	1167
421.977	1146.52
422.185	1154.71
422.393	1150.62
422.601	1324.69
422.809	1287.83
423.017	1386.13
423.224	1453.72
423.432	1517.2
423.64	1468.05
423.848	1638.03
424.056	1459.86
424.263	1578.64
424.471	1584.79
424.679	1658.51
424.887	1674.9
425.094	1836.69
425.302	1767.06
425.51	1842.83
425.718	1982.09
425.925	1879.69
426.133	1945.23
426.341	2203.27
426.548	2164.36
426.756	2156.17
426.964	2209.42
427.171	2397.83
427.379	2434.69
427.586	2449.03
427.794	2535.04
428.001	2698.88
428.209	2817.66
428.417	2762.37
428.624	3108.48
428.832	2899.58
429.039	2889.34
429.247	2940.54
429.454	3075.71
429.662	3401.33
429.869	3171.96
430.076	3419.77
430.284	3268.22
430.491	3593.84
430.699	3626.61
430.906	3690.1
431.114	3579.51
431.321	3810.93
431.528	3827.31
431.736	3972.72
431.943	4226.67
432.15	4066.92
432.358	4165.23
432.565	4507.24
432.772	4376.17
432.979	4679.27
433.187	4671.08
433.394	4730.47
433.601	5039.71
433.808	4978.27
434.016	5074.53
434.223	5215.84
434.43	5486.17
434.637	5422.68
434.844	5828.18
435.052	5928.53
435.259	6028.88
435.466	5875.28
435.673	5772.88
435.88	6348.36
436.087	6555.21
436.294	6489.67
436.501	6260.3
436.708	6495.82
436.915	6686.28
437.122	6909.51
437.329	7038.53
437.537	7272
437.743	7429.69
437.95	7439.93
438.157	7634.49
438.364	7960.11
438.571	7921.2
438.778	7976.5
438.985	8681
439.192	8498.73
439.399	8695.33
439.606	8310.32
439.813	8803.88
440.02	9365.02
440.227	9287.2
440.433	9362.97
440.64	9416.22
440.847	9473.56
441.054	9559.58
441.261	10450.44
441.467	10083.86
441.674	10493.45
441.881	10774.02
442.088	10737.16
442.294	10794.5
442.501	10987.01
442.708	11034.11
442.914	11562.49
443.121	11947.51
443.328	11908.6
443.534	12629.48
443.741	12088.82
443.948	11918.84
444.154	12791.27
444.361	12944.87
444.568	12719.59
444.774	13004.26
444.981	13063.65
445.187	13420
445.394	13923.8
445.6	13762.01
445.807	15048.13
446.013	14493.13
446.22	14710.22
446.426	15357.38
446.633	15705.53
446.839	16278.96
447.046	15177.16
447.252	16283.06
447.459	16197.04
447.665	16184.76
447.871	16782.76
448.078	17530.27
448.284	16512.43
448.491	17190.31
448.697	17989.02
448.903	18025.88
449.11	18357.65
449.316	17903
449.522	18437.52
449.728	18781.58
449.935	18953.61
450.141	18802.06
450.347	19314.05
450.553	18666.89
450.76	19053.96
450.966	19387.78
451.172	19488.13
451.378	19922.3
451.584	19586.43
451.791	19977.59
451.997	20143.48
452.203	20372.85
452.409	19969.4
452.615	20141.43
452.821	19352.96
453.027	19078.54
453.233	20335.99
453.44	19318.15
453.646	19778.94
453.852	19555.71
454.058	20139.38
454.264	19580.29
454.47	19713.41
454.676	19297.67
454.882	19973.5
455.088	18285.97
455.294	18736.52
455.5	19002.76
455.705	19023.24
455.911	18306.45
456.117	17946.01
456.323	17493.41
456.529	16682.41
456.735	17462.69
456.941	17100.2
457.147	16905.64
457.352	16135.6
457.558	15998.39
457.764	15982.01
457.97	15756.73
458.176	15726.01
458.381	15297.99
458.587	14560.72
458.793	14601.68
458.999	13893.08
459.204	14966.21
459.41	14317.01
459.616	13573.6
459.821	13549.02
460.027	13358.56
460.233	13186.53
460.438	12555.76
460.644	12506.6
460.85	12090.87
461.055	11986.42
461.261	11777.53
461.466	11038.21
461.672	10618.38
461.878	11421.18
462.083	10532.36
462.289	10585.61
462.494	10415.63
462.7	9772.57
462.905	9588.25
463.111	9897.49
463.316	10040.85
463.522	9823.76
463.727	9805.33
463.932	9643.54
464.138	9532.95
464.343	9651.74
464.549	9346.59
464.754	9750.04
464.959	9659.93
465.165	9592.34
465.37	9123.36
465.575	9020.96
465.781	9211.42
465.986	9135.65
466.191	8994.34
466.397	8838.69
466.602	8408.62
466.807	8574.5
467.012	8693.29
467.218	8588.84
467.423	8345.13
467.628	8707.62
467.833	8738.34
468.038	8545.83
468.244	8349.23
468.449	8584.74
468.654	8400.43
468.859	8115.76
469.064	8277.55
469.269	7876.15
469.474	8042.03
469.679	8238.64
469.885	7751.22
470.09	8013.36
470.295	7845.43
470.5	7753.27
470.705	7726.64
470.91	7575.1
471.115	7626.29
471.32	7634.49
471.525	7614.01
471.73	7431.74
471.935	7224.89
472.139	7255.61
472.344	7204.41
472.549	7190.08
472.754	7157.31
472.959	7063.1
473.164	6880.83
473.369	6702.66
473.574	7005.76
473.778	6864.45
473.983	6915.65
474.188	6762.05
474.393	6411.85
474.598	6436.42
474.802	6438.47
475.007	6346.31
475.212	6374.99
475.417	6041.17
475.621	6336.07
475.826	6209.1
476.031	6108.75
476.235	5895.76
476.44	6168.14
476.645	5879.38
476.849	5840.47
477.054	5908.05
477.259	5934.67
477.463	5785.17
477.668	5609.05
477.872	5852.75
478.077	5729.88
478.282	5543.51
478.486	5402.2
478.691	5402.2
478.895	5211.74
479.1	5322.33
479.304	5260.89
479.509	5228.12
479.713	5250.65
479.918	5310.04
480.122	4972.13
480.326	5121.63
480.531	5095
480.735	5228.12
480.94	4970.08
481.144	5217.88
481.348	4935.26
481.553	5066.33
481.757	5023.33
481.961	4994.65
482.166	4920.93
482.37	4875.87
482.574	4796
482.778	4875.87
482.983	5123.68
483.187	5033.57
483.391	4824.67
483.595	4865.63
483.8	4843.1
484.004	4920.93
484.208	4970.08
484.412	4910.69
484.616	5064.29
484.821	4849.25
485.025	4744.8
485.229	4931.17
485.433	4830.82
485.637	4877.92
485.841	4763.23
486.045	4761.19
486.249	4826.72
486.453	4806.24
486.657	4855.39
486.861	4744.8
487.065	4808.29
487.269	5033.57
487.473	4540.01
487.677	4935.26
487.881	4986.46
488.085	4802.15
488.289	4972.13
488.493	4843.1
488.697	4734.56
488.901	4785.76
489.105	4853.34
489.309	4984.41
489.512	4947.55
489.716	5021.28
489.92	4785.76
490.124	4955.74
490.328	4843.1
490.531	4820.58
490.735	4982.37
490.939	4990.56
491.143	4839.01
491.346	4945.5
491.55	5088.86
491.754	5146.2
491.958	5043.81
492.161	5017.18
492.365	5052
492.569	5086.81
492.772	4939.36
492.976	5275.23
493.18	5203.55
493.383	5289.56
493.587	5170.78
493.79	5299.8
493.994	5193.31
494.197	5140.06
494.401	5365.34
494.605	5297.75
494.808	5166.68
495.012	5365.34
495.215	5402.2
495.419	5697.11
495.622	5402.2
495.825	5486.17
496.029	5625.43
496.232	5733.97
496.436	5553.75
496.639	5801.55
496.843	5555.8
497.046	5836.37
497.249	5899.86
497.453	5860.95
497.656	5992.02
497.859	6006.35
498.063	6026.83
498.266	6170.19
498.469	5979.73
498.673	6116.94
498.876	6571.59
499.079	6321.74
499.282	6415.94
499.485	6499.91
499.689	6717
499.892	6645.32
500.095	6721.09
500.298	6786.63
500.501	6862.4
500.705	6946.37
500.908	7016
501.111	6985.28
501.314	7106.11
501.517	7142.97
501.72	7272
501.923	7081.53
502.126	7349.82
502.329	7571
502.532	7706.17
502.735	7521.85
502.938	8017.46
503.141	7777.84
503.344	7851.57
503.547	8042.03
503.75	8054.32
503.953	8158.77
504.156	7951.92
504.359	8220.21
504.562	8187.44
504.765	8404.52
504.968	8660.52
505.17	8621.61
505.373	8521.26
505.576	8855.08
505.779	8879.65
505.982	8943.14
506.185	9113.12
506.387	9197.09
506.59	9170.46
506.793	9588.25
506.996	9438.75
507.198	9651.74
507.401	9518.62
507.604	9745.94
507.807	9829.91
508.009	9786.9
508.212	9950.74
508.415	10038.8
508.617	10173.97
508.82	10327.57
509.022	10307.09
509.225	10358.28
509.428	10472.97
509.63	10499.59
509.833	10673.67
510.035	10913.28
510.238	10898.95
510.44	11013.63
510.643	11111.94
510.845	11314.69
511.048	11156.99
511.25	11345.41
511.453	11230.72
511.655	11914.74
511.858	11683.32
512.06	11798.01
512.262	11904.5
512.465	11900.41
512.667	11949.56
512.87	12099.06
513.072	12310
513.274	12355.05
513.477	12469.74
513.679	12506.6
513.881	12598.76
514.084	12903.91
514.286	12781.03
514.488	12975.59
514.69	13420
514.893	13168.1
515.095	13202.91
515.297	13401.57
515.499	13503.96
515.701	13559.26
515.904	13571.55
516.106	13909.46
516.308	13817.3
516.51	14030.29
516.712	14089.68
516.914	14132.69
517.116	14144.98
517.318	14310.86
517.52	14448.08
517.722	14671.31
517.925	14777.8
518.127	14865.86
518.329	14872.01
518.531	15023.56
518.733	15138.24
518.935	15179.2
519.136	15478.21
519.338	15433.15
519.54	15607.23
519.742	15711.67
519.944	15734.2
520.146	15914.42
520.348	15900.09
520.55	16065.97
520.752	15912.38
520.954	16352.69
521.155	16027.06
521.357	16663.98
521.559	16422.32
521.761	16969.13
521.963	16700.84
522.164	17026.47
522.366	16932.26
522.568	16788.91
522.77	17042.85
522.971	17380.77
523.173	17159.59
523.375	17376.67
523.576	17069.48
523.778	17372.58
523.98	17462.69
524.181	17493.41
524.383	17532.32
524.584	17704.35
524.786	17720.73
524.988	17505.7
525.189	17909.15
525.391	17880.47
525.592	17894.81
525.794	18062.74
525.995	18052.5
526.197	18089.37
526.398	18167.19
526.6	18204.05
526.801	18515.34
527.003	18265.49
527.204	18187.67
527.406	18290.07
527.607	18421.14
527.808	18640.27
528.01	18202
528.211	18458
528.412	19058.06
528.614	18875.79
528.815	18800.01
529.016	18783.63
529.218	18580.88
529.419	18967.95
529.62	18601.36
529.822	18670.99
530.023	18941.32
530.224	18691.47
530.425	18711.95
530.626	18724.24
530.828	18556.3
531.029	18787.72
531.23	19051.91
531.431	18761.1
531.632	18886.03
531.833	18904.46
532.035	18890.12
532.236	18732.43
532.437	19031.43
532.638	18800.01
532.839	19244.42
533.04	19013
533.241	18988.42
533.442	19002.76
533.643	18894.22
533.844	18959.75
534.045	19150.21
534.246	18644.37
534.447	19305.86
534.648	19082.63
534.849	19072.39
535.05	18877.83
535.251	18750.86
535.451	19004.81
535.652	19158.41
535.853	18742.67
536.054	19109.26
536.255	19096.97
536.456	18650.51
536.657	19056.01
536.857	18998.66
537.058	18709.9
537.259	18972.04
537.46	18781.58
537.66	18818.44
537.861	19080.58
538.062	18843.02
538.263	18916.75
538.463	18750.86
538.664	18935.18
538.865	18859.4
539.065	19289.48
539.266	18967.95
539.466	19105.16
539.667	18587.02
539.868	18767.24
540.068	18673.04
540.269	19008.9
540.469	19178.89
540.67	18984.33
540.87	19045.77
541.071	18888.07
541.271	18886.03
541.472	18980.23
541.672	18939.27
541.873	18900.36
542.073	18621.84
542.274	19019.14
542.474	18812.3
542.675	18544.02
542.875	19062.15
543.075	18630.03
543.276	18638.22
543.476	19062.15
543.676	18517.39
543.877	18812.3
544.077	18959.75
544.277	18693.52
544.478	18806.16
544.678	18857.35
544.878	18941.32
545.078	18740.62
545.279	18582.93
545.479	18591.12
545.679	18994.57
545.879	18517.39
546.079	18558.35
546.28	18539.92
546.48	18689.42
546.68	18709.9
546.88	18853.26
547.08	18505.1
547.28	18734.48
547.48	18484.62
547.68	18716.05
547.88	18552.21
548.081	18576.78
548.281	18195.86
548.481	18625.93
548.681	18562.45
548.881	18630.03
549.081	18437.52
549.28	18695.57
549.48	18824.59
549.68	18548.11
549.88	18781.58
550.08	18355.6
550.28	18460.05
550.48	18634.13
550.68	18591.12
550.88	18445.71
551.08	18503.06
551.279	18531.73
551.479	18484.62
551.679	18734.48
551.879	18531.73
552.079	18574.74
552.278	18580.88
552.478	18574.74
552.678	18455.95
552.878	18619.79
553.077	18173.33
553.277	18384.27
553.477	18263.44
553.676	18404.75
553.876	18083.22
554.076	18484.62
554.275	18292.12
554.475	18193.81
554.674	18156.95
554.874	18240.92
555.074	18476.43
555.273	18257.3
555.473	18709.9
555.672	18044.31
555.872	18412.95
556.071	18269.59
556.271	18285.97
556.47	18312.6
556.67	18075.03
556.869	18183.57
557.068	18056.6
557.268	18369.94
557.467	18247.06
557.667	18177.43
557.866	18322.84
558.065	18281.88
558.265	18093.46
558.464	18013.59
558.663	18224.53
558.863	17763.74
559.062	18521.49
559.261	18103.7
559.461	18269.59
559.66	18115.99
559.859	18132.37
560.058	17966.49
560.258	18126.23
560.457	18187.67
560.656	18183.57
560.855	17950.1
561.054	18185.62
561.253	18007.45
561.453	18210.2
561.652	18175.38
561.851	18242.96
562.05	17970.58
562.249	17915.29
562.448	18189.72
562.647	18130.33
562.846	18154.9
563.045	17837.47
563.244	17989.02
563.443	18115.99
563.642	17788.32
563.841	18060.7
564.04	17532.32
564.239	17974.68
564.438	17841.56
564.637	17898.91
564.836	17722.78
565.035	17810.84
565.234	17847.71
565.432	17667.49
565.631	17720.73
565.83	17876.38
566.029	17778.08
566.228	17814.94
566.427	18023.83
566.625	17370.53
566.824	17446.3
567.023	17917.34
567.222	17253.8
567.42	17601.95
567.619	17612.19
567.818	17517.98
568.016	17683.87
568.215	17526.18
568.414	17452.45
568.612	17900.95
568.811	17266.08
569.01	17452.45
569.208	17479.07
569.407	17784.22
569.605	17483.17
569.804	17610.14
570.002	17485.22
570.201	17341.86
570.4	17137.06
570.598	17339.81
570.797	17085.86
570.995	17290.66
571.193	17178.02
571.392	17175.97
571.59	17180.07
571.789	17153.44
571.987	17051.05
572.186	17395.11
572.384	16956.84
572.582	17264.04
572.781	16985.51
572.979	16975.27
573.177	17063.33
573.376	17094.05
573.574	16981.42
573.772	16915.88
573.971	16809.39
574.169	16770.47
574.367	17092.01
574.565	16741.8
574.763	16969.13
574.962	16793
575.16	16760.23
575.358	16680.36
575.556	16719.28
575.754	16807.34
575.952	16543.15
576.151	17046.95
576.349	16635.31
576.547	16489.9
576.745	16610.73
576.943	16522.67
577.141	16514.48
577.339	16487.86
577.537	16500.14
577.735	16729.52
577.933	16283.06
578.131	16422.32
578.329	16375.22
578.527	16348.59
578.725	16250.29
578.923	16225.72
579.121	16199.09
579.319	16170.42
579.516	16248.24
579.714	16225.72
579.912	15955.38
580.11	15910.33
580.308	16182.71
580.506	16002.49
580.704	15742.39
580.901	16065.97
581.099	16147.89
581.297	15953.34
581.495	15928.76
581.692	15979.96
581.89	15902.14
582.088	16188.85
582.285	15809.98
582.483	15814.07
582.681	16027.06
582.878	15697.34
583.076	15658.43
583.274	15844.79
583.471	15404.48
583.669	15336.9
583.866	15257.03
584.064	15547.84
584.262	15203.78
584.459	15594.94
584.657	15633.85
584.854	15715.77
585.052	15406.53
585.249	15379.9
585.447	15482.3
585.644	15138.24
585.841	15351.23
586.039	15429.06
586.236	15066.56
586.434	15441.34
586.631	15099.33
586.828	15449.53
587.026	15336.9
587.223	15015.37
587.42	15025.61
587.618	14814.66
587.815	15052.23
588.012	15089.09
588.21	14921.16
588.407	14880.2
588.604	14935.49
588.801	14499.28
588.999	14788.04
589.196	14587.34
589.393	14769.61
589.59	14687.69
589.787	14736.84
589.984	14515.66
590.182	14749.13
590.379	14826.95
590.576	14714.31
590.773	14441.93
590.97	14472.65
591.167	14464.46
591.364	14427.6
591.561	14650.83
591.758	14165.46
591.955	14206.42
592.152	14261.71
592.349	14171.6
592.546	14271.95
592.743	14374.35
592.94	14112.21
593.137	14020.05
593.334	14265.81
593.531	13987.29
593.727	14112.21
593.924	14108.12
594.121	14003.67
594.318	13774.3
594.515	13833.69
594.712	14190.03
594.908	13743.58
595.105	13688.28
595.302	13544.92
595.499	13778.39
595.696	13630.94
595.892	13614.55
596.089	13772.25
596.286	13848.02
596.482	13931.99
596.679	13532.64
596.876	13675.99
597.072	13747.67
597.269	13465.05
597.466	13434.33
597.662	13309.41
597.859	13557.21
598.055	13303.26
598.252	13149.67
598.448	13145.57
598.645	13559.26
598.841	13207.01
599.038	13303.26
599.234	13266.4
599.431	13182.43
599.627	13297.12
599.824	13333.98
600.02	12926.44
600.217	13143.52
600.413	13262.3
600.609	12969.44
600.806	13258.21
601.002	12973.54
601.198	12889.57
601.395	12781.03
601.591	12815.85
601.787	13000.16
601.984	13000.16
602.18	12916.2
602.376	12889.57
602.572	12946.92
602.769	12840.42
602.965	12815.85
603.161	12652.01
603.357	12647.91
603.553	12817.9
603.75	12819.94
603.946	12613.1
604.142	12754.41
604.338	12451.31
604.534	12477.93
604.73	12246.51
604.926	12459.5
605.122	12400.11
605.318	12295.66
605.514	12514.8
605.71	12291.57
605.906	12277.23
606.102	12193.26
606.298	12068.34
606.494	12303.85
606.69	12287.47
606.886	12312.05
607.082	12215.79
607.278	12049.91
607.474	12011
607.67	12013.04
607.866	11916.79
608.062	12152.31
608.257	12054
608.453	11853.3
608.649	11900.41
608.845	11922.93
609.041	11988.47
609.236	12168.69
609.432	12174.83
609.628	11931.12
609.824	11875.83
610.019	11812.34
610.215	11693.56
610.411	11980.28
610.606	11724.28
610.802	11808.25
610.998	11724.28
611.193	11982.32
611.389	11722.23
611.584	11640.31
611.78	11685.37
611.976	11793.91
612.171	11666.94
612.367	11881.97
612.562	12051.95
612.758	11406.84
612.953	11591.16
613.149	11752.95
613.344	11777.53
613.539	11736.57
613.735	11722.23
613.93	11806.2
614.126	11492.86
614.321	11924.98
614.517	11412.99
614.712	11382.27
614.907	11462.14
615.103	11464.19
615.298	11505.15
615.493	11453.95
615.688	11310.59
615.884	11580.92
616.079	11357.69
616.274	11468.28
616.47	11333.12
616.665	11279.87
616.86	11335.17
617.055	11322.88
617.25	11355.65
617.445	11183.62
617.641	11144.7
617.836	11341.31
618.031	11228.67
618.226	11322.88
618.421	11161.09
618.616	11294.21
618.811	10972.68
619.006	11150.85
619.201	11038.21
619.396	11044.35
619.591	10874.37
619.786	11019.78
619.981	10855.94
620.176	10952.2
620.371	10786.31
620.566	10786.31
620.761	10792.45
620.956	10812.93
621.151	10651.14
621.346	10618.38
621.541	10581.51
621.735	10776.07
621.93	10339.85
622.125	10429.96
622.32	10391.05
622.515	10069.52
622.709	10348.04
622.904	10464.78
623.099	10272.27
623.294	10212.88
623.488	10327.57
623.683	10079.76
623.878	10161.68
624.072	10417.68
624.267	10020.37
624.462	9819.67
624.656	9897.49
624.851	10020.37
625.046	9799.19
625.24	9911.83
625.435	9702.93
625.629	9569.82
625.824	9743.89
626.018	9776.66
626.213	9432.6
626.407	9586.2
626.602	9401.88
626.796	9442.84
626.991	9365.02
627.185	9303.58
627.38	9274.91
627.574	9375.26
627.768	9033.25
627.963	9309.72
628.157	9164.32
628.352	9088.54
628.546	9102.88
628.74	9031.2
628.935	8877.6
629.129	8965.67
629.323	8740.39
629.517	8881.7
629.712	8746.53
629.906	8840.74
630.1	8642.09
630.294	8863.27
630.489	8681
630.683	8721.96
630.877	8398.38
631.071	8568.36
631.265	8445.48
631.459	8416.81
631.653	8418.86
631.848	8269.36
632.042	8166.96
632.236	8220.21
632.43	8236.59
632.624	8136.24
632.818	8013.36
633.012	8056.37
633.206	7992.88
633.4	8234.54
633.594	8132.14
633.788	7992.88
633.982	7964.21
634.176	7740.98
634.369	7763.51
634.563	7833.14
634.757	7542.33
634.951	7855.67
635.145	7571
635.339	7652.92
635.533	7601.72
635.726	7491.13
635.92	7546.42
636.114	7554.62
636.308	7448.12
636.501	7300.67
636.695	7382.59
636.889	7394.87
637.083	7222.84
637.276	7364.15
637.47	7198.27
637.664	7222.84
637.857	7245.37
638.051	7300.67
638.244	7087.68
638.438	7116.35
638.632	6940.22
638.825	7108.16
639.019	6813.25
639.212	6868.55
639.406	7095.87
639.599	6893.12
639.793	6956.61
639.986	6608.45
640.18	6671.94
640.373	6477.38
640.567	6657.61
640.76	6729.28
640.954	6608.45
641.147	6434.38
641.34	6508.1
641.534	6514.25
641.727	6424.14
641.92	6440.52
642.114	6411.85
642.307	6155.85
642.5	6426.18
642.694	6104.65
642.887	6311.5
643.08	6284.87
643.273	6274.63
643.467	5961.3
643.66	6131.28
643.853	6000.21
644.046	6039.12
644.239	5979.73
644.432	5910.1
644.626	5920.34
644.819	5854.8
645.012	5803.6
645.205	5953.1
645.398	5779.03
645.591	5754.45
645.784	5674.58
645.977	5518.93
646.17	5709.4
646.363	5676.63
646.556	5580.37
646.749	5559.89
646.942	5512.79
647.135	5414.49
647.328	5525.08
647.521	5441.11
647.714	5244.51
647.907	5293.66
648.099	5291.61
648.292	5402.2
648.485	5367.38
648.678	5328.47
648.871	5238.36
649.064	5365.34
649.256	5178.97
649.449	5088.86
649.642	5199.45
649.835	5064.29
650.027	5187.16
650.22	5226.07
650.413	4896.35
650.605	5078.62
650.798	4982.37
650.991	4980.32
651.183	5066.33
651.376	4902.5
651.568	4845.15
651.761	4777.57
651.954	4865.63
652.146	4736.61
652.339	5023.33
652.531	4863.58
652.724	4769.38
652.916	4476.52
653.109	4636.26
653.301	4701.79
653.494	4634.21
653.686	4462.18
653.879	4632.16
654.071	4492.9
654.263	4484.71
654.456	4550.25
654.648	4552.29
654.84	4425.32
655.033	4456.04
655.225	4503.14
655.417	4513.38
655.61	4398.7
655.802	4523.62
655.994	4486.76
656.186	4288.11
656.379	4281.96
656.571	4341.35
656.763	4220.52
656.955	4200.04
657.148	4259.43
657.34	4220.52
657.532	4171.37
657.724	4257.39
657.916	4066.92
658.108	4093.55
658.3	4003.44
658.492	4165.23
658.684	3931.76
658.876	3950.19
659.068	3909.23
659.26	3796.59
659.452	3786.35
659.644	3919.47
659.836	3985.01
660.028	3737.2
660.22	3790.45
660.412	3708.53
660.604	3737.2
660.796	3921.52
660.988	3837.55
661.18	3806.83
661.372	3759.73
661.563	3786.35
661.755	3851.89
661.947	3667.57
662.139	3567.22
662.331	3612.28
662.522	3556.98
662.714	3552.88
662.906	3593.84
663.097	3567.22
663.289	3530.36
663.481	3524.21
663.673	3630.71
663.864	3452.53
664.056	3462.77
664.247	3382.9
664.439	3393.14
664.631	3509.88
664.822	3223.16
665.014	3354.23
665.205	3524.21
665.397	3346.04
665.588	3417.72
665.78	3333.75
665.971	3169.91
666.163	3448.44
666.354	3417.72
666.546	3292.79
666.737	3239.55
666.929	3171.96
667.12	3319.42
667.311	3235.45
667.503	3133.05
667.694	3202.68
667.885	3088
668.077	3249.79
668.268	3157.63
668.459	3102.33
668.651	3161.72
668.842	3112.57
669.033	3073.66
669.224	3065.47
669.416	3214.97
669.607	2995.84
669.798	3063.42
669.989	3004.03
670.18	2930.3
670.371	3026.56
670.563	2887.29
670.754	3088
670.945	2956.93
671.136	3083.9
671.327	2862.72
671.518	3047.04
671.709	2999.93
671.9	2969.21
672.091	2895.49
672.282	2936.45
672.473	2924.16
672.664	2791.04
672.855	2834.05
673.046	2926.21
673.237	2895.49
673.428	2938.49
673.619	2862.72
673.809	2834.05
674	2907.77
674.191	2834.05
674.382	2780.8
674.573	2815.62
674.764	2754.18
674.954	2897.53
675.145	2616.96
675.336	2832
675.527	2860.67
675.717	2827.9
675.908	2655.87
676.099	2737.79
676.289	2702.98
676.48	2823.81
676.671	2737.79
676.861	2637.44
677.052	2811.52
677.243	2606.72
677.433	2623.11
677.624	2719.36
677.814	2604.67
678.005	2662.02
678.195	2688.64
678.386	2778.75
678.576	2676.35
678.767	2614.91
678.957	2580.1
679.148	2678.4
679.338	2610.82
679.529	2672.26
679.719	2786.94
679.909	2627.2
680.1	2623.11
680.29	2717.31
680.481	2672.26
680.671	2641.54
680.861	2633.35
681.052	2619.01
681.242	2502.28
681.432	2672.26
681.622	2553.48
681.813	2578.05
682.003	2596.48
682.193	2492.04
682.383	2602.63
682.573	2715.27
682.764	2596.48
682.954	2547.33
683.144	2635.39
683.334	2438.79
683.524	2563.72
683.714	2619.01
683.904	2569.86
684.094	2567.81
684.284	2590.34
684.474	2686.59
684.664	2457.22
684.854	2555.52
685.044	2459.27
685.234	2496.13
685.424	2530.95
685.614	2354.82
685.804	2573.96
685.994	2502.28
686.184	2510.47
686.374	2625.15
686.564	2442.89
686.753	2512.52
686.943	2397.83
687.133	2416.26
687.323	2358.92
687.513	2463.37
687.702	2446.98
687.892	2408.07
688.082	2397.83
688.272	2426.5
688.461	2424.45
688.651	2412.17
688.841	2418.31
689.03	2446.98
689.22	2287.24
689.41	2309.77
689.599	2481.8
689.789	2399.88
689.979	2305.67
690.168	2336.39
690.358	2295.43
690.547	2274.95
690.737	2371.21
690.926	2287.24
691.116	2279.05
691.305	2299.53
691.495	2328.2
691.684	2219.66
691.874	2240.14
692.063	2277
692.252	2246.28
692.442	2317.96
692.631	2111.11
692.82	2295.43
693.01	2311.82
693.199	2334.34
693.388	2285.19
693.578	2272.9
693.767	2422.41
693.956	2401.93
694.146	2197.13
694.335	2266.76
694.524	2293.38
694.713	2262.66
694.902	2309.77
695.092	2287.24
695.281	2231.94
695.47	2229.9
695.659	2160.27
695.848	2209.42
696.037	2215.56
696.226	2201.23
696.415	2268.81
696.604	2285.19
696.793	2283.14
696.982	2223.75
697.171	2289.29
697.36	2305.67
697.549	2252.42
697.738	2121.35
697.927	2272.9
698.116	2252.42
698.305	2346.63
698.494	2330.25
698.683	2184.84
698.872	2391.69
699.061	2256.52
699.25	2346.63
699.438	2408.07
699.627	2363.01
699.816	2410.12
700.005	2313.86
700.193	2385.54
700.382	2383.49
700.571	2330.25
700.76	2428.55
700.948	2401.93
701.137	2373.25
701.326	2365.06
701.514	2326.15
701.703	2363.01
701.892	2291.34
702.08	2537.09
702.269	2297.48
702.457	2330.25
702.646	2467.46
702.834	2369.16
703.023	2469.51
703.212	2434.69
703.4	2352.77
703.589	2303.62
703.777	2451.08
703.965	2352.77
704.154	2451.08
704.342	2436.74
704.531	2526.85
704.719	2473.6
704.907	2561.67
705.096	2336.39
705.284	2483.84
705.472	2385.54
705.661	2322.06
705.849	2424.45
706.037	2365.06
706.226	2502.28
706.414	2492.04
706.602	2475.65
706.79	2465.41
706.979	2518.66
707.167	2518.66
707.355	2498.18
707.543	2573.96
707.731	2518.66
707.919	2426.5
708.107	2363.01
708.296	2401.93
708.484	2504.32
708.672	2479.75
708.86	2514.56
709.048	2602.63
709.236	2455.17
709.424	2616.96
709.612	2549.38
709.8	2492.04
709.988	2461.32
710.176	2485.89
710.364	2641.54
710.551	2502.28
710.739	2530.95
710.927	2541.19
711.115	2504.32
711.303	2576
711.491	2645.63
711.679	2512.52
711.866	2637.44
712.054	2584.2
712.242	2526.85
712.43	2733.7
712.617	2526.85
712.805	2616.96
712.993	2621.06
713.181	2545.28
713.368	2440.84
713.556	2514.56
713.744	2459.27
713.931	2731.65
714.119	2653.83
714.306	2533
714.494	2594.44
714.682	2596.48
714.869	2492.04
715.057	2551.43
715.244	2498.18
715.432	2748.03
715.619	2670.21
715.807	2567.81
715.994	2543.24
716.182	2594.44
716.369	2586.24
716.556	2500.23
716.744	2461.32
716.931	2645.63
717.119	2578.05
717.306	2592.39
717.493	2633.35
717.681	2610.82
717.868	2477.7
718.055	2512.52
718.242	2567.81
718.43	2670.21
718.617	2752.13
718.804	2584.2
718.991	2670.21
719.179	2672.26
719.366	2578.05
719.553	2625.15
719.74	2588.29
719.927	2625.15
720.114	2506.37
720.301	2586.24
720.488	2467.46
720.676	2672.26
720.863	2707.07
721.05	2551.43
721.237	2510.47
721.424	2547.33
721.611	2606.72
721.798	2590.34
721.985	2494.08
722.172	2606.72
722.358	2619.01
722.545	2719.36
722.732	2629.25
722.919	2657.92
723.106	2612.87
723.293	2616.96
723.48	2586.24
723.667	2606.72
723.853	2547.33
724.04	2623.11
724.227	2576
724.414	2670.21
724.6	2690.69
724.787	2668.16
724.974	2647.68
725.161	2485.89
725.347	2494.08
725.534	2561.67
725.72	2602.63
725.907	2623.11
726.094	2623.11
726.28	2588.29
726.467	2514.56
726.653	2600.58
726.84	2616.96
727.027	2664.07
727.213	2543.24
727.4	2481.8
727.586	2571.91
727.773	2573.96
727.959	2524.8
728.145	2582.15
728.332	2569.86
728.518	2514.56
728.705	2606.72
728.891	2530.95
729.077	2553.48
729.264	2492.04
729.45	2569.86
729.636	2653.83
729.823	2500.23
730.009	2645.63
730.195	2430.6
730.382	2586.24
730.568	2565.76
730.754	2426.5
730.94	2522.76
731.126	2573.96
731.313	2555.52
731.499	2596.48
731.685	2479.75
731.871	2619.01
732.057	2506.37
732.243	2559.62
732.429	2408.07
732.615	2637.44
732.801	2557.57
732.987	2512.52
733.173	2539.14
733.359	2461.32
733.545	2541.19
733.731	2539.14
733.917	2596.48
734.103	2494.08
734.289	2492.04
734.475	2434.69
734.661	2475.65
734.847	2551.43
735.033	2438.79
735.219	2571.91
735.404	2410.12
735.59	2365.06
735.776	2475.65
735.962	2408.07
736.148	2459.27
736.333	2475.65
736.519	2473.6
736.705	2406.02
736.89	2412.17
737.076	2326.15
737.262	2322.06
737.447	2346.63
737.633	2299.53
737.819	2440.84
738.004	2465.41
738.19	2453.13
738.375	2336.39
738.561	2346.63
738.747	2262.66
738.932	2277
739.118	2451.08
739.303	2303.62
739.489	2332.3
739.674	2299.53
739.859	2287.24
740.045	2221.7
740.23	2252.42
740.416	2197.13
740.601	2207.37
740.786	2242.18
740.972	2295.43
741.157	2367.11
741.342	2154.12
741.528	2186.89
741.713	2186.89
741.898	2244.23
742.084	2178.7
742.269	2244.23
742.454	2205.32
742.639	2307.72
742.824	2086.54
743.01	2150.03
743.195	2131.59
743.38	2070.16
743.565	2166.41
743.75	2162.31
743.935	2172.55
744.12	2104.97
744.305	2051.72
744.49	2166.41
744.675	2059.92
744.86	2086.54
745.045	2109.07
745.23	2100.87
745.415	2066.06
745.6	2053.77
745.785	1980.04
745.97	2070.16
746.155	2018.96
746.34	1998.48
746.525	1978
746.71	1988.24
746.895	1881.74
747.079	1918.61
747.264	1881.74
747.449	1891.98
747.634	1885.84
747.819	1965.71
748.003	1934.99
748.188	1777.3
748.373	1871.5
748.557	1840.78
748.742	1869.45
748.927	1826.45
749.111	1724.05
749.296	1767.06
749.481	1801.87
749.665	1719.95
749.85	1717.9
750.034	1830.54
750.219	1793.68
750.404	1703.57
750.588	1750.67
750.773	1668.75
750.957	1752.72
751.141	1668.75
751.326	1693.33
751.51	1605.27
751.695	1672.85
751.879	1683.09
752.064	1732.24
752.248	1531.54
752.432	1650.32
752.617	1670.8
752.801	1607.31
752.985	1595.03
753.17	1517.2
753.354	1623.7
753.538	1586.83
753.722	1527.44
753.907	1541.78
754.091	1545.88
754.275	1588.88
754.459	1445.52
754.643	1416.85
754.828	1492.63
755.012	1455.76
755.196	1441.43
755.38	1363.61
755.564	1470.1
755.748	1334.93
755.932	1535.64
756.116	1476.24
756.3	1349.27
756.484	1404.57
756.668	1396.37
756.852	1332.89
757.036	1328.79
757.22	1353.37
757.404	1330.84
757.588	1283.74
757.772	1400.47
757.956	1296.02
758.14	1382.04
758.323	1230.49
758.507	1334.93
758.691	1210.01
758.875	1275.54
759.059	1359.51
759.242	1273.5
759.426	1429.14
759.61	1156.76
759.794	1148.57
759.977	1253.02
760.161	1336.98
760.345	1222.3
760.528	1230.49
760.712	1152.67
760.895	1228.44
761.079	1152.67
761.263	1140.38
761.446	1183.38
761.63	1218.2
761.813	1130.14
761.997	1128.09
762.18	1128.09
762.364	1150.62
762.547	978.59
762.731	1066.65
762.914	1099.42
763.098	1132.19
763.281	1126.04
763.464	1003.16
763.648	1095.32
763.831	1031.83
764.015	1078.94
764.198	1080.99
764.381	1093.27
764.564	1140.38
764.748	1050.27
764.931	1107.61
765.114	947.87
765.297	1040.03
765.481	1107.61
765.664	970.4
765.847	958.11
766.03	1121.95
766.213	964.25
766.397	1033.88
766.58	1009.31
766.763	1095.32
766.946	1035.93
767.129	1046.17
767.312	960.16
767.495	1027.74
767.678	994.97
767.861	1062.55
768.044	999.07
768.227	908.96
768.41	951.96
768.593	1019.55
768.776	1001.12
768.959	951.96
769.142	990.88
769.324	954.01
769.507	937.63
769.69	951.96
769.873	982.68
770.056	994.97
770.239	972.44
770.421	974.49
770.604	956.06
770.787	1001.12
770.97	1021.6
771.152	917.15
771.335	911
771.518	886.43
771.7	919.2
771.883	915.1
772.066	935.58
772.248	990.88
772.431	898.72
772.613	943.77
772.796	810.65
772.978	851.61
773.161	898.72
773.343	888.48
773.526	906.91
773.708	814.75
773.891	839.33
774.073	843.42
774.256	896.67
774.438	894.62
774.621	755.36
774.803	880.29
774.985	788.13
775.168	820.89
775.35	781.98
775.532	835.23
775.715	755.36
775.897	775.84
776.079	755.36
776.261	718.5
776.444	812.7
776.626	792.22
776.808	728.74
776.99	726.69
777.173	724.64
777.355	759.46
777.537	769.69
777.719	788.13
777.901	726.69
778.083	710.3
778.265	691.87
778.447	722.59
778.629	612
778.811	626.34
778.993	716.45
779.175	677.54
779.357	763.55
779.539	575.14
779.721	714.4
779.903	620.19
780.085	665.25
780.267	712.35
780.449	716.45
780.631	722.59
780.812	648.86
780.994	640.67
781.176	659.1
781.358	652.96
781.54	571.04
781.721	595.62
781.903	691.87
782.085	556.71
782.267	628.39
782.448	581.28
782.63	573.09
782.812	679.58
782.993	628.39
783.175	583.33
783.357	550.56
783.538	657.06
783.72	521.89
783.901	558.75
784.083	523.94
784.264	562.85
784.446	562.85
784.627	411.3
784.809	538.27
784.99	470.69
785.172	571.04
785.353	499.36
785.535	454.31
785.716	476.84
785.897	458.4
786.079	485.03
786.26	546.47
786.441	554.66
786.623	487.08
786.804	493.22
786.985	442.02
787.167	548.51
787.348	546.47
787.529	499.36
787.71	501.41
787.891	446.12
788.073	472.74
788.254	386.72
788.435	511.65
788.616	474.79
788.797	380.58
788.978	487.08
789.159	358.05
789.34	466.6
789.522	421.54
789.703	435.88
789.884	401.06
790.065	427.68
790.246	485.03
790.427	452.26
790.607	423.59
790.788	493.22
790.969	386.72
791.15	482.98
791.331	403.11
791.512	351.91
791.693	296.61
791.874	370.34
792.054	450.21
792.235	405.16
792.416	327.33
792.597	319.14
792.778	462.5
792.958	306.85
793.139	390.82
793.32	409.25
793.5	321.19
793.681	452.26
793.862	376.48
794.042	372.39
794.223	333.48
794.404	370.34
794.584	310.95
794.765	288.42
794.945	329.38
795.126	444.07
795.306	362.15
795.487	296.61
795.667	286.37
795.848	319.14
796.028	386.72
796.209	329.38
796.389	433.83
796.57	364.2
796.75	302.76
796.93	319.14
797.111	208.55
797.291	300.71
797.471	370.34
797.652	269.99
797.832	294.57
798.012	333.48
798.192	263.85
798.373	290.47
798.553	337.57
798.733	288.42
798.913	319.14
799.093	286.37
799.274	237.22
799.454	282.28
799.634	329.38
799.814	356.01
799.994	280.23
800.174	333.48
800.354	237.22
800.534	245.41
800.714	296.61
800.894	241.32
801.074	259.75
801.254	282.28
801.434	255.65
801.614	251.56
801.794	186.02
801.974	1171.1
802.154	280.23
802.334	337.57
802.514	175.78
802.693	272.04
802.873	208.55
803.053	372.39
803.233	186.02
803.413	241.32
803.592	233.13
803.772	214.7
803.952	208.55
804.131	249.51
804.311	280.23
804.491	247.46
804.67	229.03
804.85	216.74
805.03	249.51
805.209	206.5
805.389	212.65
805.568	208.55
805.748	200.36
805.928	229.03
806.107	233.13
806.287	237.22
806.466	300.71
806.646	239.27
806.825	224.94
807.004	183.98
807.184	247.46
807.363	239.27
807.543	155.3
807.722	112.3
807.901	233.13
808.081	220.84
808.26	102.06
808.439	171.69
808.619	249.51
808.798	165.54
808.977	165.54
809.156	196.26
809.336	247.46
809.515	247.46
809.694	143.02
809.873	91.82
810.052	188.07
810.231	222.89
810.411	229.03
810.59	290.47
810.769	167.59
810.948	214.7
811.127	32.43
811.306	237.22
811.485	149.16
811.664	267.94
811.843	249.51
812.022	171.69
812.201	124.58
812.38	110.25
812.559	91.82
812.737	206.5
812.916	120.49
813.095	192.17
813.274	136.87
813.453	241.32
813.632	165.54
813.811	169.64
813.989	149.16
814.168	267.94
814.347	173.74
814.526	188.07
814.704	243.37
814.883	181.93
815.062	155.3
815.24	200.36
815.419	73.39
815.598	231.08
815.776	71.34
815.955	136.87
816.133	132.78
816.312	147.11
816.49	110.25
816.669	124.58
816.847	147.11
817.026	214.7
817.204	138.92
817.383	114.34
817.561	73.39
817.74	108.2
817.918	202.41
818.097	153.26
818.275	122.54
818.453	194.22
818.632	155.3
818.81	79.53
818.988	85.67
819.167	116.39
819.345	171.69
819.523	67.24
819.701	106.15
819.879	114.34
820.058	130.73
820.236	169.64
820.414	124.58
820.592	122.54
820.77	71.34
820.948	167.59
821.127	102.06
821.305	93.87
821.483	65.19
821.661	183.98
821.839	63.15
822.017	130.73
822.195	63.15
822.373	112.3
822.551	85.67
822.729	120.49
822.907	104.11
823.085	97.96
823.262	104.11
823.44	40.62
823.618	91.82
823.796	165.54
823.974	132.78
824.152	63.15
824.329	124.58
824.507	81.58
824.685	132.78
824.863	130.73
825.04	130.73
825.218	140.97
825.396	143.02
825.574	153.26
825.751	85.67
825.929	100.01
826.107	112.3
826.284	136.87
826.462	179.88
826.639	42.67
826.817	46.76
826.994	73.39
827.172	65.19
827.349	159.4
827.527	81.58
827.704	73.39
827.882	155.3
828.059	102.06
828.237	145.06
828.414	52.91
828.591	54.95
828.769	124.58
828.946	71.34
829.124	153.26
829.301	186.02
829.478	132.78
829.655	157.35
829.833	147.11
830.01	79.53
830.187	89.77
830.364	124.58
830.542	97.96
830.719	161.45
830.896	91.82
831.073	67.24
831.25	198.31
831.427	126.63
831.604	93.87
831.782	59.05
831.959	147.11
832.136	57
832.313	91.82
832.49	42.67
832.667	145.06
832.844	40.62
833.021	151.21
833.198	83.63
833.374	79.53
833.551	87.72
833.728	69.29
833.905	106.15
834.082	83.63
834.259	95.91
834.436	79.53
834.612	22.19
834.789	157.35
834.966	93.87
835.143	116.39
835.319	95.91
835.496	69.29
835.673	159.4
835.85	16.04
836.026	91.82
836.203	147.11
836.38	13.99
836.556	16.04
836.733	-29.01
836.909	159.4
837.086	42.67
837.262	50.86
837.439	63.15
837.616	91.82
837.792	100.01
837.968	57
838.145	69.29
838.321	65.19
838.498	126.63
838.674	110.25
838.851	81.58
839.027	57
839.203	145.06
839.38	106.15
839.556	118.44
839.732	114.34
839.909	52.91
840.085	104.11
840.261	26.28
840.437	52.91
840.614	108.2
840.79	157.35
840.966	108.2
841.142	85.67
841.318	-6.49
841.494	71.34
841.671	128.68
841.847	30.38
842.023	44.71
842.199	34.47
842.375	157.35
842.551	24.23
842.727	-2.39
842.903	77.48
843.079	36.52
843.255	91.82
843.431	116.39
843.607	132.78
843.783	-39.25
843.959	46.76
844.134	13.99
844.31	100.01
844.486	52.91
844.662	61.1
844.838	36.52
845.013	40.62
845.189	85.67
845.365	16.04
845.541	-16.73
845.716	77.48
845.892	165.54
846.068	38.57
846.244	-35.16
846.419	114.34
846.595	-37.2
846.77	18.09
846.946	44.71
847.122	40.62
847.297	65.19
847.473	95.91
847.648	5.8
847.824	120.49
847.999	63.15
848.175	85.67
848.35	128.68
848.526	110.25
848.701	59.05
848.876	71.34
849.052	-0.34
849.227	71.34
849.403	1.71
849.578	-31.06
849.753	46.76
849.929	69.29
850.104	48.81
850.279	9.9
850.454	18.09
850.63	22.19
850.805	46.76
850.98	48.81
851.155	3.75
851.33	26.28
851.505	-72.02
851.681	75.43
851.856	-14.68
852.031	54.95
852.206	89.77
852.381	38.57
852.556	83.63
852.731	48.81
852.906	93.87
853.081	28.33
853.256	122.54
853.431	48.81
853.606	-49.49
853.781	-47.44
853.956	-20.82
854.131	61.1
854.305	16.04
854.48	75.43
854.655	5.8
854.83	7.85
855.005	9.9
855.18	69.29
855.354	-0.34
855.529	26.28
855.704	-31.06
855.879	93.87
856.053	-20.82
856.228	26.28
856.403	108.2
856.577	11.95
856.752	-8.53
856.926	48.81
857.101	46.76
857.276	-49.49
857.45	75.43
857.625	46.76
857.799	63.15
857.974	-4.44
858.148	-47.44
858.323	79.53
858.497	28.33
858.672	48.81
858.846	16.04
859.02	108.2
859.195	-43.35
859.369	63.15
859.543	38.57
859.718	50.86
859.892	-4.44
860.066	46.76
860.241	-84.31
860.415	57
860.589	59.05
860.763	30.38
860.938	3.75
861.112	40.62
861.286	5.8
861.46	-4.44
861.634	-29.01
861.808	112.3
861.982	-12.63
862.157	20.14
862.331	-37.2
862.505	-4.44
862.679	-43.35
862.853	18.09
863.027	36.52
863.201	44.71
863.375	28.33
863.549	63.15
863.722	63.15
863.896	59.05
864.07	-8.53
864.244	-18.77
864.418	44.71
864.592	26.28
864.766	71.34
864.939	71.34
865.113	30.38
865.287	24.23
865.461	-20.82
865.634	40.62
865.808	34.47
865.982	61.1
866.156	-63.83
866.329	16.04
866.503	118.44
866.676	124.58
866.85	-2.39
867.024	-26.96
867.197	13.99
867.371	-24.92
867.544	87.72
867.718	-86.36
867.891	147.11
868.065	48.81
868.238	-18.77
868.412	118.44
868.585	28.33
868.759	-35.16
868.932	3.75
869.105	11.95
869.279	54.95
869.452	22.19
869.625	13.99
869.799	-14.68
869.972	36.52
870.145	30.38
870.319	57
870.492	40.62
870.665	-4.44
870.838	-6.49
871.011	-45.4
871.185	81.58
871.358	-29.01
871.531	22.19
871.704	-16.73
871.877	30.38
872.05	9.9
872.223	13.99
872.396	67.24
872.569	106.15
872.742	-29.01
872.915	50.86
873.088	-57.68
873.261	-26.96
873.434	65.19
873.607	57
873.78	77.48
873.953	-2.39
874.126	46.76
874.299	-18.77
874.471	40.62
874.644	5.8
874.817	81.58
874.99	143.02
875.163	-12.63
875.335	-0.34
875.508	5.8
875.681	73.39
875.853	24.23
876.026	-10.58
876.199	-29.01
876.371	-26.96
876.544	-45.4
876.717	9.9
876.889	26.28
877.062	24.23
877.234	-86.36
877.407	3.75
877.579	24.23
877.752	28.33
877.924	34.47
878.097	-2.39
878.269	52.91
878.442	38.57
878.614	9.9
878.786	40.62
878.959	65.19
879.131	24.23
879.303	-49.49
879.476	42.67
879.648	-2.39
879.82	52.91
879.993	-22.87
880.165	42.67
880.337	-41.3
880.509	-20.82
880.681	-37.2
880.854	-72.02
881.026	-2.39
881.198	132.78
881.37	73.39
881.542	5.8
881.714	52.91
881.886	-12.63
882.058	-24.92
882.23	65.19
882.402	7.85
882.574	3.75
882.746	54.95
882.918	65.19
883.09	102.06
883.262	-43.35
883.434	18.09
883.606	-41.3
883.778	26.28
883.95	54.95
884.122	-29.01
884.293	59.05
884.465	57
884.637	46.76
884.809	-20.82
884.98	-14.68
885.152	124.58
885.324	112.3
885.496	-0.34
885.667	1.71
885.839	30.38
886.011	159.4
886.182	3.75
886.354	-35.16
886.525	-12.63
886.697	65.19
886.869	3.75
887.04	28.33
887.212	59.05
887.383	77.48
887.555	91.82
887.726	-20.82
887.897	-0.34
888.069	-47.44
888.24	83.63
888.412	18.09
888.583	28.33
888.754	18.09
888.926	-82.26
889.097	-12.63
889.268	-12.63
889.44	16.04
889.611	-22.87
889.782	-65.88
889.953	-61.78
890.125	104.11
890.296	50.86
890.467	16.04
890.638	54.95
890.809	11.95
890.98	-65.88
891.151	-2.39
891.323	73.39
891.494	-6.49
891.665	-49.49
891.836	75.43
892.007	13.99
892.178	-47.44
892.349	71.34
892.52	-20.82
892.691	-2.39
892.862	30.38
893.032	1.71
893.203	7.85
893.374	46.76
893.545	108.2
893.716	77.48
893.887	48.81
894.057	-39.25
894.228	-37.2
894.399	34.47
894.57	93.87
894.74	81.58
894.911	36.52
895.082	61.1
895.253	1.71
895.423	9.9
895.594	83.63
895.764	16.04
895.935	-6.49
896.106	-24.92
896.276	-96.6
896.447	59.05
896.617	-47.44
896.788	-74.07
896.958	1.71
897.129	-0.34
897.299	-72.02
897.47	89.77
897.64	36.52
897.81	44.71
897.981	91.82
898.151	-33.11
898.322	54.95
898.492	-16.73
898.662	-0.34
898.832	-115.03
899.003	46.76
899.173	-8.53
899.343	-22.87
899.513	-55.64
