Data from USB4F104151__56__12-12-25-055.txt Node

Date: Fri Mar 14 12:12:25 EDT 2025
User: louis
Spectrometer: USB4F10415
Trigger mode: 4
Integration Time (sec): 5.000000E-2
Scans to average: 1
Electric dark correction enabled: true
Nonlinearity correction enabled: false
Boxcar width: 0
XAxis mode: Wavelengths
Number of Pixels in Spectrum: 3648
>>>>>Begin Spectral Data<<<<<
178.204	-245.93
178.424	-245.93
178.644	-245.93
178.864	-202.92
179.084	-186.54
179.304	40.79
179.524	-28.84
179.744	18.26
179.964	14.17
180.184	32.6
180.404	-55.47
180.624	12.12
180.844	-34.99
181.064	-47.27
181.283	73.56
181.503	-75.95
181.723	51.03
181.943	-32.94
182.163	85.84
182.383	-43.18
182.602	59.22
182.822	135
183.042	-18.6
183.262	96.08
183.482	38.74
183.701	81.75
183.921	61.27
184.141	-12.46
184.361	104.28
184.58	24.4
184.8	24.4
185.02	30.55
185.239	77.65
185.459	36.69
185.679	87.89
185.898	18.26
186.118	116.56
186.338	89.94
186.557	-18.6
186.777	-8.36
186.997	38.74
187.216	-2.22
187.436	89.94
187.655	55.12
187.875	102.23
188.095	3.93
188.314	42.84
188.534	46.93
188.753	36.69
188.973	81.75
189.192	110.42
189.412	51.03
189.631	48.98
189.851	36.69
190.07	122.71
190.29	30.55
190.509	48.98
190.729	-26.79
190.948	75.6
191.168	241.49
191.387	5.97
191.607	32.6
191.826	-0.17
192.045	8.02
192.265	12.12
192.484	46.93
192.704	110.42
192.923	-14.51
193.142	149.33
193.362	42.84
193.581	24.4
193.8	94.04
194.02	61.27
194.239	57.17
194.458	83.8
194.678	59.22
194.897	42.84
195.116	-20.65
195.335	34.64
195.555	81.75
195.774	-32.94
195.993	51.03
196.212	83.8
196.432	36.69
196.651	-14.51
196.87	-16.55
197.089	141.14
197.308	102.23
197.528	83.8
197.747	-75.95
197.966	46.93
198.185	147.28
198.404	28.5
198.623	51.03
198.842	141.14
199.062	120.66
199.281	28.5
199.5	-0.17
199.719	85.84
199.938	110.42
200.157	122.71
200.376	34.64
200.595	116.56
200.814	16.21
201.033	-16.55
201.252	89.94
201.471	-53.42
201.69	46.93
201.909	73.56
202.128	16.21
202.347	-20.65
202.566	-18.6
202.785	42.84
203.004	36.69
203.223	157.52
203.442	-12.46
203.661	10.07
203.879	100.18
204.098	77.65
204.317	8.02
204.536	83.8
204.755	75.6
204.974	42.84
205.193	22.36
205.411	81.75
205.63	48.98
205.849	59.22
206.068	71.51
206.287	-71.85
206.505	36.69
206.724	-41.13
206.943	14.17
207.162	-57.51
207.381	75.6
207.599	44.88
207.818	32.6
208.037	10.07
208.255	71.51
208.474	40.79
208.693	100.18
208.911	16.21
209.13	18.26
209.349	42.84
209.567	32.6
209.786	51.03
210.005	1.88
210.223	18.26
210.442	-82.09
210.661	85.84
210.879	79.7
211.098	-24.75
211.316	53.08
211.535	87.89
211.753	-8.36
211.972	118.61
212.191	-39.08
212.409	-20.65
212.628	87.89
212.846	8.02
213.065	159.57
213.283	20.31
213.502	-10.41
213.72	36.69
213.938	14.17
214.157	-4.27
214.375	73.56
214.594	-14.51
214.812	57.17
215.031	-28.84
215.249	24.4
215.467	-4.27
215.686	34.64
215.904	59.22
216.122	120.66
216.341	5.97
216.559	46.93
216.778	32.6
216.996	98.13
217.214	42.84
217.432	69.46
217.651	-45.23
217.869	51.03
218.087	3.93
218.306	-12.46
218.524	28.5
218.742	16.21
218.96	12.12
219.179	-20.65
219.397	42.84
219.615	71.51
219.833	44.88
220.051	20.31
220.27	98.13
220.488	98.13
220.706	1.88
220.924	16.21
221.142	59.22
221.36	34.64
221.578	118.61
221.796	57.17
222.015	-16.55
222.233	8.02
222.451	22.36
222.669	-63.66
222.887	63.32
223.105	55.12
223.323	24.4
223.541	24.4
223.759	81.75
223.977	24.4
224.195	155.47
224.413	206.67
224.631	8.02
224.849	69.46
225.067	159.57
225.285	-12.46
225.503	30.55
225.721	-53.42
225.939	-12.46
226.157	48.98
226.375	171.86
226.592	8.02
226.81	63.32
227.028	81.75
227.246	108.37
227.464	75.6
227.682	48.98
227.9	38.74
228.117	59.22
228.335	48.98
228.553	26.45
228.771	51.03
228.989	75.6
229.206	42.84
229.424	44.88
229.642	-6.31
229.86	18.26
230.077	85.84
230.295	10.07
230.513	163.67
230.731	94.04
230.948	42.84
231.166	77.65
231.384	67.41
231.601	40.79
231.819	77.65
232.037	22.36
232.254	32.6
232.472	5.97
232.689	8.02
232.907	18.26
233.125	71.51
233.342	71.51
233.56	32.6
233.777	40.79
233.995	-0.17
234.213	30.55
234.43	-80.04
234.648	75.6
234.865	34.64
235.083	112.47
235.3	96.08
235.518	67.41
235.735	102.23
235.953	83.8
236.17	18.26
236.388	28.5
236.605	51.03
236.822	124.76
237.04	71.51
237.257	53.08
237.475	30.55
237.692	61.27
237.909	-2.22
238.127	3.93
238.344	61.27
238.562	3.93
238.779	-6.31
238.996	-49.32
239.214	91.99
239.431	51.03
239.648	32.6
239.865	48.98
240.083	87.89
240.3	3.93
240.517	26.45
240.735	32.6
240.952	91.99
241.169	96.08
241.386	55.12
241.603	36.69
241.821	26.45
242.038	77.65
242.255	3.93
242.472	-12.46
242.689	71.51
242.907	75.6
243.124	83.8
243.341	20.31
243.558	30.55
243.775	1.88
243.992	-20.65
244.209	116.56
244.426	130.9
244.643	61.27
244.86	24.4
245.078	126.8
245.295	-24.75
245.512	3.93
245.729	55.12
245.946	63.32
246.163	118.61
246.38	87.89
246.597	36.69
246.814	26.45
247.031	1.88
247.248	48.98
247.464	-37.03
247.681	32.6
247.898	30.55
248.115	120.66
248.332	-0.17
248.549	79.7
248.766	155.47
248.983	71.51
249.2	3.93
249.417	61.27
249.633	59.22
249.85	42.84
250.067	-0.17
250.284	36.69
250.501	89.94
250.717	20.31
250.934	-2.22
251.151	85.84
251.368	14.17
251.585	94.04
251.801	22.36
252.018	-16.55
252.235	38.74
252.451	8.02
252.668	36.69
252.885	89.94
253.102	32.6
253.318	108.37
253.535	10.07
253.752	28.5
253.968	42.84
254.185	18.26
254.401	26.45
254.618	16.21
254.835	1.88
255.051	87.89
255.268	57.17
255.484	69.46
255.701	-30.89
255.917	38.74
256.134	-49.32
256.351	69.46
256.567	-0.17
256.784	44.88
257	14.17
257.217	63.32
257.433	-10.41
257.65	59.22
257.866	69.46
258.082	-2.22
258.299	3.93
258.515	91.99
258.732	-4.27
258.948	53.08
259.165	61.27
259.381	36.69
259.597	122.71
259.814	36.69
260.03	18.26
260.246	48.98
260.463	69.46
260.679	75.6
260.895	-14.51
261.112	26.45
261.328	10.07
261.544	63.32
261.761	159.57
261.977	22.36
262.193	20.31
262.409	96.08
262.626	89.94
262.842	3.93
263.058	-49.32
263.274	69.46
263.49	55.12
263.707	22.36
263.923	132.95
264.139	-6.31
264.355	87.89
264.571	69.46
264.787	94.04
265.004	96.08
265.22	-12.46
265.436	38.74
265.652	30.55
265.868	59.22
266.084	38.74
266.3	10.07
266.516	-32.94
266.732	57.17
266.948	1.88
267.164	67.41
267.38	8.02
267.596	63.32
267.812	83.8
268.028	38.74
268.244	16.21
268.46	-18.6
268.676	20.31
268.892	71.51
269.108	83.8
269.324	-0.17
269.54	-4.27
269.756	67.41
269.972	-34.99
270.188	26.45
270.403	-47.27
270.619	-4.27
270.835	-59.56
271.051	57.17
271.267	-18.6
271.483	-0.17
271.698	20.31
271.914	36.69
272.13	81.75
272.346	20.31
272.562	1.88
272.777	61.27
272.993	-57.51
273.209	14.17
273.425	18.26
273.64	42.84
273.856	69.46
274.072	-2.22
274.287	-51.37
274.503	5.97
274.719	81.75
274.934	46.93
275.15	-37.03
275.366	-45.23
275.581	-16.55
275.797	71.51
276.012	30.55
276.228	8.02
276.444	71.51
276.659	94.04
276.875	-2.22
277.09	30.55
277.306	-51.37
277.521	-4.27
277.737	-63.66
277.952	85.84
278.168	83.8
278.383	61.27
278.599	30.55
278.814	100.18
279.03	18.26
279.245	73.56
279.461	24.4
279.676	71.51
279.892	24.4
280.107	10.07
280.322	83.8
280.538	110.42
280.753	-12.46
280.969	98.13
281.184	8.02
281.399	149.33
281.615	30.55
281.83	71.51
282.045	1.88
282.26	57.17
282.476	77.65
282.691	69.46
282.906	65.36
283.122	61.27
283.337	-55.47
283.552	65.36
283.767	-49.32
283.983	83.8
284.198	-39.08
284.413	83.8
284.628	-10.41
284.843	44.88
285.058	157.52
285.274	22.36
285.489	10.07
285.704	16.21
285.919	-43.18
286.134	116.56
286.349	-6.31
286.564	36.69
286.779	59.22
286.995	-61.61
287.21	30.55
287.425	-2.22
287.64	51.03
287.855	42.84
288.07	-88.23
288.285	96.08
288.5	89.94
288.715	-16.55
288.93	55.12
289.145	102.23
289.36	42.84
289.575	-0.17
289.79	40.79
290.004	-20.65
290.219	20.31
290.434	94.04
290.649	32.6
290.864	104.28
291.079	36.69
291.294	83.8
291.509	40.79
291.724	48.98
291.938	30.55
292.153	53.08
292.368	-4.27
292.583	61.27
292.798	69.46
293.012	98.13
293.227	36.69
293.442	-43.18
293.657	132.95
293.871	112.47
294.086	24.4
294.301	98.13
294.516	71.51
294.73	48.98
294.945	-4.27
295.16	83.8
295.374	81.75
295.589	104.28
295.804	-14.51
296.018	44.88
296.233	85.84
296.447	73.56
296.662	73.56
296.877	100.18
297.091	55.12
297.306	28.5
297.52	18.26
297.735	20.31
297.949	71.51
298.164	87.89
298.378	40.79
298.593	-53.42
298.807	-90.28
299.022	91.99
299.236	116.56
299.451	-55.47
299.665	-22.7
299.88	-14.51
300.094	24.4
300.309	30.55
300.523	112.47
300.737	48.98
300.952	63.32
301.166	91.99
301.381	32.6
301.595	38.74
301.809	-8.36
302.024	79.7
302.238	61.27
302.452	98.13
302.667	20.31
302.881	157.52
303.095	94.04
303.309	61.27
303.524	-49.32
303.738	65.36
303.952	69.46
304.166	75.6
304.381	-45.23
304.595	147.28
304.809	10.07
305.023	75.6
305.237	28.5
305.452	14.17
305.666	-10.41
305.88	104.28
306.094	161.62
306.308	69.46
306.522	57.17
306.736	26.45
306.95	100.18
307.164	40.79
307.379	20.31
307.593	149.33
307.807	114.52
308.021	77.65
308.235	73.56
308.449	-41.13
308.663	-6.31
308.877	124.76
309.091	42.84
309.305	79.7
309.519	-51.37
309.733	106.32
309.947	-26.79
310.161	124.76
310.374	100.18
310.588	116.56
310.802	-41.13
311.016	69.46
311.23	69.46
311.444	-32.94
311.658	16.21
311.872	77.65
312.085	12.12
312.299	120.66
312.513	108.37
312.727	36.69
312.941	-30.89
313.154	81.75
313.368	8.02
313.582	32.6
313.796	26.45
314.009	59.22
314.223	75.6
314.437	120.66
314.651	104.28
314.864	55.12
315.078	48.98
315.292	-14.51
315.505	-4.27
315.719	5.97
315.933	118.61
316.146	42.84
316.36	59.22
316.573	157.52
316.787	139.09
317.001	1.88
317.214	-2.22
317.428	44.88
317.641	-12.46
317.855	5.97
318.068	83.8
318.282	36.69
318.495	173.91
318.709	18.26
318.922	26.45
319.136	130.9
319.349	55.12
319.563	28.5
319.776	77.65
319.99	-63.66
320.203	81.75
320.417	46.93
320.63	40.79
320.843	126.8
321.057	94.04
321.27	28.5
321.483	57.17
321.697	87.89
321.91	8.02
322.124	53.08
322.337	51.03
322.55	-10.41
322.763	-12.46
322.977	44.88
323.19	-0.17
323.403	38.74
323.617	55.12
323.83	46.93
324.043	-2.22
324.256	94.04
324.469	-43.18
324.683	120.66
324.896	36.69
325.109	-20.65
325.322	48.98
325.535	3.93
325.748	55.12
325.962	-8.36
326.175	96.08
326.388	44.88
326.601	77.65
326.814	67.41
327.027	53.08
327.24	102.23
327.453	-47.27
327.666	-37.03
327.879	30.55
328.092	65.36
328.305	42.84
328.518	30.55
328.731	5.97
328.944	30.55
329.157	96.08
329.37	40.79
329.583	149.33
329.796	100.18
330.009	-20.65
330.222	44.88
330.435	89.94
330.648	44.88
330.861	59.22
331.073	96.08
331.286	12.12
331.499	75.6
331.712	-22.7
331.925	100.18
332.138	-26.79
332.35	137.04
332.563	32.6
332.776	186.19
332.989	34.64
333.202	44.88
333.414	22.36
333.627	-61.61
333.84	67.41
334.053	-14.51
334.265	8.02
334.478	8.02
334.691	34.64
334.903	16.21
335.116	-8.36
335.329	36.69
335.541	79.7
335.754	128.85
335.966	30.55
336.179	22.36
336.392	155.47
336.604	77.65
336.817	-0.17
337.029	-26.79
337.242	16.21
337.454	104.28
337.667	14.17
337.88	89.94
338.092	28.5
338.305	69.46
338.517	-10.41
338.729	36.69
338.942	106.32
339.154	-4.27
339.367	26.45
339.579	26.45
339.792	-28.84
340.004	85.84
340.217	112.47
340.429	51.03
340.641	32.6
340.854	-8.36
341.066	14.17
341.278	118.61
341.491	44.88
341.703	94.04
341.915	-6.31
342.128	61.27
342.34	5.97
342.552	61.27
342.764	63.32
342.977	5.97
343.189	44.88
343.401	79.7
343.613	-49.32
343.826	-6.31
344.038	-4.27
344.25	22.36
344.462	-4.27
344.674	-39.08
344.886	48.98
345.099	-2.22
345.311	122.71
345.523	71.51
345.735	12.12
345.947	32.6
346.159	65.36
346.371	42.84
346.583	-43.18
346.795	124.76
347.007	87.89
347.219	96.08
347.431	-28.84
347.643	139.09
347.855	28.5
348.067	91.99
348.279	-6.31
348.491	112.47
348.703	126.8
348.915	16.21
349.127	-55.47
349.339	-30.89
349.551	-16.55
349.763	46.93
349.975	3.93
350.187	67.41
350.399	75.6
350.61	61.27
350.822	-0.17
351.034	69.46
351.246	77.65
351.458	114.52
351.669	42.84
351.881	40.79
352.093	57.17
352.305	110.42
352.517	110.42
352.728	28.5
352.94	32.6
353.152	91.99
353.363	48.98
353.575	128.85
353.787	75.6
353.999	28.5
354.21	147.28
354.422	67.41
354.633	96.08
354.845	42.84
355.057	51.03
355.268	16.21
355.48	38.74
355.692	10.07
355.903	67.41
356.115	53.08
356.326	-12.46
356.538	143.19
356.749	169.81
356.961	157.52
357.172	1.88
357.384	-32.94
357.595	53.08
357.807	-18.6
358.018	73.56
358.23	116.56
358.441	126.8
358.653	108.37
358.864	-47.27
359.075	67.41
359.287	8.02
359.498	108.37
359.709	36.69
359.921	53.08
360.132	26.45
360.344	26.45
360.555	59.22
360.766	-14.51
360.977	30.55
361.189	44.88
361.4	61.27
361.611	135
361.823	81.75
362.034	98.13
362.245	-20.65
362.456	18.26
362.667	94.04
362.879	32.6
363.09	42.84
363.301	20.31
363.512	-8.36
363.723	-10.41
363.935	-53.42
364.146	94.04
364.357	-20.65
364.568	71.51
364.779	-47.27
364.99	26.45
365.201	40.79
365.412	67.41
365.623	-16.55
365.834	42.84
366.045	46.93
366.256	175.95
366.467	59.22
366.678	16.21
366.889	40.79
367.1	36.69
367.311	96.08
367.522	-2.22
367.733	81.75
367.944	149.33
368.155	20.31
368.366	83.8
368.577	75.6
368.788	38.74
368.999	8.02
369.209	24.4
369.42	135
369.631	157.52
369.842	44.88
370.053	12.12
370.264	98.13
370.474	-24.75
370.685	32.6
370.896	22.36
371.107	65.36
371.317	188.24
371.528	81.75
371.739	110.42
371.95	75.6
372.16	16.21
372.371	-47.27
372.582	42.84
372.792	81.75
373.003	163.67
373.214	69.46
373.424	79.7
373.635	22.36
373.846	83.8
374.056	40.79
374.267	38.74
374.477	100.18
374.688	53.08
374.898	114.52
375.109	112.47
375.319	85.84
375.53	51.03
375.74	87.89
375.951	59.22
376.161	46.93
376.372	65.36
376.582	69.46
376.793	10.07
377.003	46.93
377.214	18.26
377.424	173.91
377.635	65.36
377.845	14.17
378.055	130.9
378.266	81.75
378.476	28.5
378.686	87.89
378.897	53.08
379.107	79.7
379.317	100.18
379.528	30.55
379.738	87.89
379.948	38.74
380.158	51.03
380.369	94.04
380.579	91.99
380.789	63.32
380.999	59.22
381.21	59.22
381.42	149.33
381.63	44.88
381.84	57.17
382.05	100.18
382.261	94.04
382.471	65.36
382.681	-2.22
382.891	145.24
383.101	59.22
383.311	42.84
383.521	38.74
383.731	51.03
383.941	98.13
384.151	132.95
384.361	75.6
384.571	-2.22
384.781	91.99
384.991	110.42
385.201	61.27
385.411	149.33
385.621	63.32
385.831	44.88
386.041	44.88
386.251	71.51
386.461	67.41
386.671	-41.13
386.881	67.41
387.091	-20.65
387.301	100.18
387.511	22.36
387.72	94.04
387.93	46.93
388.14	67.41
388.35	83.8
388.56	126.8
388.769	149.33
388.979	-16.55
389.189	-2.22
389.399	-14.51
389.609	135
389.818	114.52
390.028	130.9
390.238	94.04
390.447	67.41
390.657	116.56
390.867	96.08
391.076	106.32
391.286	36.69
391.496	98.13
391.705	14.17
391.915	132.95
392.125	100.18
392.334	12.12
392.544	180.05
392.753	-6.31
392.963	18.26
393.172	71.51
393.382	40.79
393.591	175.95
393.801	51.03
394.01	180.05
394.22	48.98
394.429	116.56
394.639	91.99
394.848	26.45
395.058	28.5
395.267	139.09
395.477	61.27
395.686	81.75
395.895	192.34
396.105	122.71
396.314	104.28
396.524	67.41
396.733	44.88
396.942	155.47
397.152	141.14
397.361	85.84
397.57	57.17
397.78	104.28
397.989	94.04
398.198	198.48
398.407	124.76
398.617	104.28
398.826	106.32
399.035	126.8
399.244	91.99
399.453	155.47
399.663	132.95
399.872	157.52
400.081	89.94
400.29	132.95
400.499	116.56
400.708	198.48
400.917	87.89
401.127	145.24
401.336	83.8
401.545	169.81
401.754	132.95
401.963	139.09
402.172	98.13
402.381	108.37
402.59	46.93
402.799	171.86
403.008	112.47
403.217	182.1
403.426	149.33
403.635	126.8
403.844	182.1
404.053	206.67
404.262	114.52
404.471	251.73
404.68	87.89
404.888	227.15
405.097	204.63
405.306	235.35
405.515	124.76
405.724	79.7
405.933	196.43
406.142	278.35
406.35	270.16
406.559	272.21
406.768	182.1
406.977	268.11
407.185	296.78
407.394	264.02
407.603	214.87
407.812	239.44
408.02	331.6
408.229	282.45
408.438	227.15
408.646	169.81
408.855	313.17
409.064	333.65
409.272	231.25
409.481	272.21
409.69	358.22
409.898	347.98
410.107	341.84
410.315	370.51
410.524	393.04
410.733	374.61
410.941	401.23
411.15	382.8
411.358	552.78
411.567	466.77
411.775	419.66
411.984	417.61
412.192	474.96
412.401	456.53
412.609	606.03
412.818	606.03
413.026	587.6
413.234	552.78
413.443	536.4
413.651	571.21
413.86	595.79
414.068	669.52
414.276	708.43
414.485	603.98
414.693	735.05
414.901	767.82
415.11	761.67
415.318	837.45
415.526	816.97
415.734	886.6
415.943	841.54
416.151	1001.29
416.359	911.18
416.567	1003.33
416.776	1013.57
416.984	1091.4
417.192	1046.34
417.4	1212.23
417.608	1163.08
417.817	1210.18
418.025	1204.03
418.233	1324.87
418.441	1216.32
418.649	1402.69
418.857	1371.97
419.065	1544
419.273	1466.17
419.481	1451.84
419.689	1529.66
419.897	1578.81
420.105	1718.08
420.313	1654.59
420.521	1873.72
420.729	1902.39
420.937	1713.98
421.145	1933.11
421.353	1996.6
421.561	2092.85
421.769	2301.75
421.977	2211.64
422.185	2275.12
422.393	2291.51
422.601	2469.68
422.809	2459.44
423.017	2395.95
423.224	2598.7
423.432	2672.43
423.64	2662.19
423.848	3010.34
424.056	2942.76
424.263	2998.06
424.471	3034.92
424.679	3264.29
424.887	3333.92
425.094	3411.75
425.302	3501.86
425.51	3561.25
425.718	3594.01
425.925	3825.43
426.133	3917.59
426.341	3946.27
426.548	4243.22
426.756	4175.64
426.964	4212.5
427.171	4364.05
427.379	4534.03
427.586	4550.42
427.794	4843.28
428.001	4833.04
428.209	5281.54
428.417	5132.04
428.624	5562.11
428.832	5496.58
429.039	5453.57
429.247	5490.43
429.454	5957.37
429.662	6391.54
429.869	6080.25
430.076	6481.65
430.284	6285.05
430.491	6375.16
430.699	6878.96
430.906	6835.95
431.114	6956.78
431.321	7130.86
431.528	7206.63
431.736	7909.08
431.943	8150.74
432.15	7911.13
432.358	8154.84
432.565	8283.86
432.772	8390.36
432.979	8924.88
433.187	8896.21
433.394	8816.33
433.601	9535.17
433.808	9555.65
434.016	9578.18
434.223	9877.18
434.43	10413.75
434.637	10286.78
434.844	11005.61
435.052	10983.09
435.259	11120.3
435.466	11126.44
435.673	10823.34
435.88	11775.65
436.087	12183.2
436.294	12275.35
436.501	12238.49
436.708	12125.85
436.915	12574.36
437.122	13147.79
437.329	13072.01
437.537	13735.56
437.743	13944.45
437.95	13575.81
438.157	14446.2
438.364	14859.89
438.571	14696.05
438.778	15132.27
438.985	16322.14
439.192	15629.93
439.399	15945.31
439.606	15681.13
439.813	16617.05
440.02	17458.76
440.227	17366.6
440.433	17210.96
440.64	17471.05
440.847	17477.19
441.054	17860.16
441.261	18976.31
441.467	18816.57
441.674	19097.14
441.881	19996.2
442.088	19883.56
442.294	19707.43
442.501	20102.69
442.708	20504.09
442.914	21351.95
443.121	22177.28
443.328	21384.72
443.534	23193.08
443.741	22726.14
443.948	22382.08
444.154	23694.83
444.361	23735.79
444.568	23686.64
444.774	23854.57
444.981	24079.85
445.187	24700.38
445.394	25812.43
445.6	25331.15
445.807	27346.36
446.013	26670.53
446.22	26707.39
446.426	28065.19
446.633	28325.29
446.839	29023.64
447.046	27874.73
447.252	29642.13
447.459	29597.07
447.665	29285.78
447.871	30702.98
448.078	31810.93
448.284	30240.14
448.491	31296.89
448.697	32296.3
448.903	32855.39
449.11	33678.68
449.316	32515.43
449.522	33166.68
449.728	34006.35
449.935	34405.7
450.141	33977.68
450.347	34827.59
450.553	33582.42
450.76	34043.21
450.966	35351.87
451.172	34889.02
451.378	35716.4
451.584	34784.58
451.791	35812.66
451.997	35763.51
452.203	35972.4
452.409	36349.23
452.615	36048.18
452.821	34792.77
453.027	34147.66
453.233	35835.19
453.44	34774.34
453.646	35124.54
453.852	35087.68
454.058	35849.52
454.264	34561.35
454.47	34915.65
454.676	34553.16
454.882	35724.6
455.088	32251.24
455.294	32849.25
455.5	33125.72
455.705	33496.41
455.911	32202.09
456.117	31632.75
456.323	31393.14
456.529	29341.08
456.735	30838.14
456.941	30070.15
457.147	29242.78
457.352	28605.86
457.558	28040.62
457.764	28073.38
457.97	27805.1
458.176	26721.73
458.381	26951.1
458.587	26043.85
458.793	25757.13
458.999	24215.01
459.204	26146.25
459.41	25230.8
459.616	23334.39
459.821	23731.69
460.027	23305.71
460.233	23004.66
460.438	21796.36
460.644	22031.88
460.85	21218.83
461.055	20610.59
461.261	20581.92
461.466	19240.5
461.672	18470.46
461.878	19988
462.083	18548.28
462.289	18124.35
462.494	17927.75
462.7	17010.26
462.905	16676.44
463.111	17217.1
463.316	17223.25
463.522	16658.01
463.727	16916.05
463.932	16512.6
464.138	16496.22
464.343	16617.05
464.549	16354.91
464.754	16569.94
464.959	16322.14
465.165	16131.68
465.37	15629.93
465.575	15130.22
465.781	15750.76
465.986	15736.42
466.191	15212.14
466.397	14962.29
466.602	14243.45
466.807	14790.26
467.012	14603.89
467.218	14513.78
467.423	14509.69
467.628	14460.54
467.833	15083.12
468.038	14759.54
468.244	14341.75
468.449	14841.46
468.654	14188.16
468.859	14143.1
469.064	13856.39
469.269	13547.14
469.474	13561.48
469.679	13964.93
469.885	13256.33
470.09	13321.87
470.295	13528.71
470.5	13229.71
470.705	13092.49
470.91	12785.3
471.115	12883.6
471.32	13053.58
471.525	12717.72
471.73	12615.32
471.935	12463.77
472.139	12060.32
472.344	12113.56
472.549	11898.53
472.754	11951.77
472.959	11644.58
473.164	11478.69
473.369	11466.41
473.574	11757.22
473.778	11583.14
473.983	11368.1
474.188	11335.34
474.393	10852.02
474.598	11019.95
474.802	10827.44
475.007	10770.1
475.212	10970.8
475.417	10469.05
475.621	10307.26
475.826	10315.45
476.031	10053.31
476.235	10012.35
476.44	10276.54
476.645	9959.1
476.849	9805.5
477.054	9684.67
477.259	9735.87
477.463	9828.03
477.668	9524.93
477.872	9496.26
478.077	9199.3
478.282	8896.21
478.486	9064.14
478.691	8775.38
478.895	8906.45
479.1	8842.96
479.304	8978.12
479.509	8521.43
479.713	8617.68
479.918	8380.12
480.122	8464.08
480.326	8531.67
480.531	8552.15
480.735	8216.28
480.94	8214.23
481.144	8648.4
481.348	8201.94
481.553	8382.17
481.757	8175.32
481.961	8324.82
482.166	8185.56
482.37	8304.34
482.574	8013.53
482.778	8017.63
482.983	8351.45
483.187	8220.38
483.391	8169.18
483.595	8171.22
483.8	8031.96
484.004	8138.46
484.208	8287.96
484.412	8021.72
484.616	8138.46
484.821	8173.27
485.025	7986.91
485.229	8128.22
485.433	8062.68
485.637	8052.44
485.841	8031.96
486.045	8068.83
486.249	7976.67
486.453	8072.92
486.657	7995.1
486.861	7870.17
487.065	7919.32
487.269	8048.35
487.473	7835.36
487.677	8128.22
487.881	8154.84
488.085	7915.23
488.289	8261.34
488.493	7714.53
488.697	8034.01
488.901	8103.64
489.105	8068.83
489.309	8072.92
489.512	8177.37
489.716	8124.12
489.92	8068.83
490.124	7927.52
490.328	8269.53
490.531	8054.49
490.735	8179.42
490.939	8210.14
491.143	8060.63
491.346	8384.21
491.55	8302.29
491.754	8242.9
491.958	8357.59
492.161	8369.88
492.365	8277.72
492.569	8306.39
492.772	8290.01
492.976	8431.32
493.18	8484.56
493.383	8505.04
493.587	8574.67
493.79	8701.65
493.994	8689.36
494.197	8595.15
494.401	8709.84
494.605	8781.52
494.808	8795.86
495.012	8904.4
495.215	9037.52
495.419	9025.23
495.622	8781.52
495.825	8763.09
496.029	9092.81
496.232	9412.29
496.436	9252.55
496.639	9522.88
496.843	9385.67
497.046	9787.07
497.249	9709.25
497.453	9653.95
497.656	9694.91
497.859	9756.35
498.063	9909.95
498.266	10084.03
498.469	10176.19
498.673	10170.04
498.876	10290.87
499.079	10282.68
499.282	10432.18
499.485	10821.3
499.689	10782.38
499.892	10864.3
500.095	11024.05
500.298	11247.27
500.501	11052.72
500.705	11462.31
500.908	11331.24
501.111	11484.84
501.314	11722.4
501.517	11871.9
501.72	12132
501.923	11869.86
502.126	12193.44
502.329	12334.75
502.532	12504.73
502.735	12670.61
502.938	12947.09
503.141	12680.85
503.344	13104.78
503.547	13065.87
503.75	13174.41
503.953	13325.96
504.156	13198.99
504.359	13481.61
504.562	13686.4
504.765	13739.65
504.968	13907.59
505.17	14243.45
505.373	14102.14
505.576	14595.7
505.779	14780.02
505.982	14618.23
506.185	14900.85
506.387	14984.82
506.59	15105.65
506.793	15578.73
506.996	15396.46
507.198	15994.47
507.401	15619.69
507.604	15871.59
507.807	16193.12
508.009	16320.09
508.212	16459.35
508.415	16295.52
508.617	16811.6
508.82	16844.37
509.022	16754.26
509.225	17280.59
509.428	17264.21
509.63	17575.5
509.833	17321.55
510.035	17901.12
510.238	17927.75
510.44	18013.76
510.643	18189.89
510.845	18474.56
511.048	18300.48
511.25	18484.8
511.453	18974.26
511.655	19113.52
511.858	19424.81
512.06	19353.13
512.262	19492.4
512.465	19519.02
512.667	19803.69
512.87	20160.03
513.072	20133.41
513.274	20391.45
513.477	20364.83
513.679	20669.98
513.881	20893.21
514.084	21296.66
514.286	20911.64
514.488	21339.66
514.69	21675.53
514.893	21548.56
515.095	21655.05
515.297	22078.98
515.499	22187.52
515.701	22201.86
515.904	22736.38
516.106	22351.36
516.308	22773.24
516.51	22945.27
516.712	23264.75
516.914	23133.68
517.116	23442.93
517.318	23604.72
517.52	23660.01
517.722	23524.85
517.925	24247.78
518.127	24055.27
518.329	24507.87
518.531	24174.05
518.733	24757.72
518.935	25179.61
519.136	25064.92
519.338	25376.21
519.54	25191.89
519.742	25941.45
519.944	25933.26
520.146	25914.83
520.348	25775.56
520.55	26207.69
520.752	26410.43
520.954	26443.2
521.155	26590.66
521.357	26615.23
521.559	27350.45
521.761	27612.59
521.963	26908.09
522.164	27415.99
522.366	27190.71
522.568	28116.39
522.77	27563.44
522.971	27968.94
523.173	28067.24
523.375	28179.88
523.576	27960.75
523.778	28026.28
523.98	28521.89
524.181	28894.62
524.383	28476.83
524.584	28831.13
524.786	28960.16
524.988	28546.47
525.189	28865.95
525.391	29216.15
525.592	29236.63
525.794	29496.72
525.995	29115.8
526.197	29291.93
526.398	29349.27
526.6	29582.74
526.801	29816.21
527.003	29826.45
527.204	29681.04
527.406	30053.77
527.607	30209.42
527.808	30244.23
528.01	29834.64
528.211	29885.84
528.412	30444.93
528.614	30363.01
528.815	30330.25
529.016	30725.5
529.218	30199.18
529.419	30539.14
529.62	30381.45
529.822	30258.57
530.023	30356.87
530.224	30641.54
530.425	30375.3
530.626	30508.42
530.828	30393.73
531.029	30879.1
531.23	30612.87
531.431	30735.74
531.632	30471.56
531.833	30637.44
532.035	30760.32
532.236	30643.59
532.437	30965.12
532.638	30434.69
532.839	30600.58
533.04	31249.78
533.241	30514.56
533.442	31026.56
533.643	30926.21
533.844	30418.31
534.045	30686.59
534.246	30666.11
534.447	30664.07
534.648	30567.81
534.849	30879.1
535.05	30641.54
535.251	30571.91
535.451	30473.6
535.652	30576
535.853	30635.39
536.054	30506.37
536.255	30584.19
536.456	30324.1
536.657	30920.06
536.857	30700.93
537.058	30346.63
537.259	30737.79
537.46	30549.38
537.66	30541.19
537.861	30500.23
538.062	30360.97
538.263	30565.76
538.463	30215.56
538.664	30373.25
538.865	30121.35
539.065	30377.35
539.266	30436.74
539.466	30885.25
539.667	30156.17
539.868	30782.85
540.068	30363.01
540.269	29982.09
540.469	30635.39
540.67	30330.25
540.87	30311.81
541.071	30295.43
541.271	30467.46
541.472	30600.58
541.672	30223.75
541.873	30231.94
542.073	29859.21
542.274	30705.02
542.474	30213.51
542.675	30172.55
542.875	30041.48
543.075	30109.07
543.276	29873.55
543.476	30262.66
543.676	30111.11
543.877	30166.41
544.077	30301.57
544.277	30197.13
544.478	29902.22
544.678	30293.38
544.878	30010.76
545.078	30023.05
545.279	29996.43
545.479	29787.53
545.679	30072.2
545.879	30125.45
546.079	30180.74
546.28	29715.86
546.48	29826.45
546.68	29949.32
546.88	29625.75
547.08	29875.6
547.28	29846.93
547.48	29713.81
547.68	30133.64
547.88	29543.83
548.081	30127.5
548.281	29801.87
548.481	29787.53
548.681	30268.81
548.881	29654.42
549.081	30147.98
549.28	29711.76
549.48	30092.68
549.68	29674.9
549.88	30053.77
550.08	29767.06
550.28	29697.42
550.48	29416.85
550.68	29820.3
550.88	29640.08
551.08	29644.18
551.279	29724.05
551.479	29189.53
551.679	29556.11
551.879	29773.2
552.079	29994.38
552.278	29517.2
552.478	29607.31
552.678	29848.97
552.878	30033.29
553.077	29615.51
553.277	29468.05
553.477	29932.94
553.676	29396.37
553.876	29644.18
554.076	29296.02
554.275	29502.87
554.475	29238.68
554.674	29924.75
554.874	29394.32
555.074	29359.51
555.273	29375.89
555.473	29660.56
555.672	29056.41
555.872	29656.46
556.071	29543.83
556.271	29629.84
556.47	29253.01
556.67	29068.7
556.869	29416.85
557.068	29406.61
557.268	29052.31
557.467	29431.19
557.667	29379.99
557.866	29384.08
558.065	29140.38
558.265	28970.4
558.464	29353.37
558.663	29396.37
558.863	28843.42
559.062	29410.71
559.261	29117.85
559.461	29855.12
559.66	28970.4
559.859	29238.68
560.058	28841.37
560.258	28937.63
560.457	28579.23
560.656	29169.05
560.855	29396.37
561.054	29306.26
561.253	28874.14
561.453	29517.2
561.652	28927.39
561.851	29242.78
562.05	28857.76
562.249	28913.05
562.448	28931.48
562.647	29091.23
562.846	28902.81
563.045	28988.83
563.244	28827.04
563.443	29388.18
563.642	28356
563.841	28951.96
564.04	29128.09
564.239	28997.02
564.438	28601.76
564.637	28624.29
564.836	28835.23
565.035	28558.75
565.234	29115.8
565.432	28792.22
565.631	28929.44
565.83	28974.49
566.029	28607.9
566.228	28480.93
566.427	28392.87
566.625	28282.28
566.824	28206.5
567.023	28827.04
567.222	27942.31
567.42	28796.32
567.619	28525.99
567.818	28644.77
568.016	28192.17
568.215	28568.99
568.414	28482.98
568.612	28704.16
568.811	28401.06
569.01	28454.31
569.208	27970.99
569.407	28392.87
569.605	27792.81
569.804	28192.17
570.002	27977.13
570.201	28370.34
570.4	28179.88
570.598	28165.54
570.797	27882.92
570.995	27801.01
571.193	27585.97
571.392	28229.03
571.59	28145.06
571.789	28054.95
571.987	27653.55
572.186	28190.12
572.384	27637.17
572.582	28034.47
572.781	28114.34
572.979	27796.91
573.177	27626.93
573.376	27936.17
573.574	27430.32
573.772	27696.56
573.971	27717.04
574.169	27624.88
574.367	27454.9
574.565	28110.25
574.763	27469.23
574.962	27737.52
575.16	26998.2
575.358	27628.98
575.556	27258.29
575.754	27518.39
575.952	27350.45
576.151	27211.19
576.349	27209.14
576.547	27098.55
576.745	27233.72
576.943	27299.25
577.141	27092.41
577.339	27147.7
577.537	27284.92
577.735	27164.09
577.933	27090.36
578.131	27004.35
578.329	27289.01
578.527	26803.64
578.725	26844.6
578.923	27004.35
579.121	26947
579.319	26604.99
579.516	26992.06
579.714	26828.22
579.912	26353.09
580.11	26656.19
580.308	26910.14
580.506	26731.97
580.704	26219.97
580.901	26521.02
581.099	26572.22
581.297	26551.74
581.495	26353.09
581.692	26529.22
581.89	26174.92
582.088	26693.05
582.285	26299.84
582.483	26533.31
582.681	26529.22
582.878	26222.02
583.076	26099.14
583.274	26174.92
583.471	26351.04
583.669	26138.05
583.866	25837
584.064	26346.95
584.262	26219.97
584.459	26269.12
584.657	25986.5
584.854	26230.21
585.052	25771.47
585.249	25902.54
585.447	25990.6
585.644	25892.3
585.841	25769.42
586.039	26076.62
586.236	25679.31
586.434	25320.91
586.631	25419.22
586.828	25685.45
587.026	25683.41
587.223	25935.31
587.42	25456.08
587.618	25671.12
587.815	25310.68
588.012	25429.46
588.21	25697.74
588.407	25550.29
588.604	25533.9
588.801	25132.5
588.999	25384.4
589.196	25189.84
589.393	25798.09
589.59	25716.17
589.787	25292.24
589.984	25214.42
590.182	25093.59
590.379	25322.96
590.576	24974.81
590.773	25243.09
590.97	25191.89
591.167	25341.39
591.364	25052.63
591.561	24991.19
591.758	24933.85
591.955	25181.65
592.152	25120.21
592.349	24903.13
592.546	25103.83
592.743	24989.14
592.94	24870.36
593.137	25157.08
593.334	25269.72
593.531	24890.84
593.727	25038.3
593.924	24995.29
594.121	24628.7
594.318	24888.79
594.515	24747.48
594.712	25089.49
594.908	24675.8
595.105	25081.3
595.302	25028.06
595.499	24952.28
595.696	24888.79
595.892	24765.92
596.089	25122.26
596.286	24976.86
596.482	24837.59
596.679	24638.94
596.876	25034.2
597.072	24561.12
597.269	24792.54
597.466	24708.57
597.662	24700.38
597.859	24821.21
598.055	24833.5
598.252	24544.73
598.448	25120.21
598.645	25089.49
598.841	24573.41
599.038	25034.2
599.234	24741.34
599.431	24434.14
599.627	24618.46
599.824	25060.82
600.02	24712.67
600.217	24810.97
600.413	24896.99
600.609	24864.22
600.806	24686.04
601.002	24976.86
601.198	24559.07
601.395	24729.05
601.591	24739.29
601.787	24917.47
601.984	24790.49
602.18	25095.64
602.376	24759.77
602.572	24827.35
602.769	24929.75
602.965	24638.94
603.161	24819.16
603.357	24761.82
603.553	24985.05
603.75	24929.75
603.946	24921.56
604.142	25050.58
604.338	24708.57
604.534	25030.1
604.73	24708.57
604.926	24892.89
605.122	25273.81
605.318	25128.41
605.514	25114.07
605.71	24939.99
605.906	25134.55
606.102	25157.08
606.298	25312.72
606.494	25327.06
606.69	25529.81
606.886	24980.95
607.082	24823.26
607.278	25255.38
607.474	25077.21
607.67	25523.66
607.866	25103.83
608.062	25738.7
608.257	25286.1
608.453	25566.67
608.649	25707.98
608.845	25445.84
609.041	25777.61
609.236	25750.99
609.432	25703.89
609.628	25998.79
609.824	25726.41
610.019	25478.61
610.215	25873.87
610.411	26039.75
610.606	25908.68
610.802	26066.38
610.998	25822.67
611.193	26027.46
611.389	25945.55
611.584	25951.69
611.78	25951.69
611.976	26002.89
612.171	26385.86
612.367	26193.35
612.562	26471.87
612.758	25970.12
612.953	26353.09
613.149	26617.28
613.344	26357.19
613.539	26514.88
613.735	26561.98
613.93	26764.73
614.126	26500.54
614.321	26887.61
614.517	26955.19
614.712	26738.11
614.907	26373.57
615.103	26928.57
615.298	26625.47
615.493	26846.65
615.688	26574.27
615.884	27534.77
616.079	26650.05
616.274	26996.15
616.47	27104.7
616.665	27035.06
616.86	27055.54
617.055	26891.71
617.25	26987.96
617.445	27430.32
617.641	26998.2
617.836	27194.81
618.031	27057.59
618.226	27502
618.421	27159.99
618.616	27704.75
618.811	26969.53
619.006	27633.07
619.201	26883.52
619.396	27530.67
619.591	26881.47
619.786	27645.36
619.981	26873.28
620.176	27061.69
620.371	26686.91
620.566	27303.35
620.761	26947
620.956	27145.66
621.151	26750.4
621.346	26752.45
621.541	27041.21
621.735	27162.04
621.93	26783.16
622.125	26865.08
622.32	26256.84
622.515	26754.49
622.709	26400.19
622.904	26521.02
623.099	26351.04
623.294	26568.13
623.488	26187.21
623.683	26441.15
623.878	26076.62
624.072	26320.32
624.267	26006.98
624.462	26265.03
624.656	25718.22
624.851	25796.04
625.046	25685.45
625.24	25826.76
625.435	25552.34
625.629	25509.33
625.824	25384.4
626.018	25787.85
626.213	25198.04
626.407	25898.44
626.602	24948.18
626.796	25578.96
626.991	25165.27
627.185	24931.8
627.38	25069.01
627.574	24913.37
627.768	24772.06
627.963	24600.03
628.157	24309.22
628.352	24585.69
628.546	24251.88
628.74	25007.58
628.935	23983.59
629.129	24315.36
629.323	24094.18
629.517	24305.12
629.712	24200.68
629.906	24096.23
630.1	24049.13
630.294	23780.84
630.489	23530.99
630.683	23625.2
630.877	23055.86
631.071	23627.24
631.265	23156.21
631.459	23451.12
631.653	23053.81
631.848	23418.35
632.042	22918.65
632.236	23010.81
632.43	22648.32
632.624	22898.17
632.818	22816.25
633.012	22234.63
633.206	22687.23
633.4	22742.52
633.594	22517.25
633.788	22398.46
633.982	22406.66
634.176	22597.12
634.369	21898.76
634.563	22175.23
634.757	21886.47
634.951	22027.78
635.145	21802.5
635.339	21870.09
635.533	21618.19
635.726	21870.09
635.92	21437.97
636.114	21689.87
636.308	21667.34
636.501	21282.32
636.695	21222.93
636.889	21061.14
637.083	21059.09
637.276	20776.47
637.47	20872.73
637.664	20882.97
637.857	20481.56
638.051	20526.62
638.244	20495.9
638.438	20489.76
638.632	20207.14
638.825	20153.89
639.019	20127.27
639.212	19789.35
639.406	20035.11
639.599	19756.58
639.793	19836.45
639.986	19377.71
640.18	19629.61
640.373	19340.85
640.567	19234.35
640.76	19361.33
640.954	19099.19
641.147	18894.39
641.34	18843.19
641.534	18701.88
641.727	18824.76
641.92	18722.36
642.114	18523.71
642.307	18742.84
642.5	18617.91
642.694	18218.56
642.887	18060.87
643.08	18175.55
643.273	18165.31
643.467	18071.11
643.66	17761.86
643.853	17645.13
644.046	17423.95
644.239	17727.05
644.432	17204.81
644.626	17522.25
644.819	17317.45
645.012	17194.57
645.205	17430.09
645.398	17010.26
645.591	16733.78
645.784	16946.77
645.977	16498.27
646.17	16934.48
646.363	16356.96
646.556	16229.98
646.749	16406.11
646.942	16420.44
647.135	16121.44
647.328	16098.91
647.521	16033.38
647.714	15771.24
647.907	15697.51
648.099	15713.89
648.292	15937.12
648.485	15513.19
648.678	15287.92
648.871	15453.8
649.064	15023.73
649.256	15306.35
649.449	15095.41
649.642	15060.59
649.835	15036.02
650.027	14960.24
650.22	14532.22
650.413	14521.98
650.605	14818.93
650.798	14759.54
650.991	14317.18
651.183	14468.73
651.376	14478.97
651.568	14491.26
651.761	14343.8
651.954	14116.48
652.146	14093.95
652.339	14046.85
652.531	13586.05
652.724	13659.78
652.916	13819.52
653.109	13745.8
653.301	13497.99
653.494	13571.72
653.686	13285
653.879	13432.46
654.071	13024.91
654.263	13059.73
654.456	13254.28
654.648	12994.19
654.84	12713.62
655.033	12822.16
655.225	12928.66
655.417	12807.83
655.61	12830.35
655.802	12369.56
655.994	12621.46
656.186	12598.93
656.379	12347.03
656.571	12312.22
656.763	12277.4
656.955	12132
657.148	12215.96
657.34	12123.8
657.532	11939.49
657.724	11753.12
657.916	12019.36
658.108	11665.06
658.3	11620
658.492	11613.86
658.684	11556.52
658.876	11402.92
659.068	11509.41
659.26	11368.1
659.452	11374.25
659.644	11189.93
659.836	11003.57
660.028	11067.05
660.22	10837.68
660.412	10958.51
660.604	10802.86
660.796	10956.46
660.988	10849.97
661.18	10456.76
661.372	10483.38
661.563	10393.27
661.755	10403.51
661.947	10405.56
662.139	10172.09
662.331	10098.36
662.522	10077.88
662.714	10167.99
662.906	10149.56
663.097	9998.01
663.289	9809.6
663.481	9617.09
663.673	9946.81
663.864	9787.07
664.056	9565.89
664.247	9574.08
664.439	9291.46
664.631	9553.6
664.822	9494.21
665.014	9404.1
665.205	9252.55
665.397	9148.11
665.588	9293.51
665.78	9184.97
665.971	9045.71
666.163	9127.63
666.354	8822.48
666.546	8937.16
666.737	8922.83
666.929	8730.32
667.12	8746.7
667.311	8715.98
667.503	8548.05
667.694	8787.66
667.885	8521.43
668.077	8568.53
668.268	8404.69
668.459	8455.89
668.651	8310.49
668.842	8427.22
669.033	8404.69
669.224	8234.71
669.416	8337.11
669.607	8109.79
669.798	8124.12
669.989	8226.52
670.18	8081.11
670.371	7886.56
670.563	7933.66
670.754	7872.22
670.945	7806.69
671.136	7882.46
671.327	7902.94
671.518	7724.77
671.709	7907.04
671.9	7788.25
672.091	7601.89
672.282	7696.1
672.473	7642.85
672.664	7634.66
672.855	7464.68
673.046	7532.26
673.237	7532.26
673.428	7397.09
673.619	7497.44
673.809	7331.56
674	7376.61
674.191	7495.39
674.382	7237.35
674.573	7216.87
674.764	7368.42
674.954	7378.66
675.145	7130.86
675.336	7155.43
675.527	7200.49
675.717	7261.93
675.908	7020.27
676.099	7053.03
676.289	7022.31
676.48	7007.98
676.671	6973.16
676.861	6997.74
677.052	7042.79
677.243	6891.24
677.433	6792.94
677.624	6915.82
677.814	6842.09
678.005	6870.76
678.195	6819.57
678.386	7010.03
678.576	6852.33
678.767	6860.52
678.957	6776.56
679.148	6842.09
679.338	6696.69
679.529	6641.39
679.719	6555.38
679.909	6692.59
680.1	6561.52
680.29	6465.27
680.481	6610.67
680.671	6459.12
680.861	6592.24
681.052	6618.86
681.242	6655.73
681.432	6504.18
681.622	6483.7
681.813	6231.8
682.003	6598.38
682.193	6538.99
682.383	6500.08
682.573	6606.58
682.764	6452.98
682.954	6522.61
683.144	6534.9
683.334	6319.86
683.524	6205.17
683.714	6274.81
683.904	6401.78
684.094	6387.44
684.284	6278.9
684.474	6610.67
684.664	6272.76
684.854	6106.87
685.044	6143.74
685.234	6348.53
685.424	6297.33
685.614	6264.57
685.804	6211.32
685.994	6045.43
686.184	6039.29
686.374	6233.85
686.564	6070.01
686.753	6151.93
686.943	5963.51
687.133	6084.34
687.323	6039.29
687.513	6106.87
687.702	6178.55
687.892	6158.07
688.082	6084.34
688.272	6061.82
688.461	6047.48
688.651	5961.47
688.841	5893.88
689.03	6110.97
689.22	5902.08
689.41	6022.91
689.599	5883.64
689.789	5981.95
689.979	5854.97
690.168	6041.34
690.358	5852.92
690.547	6012.67
690.737	5994.23
690.926	5846.78
691.116	6070.01
691.305	5865.21
691.495	5756.67
691.684	5918.46
691.874	5760.77
692.063	5820.16
692.252	5793.53
692.442	5771.01
692.631	5787.39
692.82	5684.99
693.01	5799.68
693.199	5781.25
693.388	5793.53
693.578	5842.68
693.767	5783.29
693.956	5582.59
694.146	5603.07
694.335	5650.18
694.524	5760.77
694.713	5734.14
694.902	5709.57
695.092	5811.96
695.281	5740.29
695.47	5777.15
695.659	5758.72
695.848	5521.15
696.037	5553.92
696.226	5605.12
696.415	5662.46
696.604	5758.72
696.793	5609.22
696.982	5680.89
697.171	5666.56
697.36	5754.62
697.549	5543.68
697.738	5465.86
697.927	5689.09
698.116	5631.74
698.305	5654.27
698.494	5771.01
698.683	5752.57
698.872	5641.98
699.061	5574.4
699.25	5562.11
699.438	5672.7
699.627	5564.16
699.816	5615.36
700.005	5342.98
700.193	5623.55
700.382	5682.94
700.571	5582.59
700.76	5521.15
700.948	5695.23
701.137	5515.01
701.326	5637.89
701.514	5480.19
701.703	5463.81
701.892	5469.95
702.08	5644.03
702.269	5551.87
702.457	5705.47
702.646	5572.35
702.834	5519.11
703.023	5447.43
703.212	5496.58
703.4	5529.34
703.589	5406.47
703.777	5551.87
703.965	5394.18
704.154	5521.15
704.342	5322.5
704.531	5451.52
704.719	5455.62
704.907	5529.34
705.096	5431.04
705.284	5451.52
705.472	5336.84
705.661	5361.41
705.849	5433.09
706.037	5502.72
706.226	5508.87
706.414	5424.9
706.602	5279.49
706.79	5336.84
706.979	5340.93
707.167	5230.34
707.355	5222.15
707.543	5277.44
707.731	5527.3
707.919	5259.01
708.107	5113.61
708.296	5216.01
708.484	5332.74
708.672	5291.78
708.86	5252.87
709.048	5273.35
709.236	5248.77
709.424	5154.57
709.612	5132.04
709.8	5242.63
709.988	5109.51
710.176	5213.96
710.364	5082.89
710.551	5213.96
710.739	5175.05
710.927	5224.2
711.115	5074.7
711.303	5168.9
711.491	5052.17
711.679	5099.27
711.866	5105.42
712.054	5070.6
712.242	5031.69
712.43	5115.66
712.617	5125.9
712.805	5009.16
712.993	5025.54
713.181	4849.42
713.368	4982.54
713.556	5052.17
713.744	4828.94
713.931	5138.18
714.119	5064.46
714.306	4917
714.494	4841.23
714.682	4841.23
714.869	4859.66
715.057	5023.5
715.244	4910.86
715.432	4945.67
715.619	4923.15
715.807	4990.73
715.994	4863.76
716.182	4851.47
716.369	4921.1
716.556	4859.66
716.744	4857.61
716.931	4738.83
717.119	4835.08
717.306	4716.3
717.493	4824.84
717.681	4816.65
717.868	4683.53
718.055	4757.26
718.242	4826.89
718.43	4753.16
718.617	4732.69
718.804	4728.59
718.991	4812.56
719.179	4722.45
719.366	4798.22
719.553	4495.12
719.74	4665.1
719.927	4675.34
720.114	4675.34
720.301	4540.18
720.488	4452.11
720.676	4529.94
720.863	4564.75
721.05	4712.21
721.237	4605.71
721.424	4515.6
721.611	4595.47
721.798	4646.67
721.985	4376.34
722.172	4470.55
722.358	4476.69
722.545	4560.66
722.732	4370.19
722.919	4503.31
723.106	4353.81
723.293	4364.05
723.48	4456.21
723.667	4400.91
723.853	4321.04
724.04	4443.92
724.227	4368.15
724.414	4228.88
724.6	4269.84
724.787	4331.28
724.974	4292.37
725.161	4263.7
725.347	4151.06
725.534	4407.06
725.72	4183.83
725.907	4228.88
726.094	4167.45
726.28	4167.45
726.467	4415.25
726.653	4181.78
726.84	4179.73
727.027	4194.07
727.213	4132.63
727.4	4146.97
727.586	4179.73
727.773	4161.3
727.959	3954.46
728.145	4132.63
728.332	4048.66
728.518	4099.86
728.705	4212.5
728.891	3974.94
729.077	3983.13
729.264	4042.52
729.45	3979.03
729.636	3981.08
729.823	3979.03
730.009	4011.8
730.195	4001.56
730.382	4081.43
730.568	3983.13
730.754	4146.97
730.94	3901.21
731.126	4003.61
731.313	3933.98
731.499	3784.48
731.685	3800.86
731.871	3872.54
732.057	3938.07
732.243	3882.78
732.429	3880.73
732.615	3925.79
732.801	3700.51
732.987	3829.53
733.173	3837.72
733.359	3858.2
733.545	3723.04
733.731	3792.67
733.917	3759.9
734.103	3788.57
734.289	3778.33
734.475	3626.78
734.661	3782.43
734.847	3710.75
735.033	3657.5
735.219	3675.93
735.404	3858.2
735.59	3741.47
735.776	3583.77
735.962	3720.99
736.148	3731.23
736.333	3663.65
736.519	3598.11
736.705	3612.45
736.89	3589.92
737.076	3626.78
737.262	3493.66
737.447	3530.53
737.633	3637.02
737.819	3583.77
738.004	3530.53
738.19	3485.47
738.375	3358.5
738.561	3378.98
738.747	3436.32
738.932	3331.87
739.118	3473.18
739.303	3399.46
739.489	3378.98
739.674	3381.03
739.859	3419.94
740.045	3436.32
740.23	3215.14
740.416	3186.47
740.601	3323.68
740.786	3342.11
740.972	3229.48
741.157	3344.16
741.342	3217.19
741.528	3223.33
741.713	3286.82
741.898	3190.56
742.084	3192.61
742.269	3106.6
742.454	3161.89
742.639	3159.85
742.824	3043.11
743.01	3137.32
743.195	3122.98
743.38	3118.89
743.565	3274.53
743.75	3114.79
743.935	3041.06
744.12	3211.04
744.305	2934.57
744.49	2955.05
744.675	2928.42
744.86	2836.27
745.045	2828.07
745.23	2944.81
745.415	2862.89
745.6	2944.81
745.785	2799.4
745.97	2991.91
746.155	2819.88
746.34	2811.69
746.525	2912.04
746.71	2903.85
746.895	2709.29
747.079	2658.09
747.264	2742.06
747.449	2672.43
747.634	2754.35
747.819	2699.05
748.003	2697
748.188	2684.72
748.373	2645.8
748.557	2666.28
748.742	2484.02
748.927	2584.37
749.111	2561.84
749.296	2625.33
749.481	2559.79
749.665	2613.04
749.85	2445.1
750.034	2529.07
750.219	2479.92
750.404	2473.78
750.588	2459.44
750.773	2336.56
750.957	2420.53
751.141	2422.58
751.326	2348.85
751.51	2314.03
751.695	2203.44
751.879	2342.71
752.064	2357.04
752.248	2309.94
752.432	2443.06
752.617	2185.01
752.801	2250.55
752.985	2135.86
753.17	2266.93
753.354	2174.77
753.538	2289.46
753.722	2170.68
753.907	2133.81
754.091	2164.53
754.275	2189.11
754.459	2082.61
754.643	2176.82
754.828	2127.67
755.012	2133.81
755.196	1978.17
755.38	1974.07
755.564	2094.9
755.748	1972.02
755.932	1986.36
756.116	2012.98
756.3	1982.26
756.484	1939.26
756.668	1961.78
756.852	1851.19
757.036	1875.77
757.22	1898.3
757.404	1824.57
757.588	1912.63
757.772	1910.58
757.956	1793.85
758.14	1906.49
758.323	1785.66
758.507	1855.29
758.691	1785.66
758.875	1879.86
759.059	1877.82
759.242	1828.67
759.426	1713.98
759.61	1769.27
759.794	1726.27
759.977	1775.42
760.161	1791.8
760.345	1744.7
760.528	1810.23
760.712	1740.6
760.895	1726.27
761.079	1752.89
761.263	1681.21
761.446	1683.26
761.63	1654.59
761.813	1636.16
761.997	1664.83
762.18	1580.86
762.364	1529.66
762.547	1529.66
762.731	1587.01
762.914	1638.2
763.098	1578.81
763.281	1470.27
763.464	1587.01
763.648	1535.81
763.831	1664.83
764.015	1648.44
764.198	1627.96
764.381	1578.81
764.564	1507.13
764.748	1492.8
764.931	1535.81
765.114	1566.53
765.297	1544
765.481	1419.07
765.664	1541.95
765.847	1523.52
766.03	1531.71
766.213	1494.85
766.397	1345.34
766.58	1412.93
766.763	1421.12
766.946	1558.33
767.129	1425.22
767.312	1353.54
767.495	1396.54
767.678	1339.2
767.861	1404.74
768.044	1394.5
768.227	1365.82
768.41	1498.94
768.593	1421.12
768.776	1357.63
768.959	1349.44
769.142	1371.97
769.324	1445.7
769.507	1347.39
769.69	1392.45
769.873	1355.58
770.056	1427.26
770.239	1355.58
770.421	1380.16
770.604	1343.3
770.787	1453.89
770.97	1384.26
771.152	1212.23
771.335	1288
771.518	1236.8
771.7	1468.22
771.883	1304.39
772.066	1349.44
772.248	1265.47
772.431	1402.69
772.613	1341.25
772.796	1316.67
772.978	1226.56
773.161	1277.76
773.343	1216.32
773.526	1181.51
773.708	1165.12
773.891	1214.27
774.073	1288
774.256	1107.78
774.438	1261.38
774.621	1140.55
774.803	1183.56
774.985	1212.23
775.168	1234.75
775.35	1179.46
775.532	1095.49
775.715	1115.97
775.897	1150.79
776.079	1058.63
776.261	1107.78
776.444	1085.25
776.626	1077.06
776.808	1107.78
776.99	1113.92
777.173	1103.68
777.355	1099.59
777.537	1052.49
777.719	1079.11
777.901	1062.73
778.083	1072.96
778.265	1060.68
778.447	1058.63
778.629	999.24
778.811	976.71
778.993	1115.97
779.175	1023.81
779.357	1042.25
779.539	907.08
779.721	958.28
779.903	982.85
780.085	984.9
780.267	902.98
780.449	1040.2
780.631	970.57
780.812	1038.15
780.994	976.71
781.176	995.14
781.358	907.08
781.54	902.98
781.721	937.8
781.903	905.03
782.085	872.26
782.267	960.33
782.448	839.5
782.63	898.89
782.812	862.02
782.993	868.17
783.175	841.54
783.357	825.16
783.538	837.45
783.72	730.95
783.901	728.91
784.083	794.44
784.264	753.48
784.446	704.33
784.627	780.11
784.809	833.35
784.99	800.59
785.172	749.39
785.353	673.61
785.535	769.87
785.716	689.99
785.897	683.85
786.079	790.35
786.26	700.23
786.441	692.04
786.623	714.57
786.804	659.28
786.985	665.42
787.167	706.38
787.348	706.38
787.529	681.8
787.71	806.73
787.891	657.23
788.073	651.08
788.254	669.52
788.435	653.13
788.616	718.67
788.797	618.32
788.978	534.35
789.159	599.88
789.34	706.38
789.522	550.73
789.703	597.84
789.884	649.04
790.065	649.04
790.246	620.36
790.427	636.75
790.607	634.7
790.788	558.92
790.969	577.36
791.15	591.69
791.331	558.92
791.512	579.4
791.693	526.16
791.874	610.12
792.054	571.21
792.235	597.84
792.416	474.96
792.597	530.25
792.778	595.79
792.958	554.83
793.139	489.29
793.32	513.87
793.5	474.96
793.681	503.63
793.862	499.53
794.042	495.44
794.223	511.82
794.404	466.77
794.584	415.57
794.765	479.05
794.945	438.09
795.126	520.01
795.306	536.4
795.487	495.44
795.667	458.57
795.848	528.21
796.028	395.09
796.209	546.64
796.389	536.4
796.57	493.39
796.75	384.85
796.93	434
797.111	458.57
797.291	436.05
797.471	520.01
797.652	493.39
797.832	446.29
798.012	454.48
798.192	350.03
798.373	345.94
798.553	370.51
798.733	417.61
798.913	474.96
799.093	425.81
799.274	397.14
799.454	401.23
799.634	442.19
799.814	438.09
799.994	403.28
800.174	409.42
800.354	458.57
800.534	343.89
800.714	470.86
800.894	288.59
801.074	366.42
801.254	370.51
801.434	481.1
801.614	388.94
801.794	331.6
801.974	1312.58
802.154	395.09
802.334	405.33
802.514	411.47
802.693	362.32
802.873	264.02
803.053	341.84
803.233	431.95
803.413	307.02
803.592	282.45
803.772	352.08
803.952	429.9
804.131	352.08
804.311	390.99
804.491	362.32
804.67	370.51
804.85	335.7
805.03	364.37
805.209	292.69
805.389	376.66
805.568	329.55
805.748	268.11
805.928	311.12
806.107	282.45
806.287	302.93
806.466	304.98
806.646	237.39
806.825	325.46
807.004	237.39
807.184	436.05
807.363	333.65
807.543	296.78
807.722	300.88
807.901	393.04
808.081	294.74
808.26	208.72
808.439	274.26
808.619	206.67
808.798	282.45
808.977	311.12
809.156	325.46
809.336	257.87
809.515	280.4
809.694	233.3
809.873	241.49
810.052	327.5
810.231	339.79
810.411	239.44
810.59	266.07
810.769	270.16
810.948	274.26
811.127	300.88
811.306	247.63
811.485	261.97
811.664	403.28
811.843	223.06
812.022	216.91
812.201	243.54
812.38	180.05
812.559	323.41
812.737	274.26
812.916	175.95
813.095	227.15
813.274	233.3
813.453	223.06
813.632	218.96
813.811	274.26
813.989	206.67
814.168	300.88
814.347	169.81
814.526	261.97
814.704	286.54
814.883	302.93
815.062	175.95
815.24	241.49
815.419	221.01
815.598	266.07
815.776	159.57
815.955	251.73
816.133	141.14
816.312	214.87
816.49	214.87
816.669	128.85
816.847	157.52
817.026	194.39
817.204	130.9
817.383	241.49
817.561	169.81
817.74	169.81
817.918	237.39
818.097	188.24
818.275	159.57
818.453	239.44
818.632	135
818.81	259.92
818.988	153.43
819.167	151.38
819.345	190.29
819.523	159.57
819.701	227.15
819.879	196.43
820.058	167.76
820.236	208.72
820.414	196.43
820.592	192.34
820.77	255.83
820.948	218.96
821.127	120.66
821.305	251.73
821.483	175.95
821.661	190.29
821.839	169.81
822.017	196.43
822.195	135
822.373	192.34
822.551	167.76
822.729	227.15
822.907	145.24
823.085	128.85
823.262	188.24
823.44	171.86
823.618	124.76
823.796	163.67
823.974	188.24
824.152	89.94
824.329	114.52
824.507	200.53
824.685	261.97
824.863	85.84
825.04	182.1
825.218	202.58
825.396	202.58
825.574	124.76
825.751	112.47
825.929	198.48
826.107	155.47
826.284	216.91
826.462	165.71
826.639	149.33
826.817	139.09
826.994	100.18
827.172	135
827.349	192.34
827.527	126.8
827.704	167.76
827.882	173.91
828.059	159.57
828.237	77.65
828.414	128.85
828.591	135
828.769	128.85
828.946	69.46
829.124	200.53
829.301	163.67
829.478	165.71
829.655	188.24
829.833	167.76
830.01	85.84
830.187	108.37
830.364	110.42
830.542	100.18
830.719	171.86
830.896	157.52
831.073	145.24
831.25	96.08
831.427	163.67
831.604	108.37
831.782	126.8
831.959	173.91
832.136	151.38
832.313	81.75
832.49	110.42
832.667	71.51
832.844	81.75
833.021	173.91
833.198	20.31
833.374	128.85
833.551	122.71
833.728	114.52
833.905	59.22
834.082	12.12
834.259	169.81
834.436	204.63
834.612	96.08
834.789	175.95
834.966	182.1
835.143	59.22
835.319	65.36
835.496	91.99
835.673	128.85
835.85	214.87
836.026	157.52
836.203	165.71
836.38	94.04
836.556	89.94
836.733	87.89
836.909	159.57
837.086	51.03
837.262	51.03
837.439	108.37
837.616	-16.55
837.792	120.66
837.968	102.23
838.145	63.32
838.321	126.8
838.498	182.1
838.674	132.95
838.851	114.52
839.027	126.8
839.203	132.95
839.38	141.14
839.556	118.61
839.732	104.28
839.909	59.22
840.085	114.52
840.261	38.74
840.437	67.41
840.614	67.41
840.79	91.99
840.966	147.28
841.142	116.56
841.318	69.46
841.494	143.19
841.671	91.99
841.847	114.52
842.023	10.07
842.199	98.13
842.375	51.03
842.551	-12.46
842.727	-20.65
842.903	38.74
843.079	81.75
843.255	151.38
843.431	34.64
843.607	167.76
843.783	32.6
843.959	135
844.134	-12.46
844.31	169.81
844.486	14.17
844.662	75.6
844.838	34.64
845.013	87.89
845.189	149.33
845.365	83.8
845.541	63.32
845.716	42.84
845.892	159.57
846.068	71.51
846.244	79.7
846.419	44.88
846.595	-2.22
846.77	48.98
846.946	145.24
847.122	34.64
847.297	8.02
847.473	128.85
847.648	-51.37
847.824	100.18
847.999	14.17
848.175	65.36
848.35	-14.51
848.526	143.19
848.701	100.18
848.876	137.04
849.052	32.6
849.227	-26.79
849.403	69.46
849.578	40.79
849.753	67.41
849.929	42.84
850.104	34.64
850.279	44.88
850.454	59.22
850.63	83.8
850.805	69.46
850.98	67.41
851.155	87.89
851.33	116.56
851.505	1.88
851.681	173.91
851.856	100.18
852.031	40.79
852.206	65.36
852.381	38.74
852.556	67.41
852.731	81.75
852.906	106.32
853.081	91.99
853.256	-28.84
853.431	14.17
853.606	8.02
853.781	1.88
853.956	-61.61
854.131	51.03
854.305	71.51
854.48	44.88
854.655	8.02
854.83	-0.17
855.005	-0.17
855.18	44.88
855.354	-26.79
855.529	81.75
855.704	55.12
855.879	139.09
856.053	30.55
856.228	81.75
856.403	14.17
856.577	34.64
856.752	10.07
856.926	63.32
857.101	79.7
857.276	-2.22
857.45	38.74
857.625	65.36
857.799	-2.22
857.974	40.79
858.148	-71.85
858.323	46.93
858.497	1.88
858.672	-63.66
858.846	18.26
859.02	30.55
859.195	106.32
859.369	24.4
859.543	77.65
859.718	20.31
859.892	24.4
860.066	34.64
860.241	10.07
860.415	69.46
860.589	26.45
860.763	-6.31
860.938	71.51
861.112	12.12
861.286	46.93
861.46	40.79
861.634	-26.79
861.808	40.79
861.982	-20.65
862.157	75.6
862.331	65.36
862.505	3.93
862.679	-14.51
862.853	22.36
863.027	71.51
863.201	91.99
863.375	-26.79
863.549	65.36
863.722	-86.19
863.896	91.99
864.07	-37.03
864.244	65.36
864.418	61.27
864.592	75.6
864.766	22.36
864.939	-0.17
865.113	22.36
865.287	65.36
865.461	-37.03
865.634	28.5
865.808	-12.46
865.982	12.12
866.156	-59.56
866.329	-14.51
866.503	-12.46
866.676	59.22
866.85	46.93
867.024	34.64
867.197	16.21
867.371	3.93
867.544	22.36
867.718	-2.22
867.891	34.64
868.065	-20.65
868.238	44.88
868.412	16.21
868.585	59.22
868.759	-24.75
868.932	-4.27
869.105	32.6
869.279	44.88
869.452	-41.13
869.625	-0.17
869.799	79.7
869.972	44.88
870.145	-34.99
870.319	8.02
870.492	22.36
870.665	-59.56
870.838	-0.17
871.011	-39.08
871.185	26.45
871.358	40.79
871.531	173.91
871.704	14.17
871.877	-32.94
872.05	30.55
872.223	-45.23
872.396	-10.41
872.569	53.08
872.742	-24.75
872.915	89.94
873.088	-18.6
873.261	24.4
873.434	75.6
873.607	-30.89
873.78	120.66
873.953	-53.42
874.126	34.64
874.299	-2.22
874.471	-4.27
874.644	32.6
874.817	59.22
874.99	135
875.163	59.22
875.335	77.65
875.508	-37.03
875.681	-8.36
875.853	-8.36
876.026	38.74
876.199	16.21
876.371	-37.03
876.544	83.8
876.717	30.55
876.889	-34.99
877.062	42.84
877.234	-59.56
877.407	-8.36
877.579	42.84
877.752	-16.55
877.924	87.89
878.097	18.26
878.269	-12.46
878.442	-22.7
878.614	69.46
878.786	53.08
878.959	44.88
879.131	1.88
879.303	-28.84
879.476	14.17
879.648	85.84
879.82	36.69
879.993	-6.31
880.165	20.31
880.337	-4.27
880.509	63.32
880.681	-43.18
880.854	-45.23
881.026	57.17
881.198	73.56
881.37	40.79
881.542	28.5
881.714	-20.65
881.886	-22.7
882.058	71.51
882.23	32.6
882.402	30.55
882.574	-8.36
882.746	65.36
882.918	26.45
883.09	51.03
883.262	51.03
883.434	83.8
883.606	26.45
883.778	-55.47
883.95	122.71
884.122	20.31
884.293	26.45
884.465	-43.18
884.637	28.5
884.809	3.93
884.98	75.6
885.152	28.5
885.324	-49.32
885.496	24.4
885.667	-30.89
885.839	22.36
886.011	5.97
886.182	-12.46
886.354	24.4
886.525	26.45
886.697	83.8
886.869	20.31
887.04	-47.27
887.212	91.99
887.383	77.65
887.555	-6.31
887.726	-4.27
887.897	-4.27
888.069	-18.6
888.24	83.8
888.412	10.07
888.583	-37.03
888.754	-30.89
888.926	-63.66
889.097	14.17
889.268	-67.75
889.44	67.41
889.611	-63.66
889.782	-4.27
889.953	-37.03
890.125	-16.55
890.296	-12.46
890.467	20.31
890.638	-47.27
890.809	51.03
890.98	20.31
891.151	112.47
891.323	59.22
891.494	-22.7
891.665	71.51
891.836	-2.22
892.007	38.74
892.178	32.6
892.349	61.27
892.52	-43.18
892.691	5.97
892.862	3.93
893.032	-110.76
893.203	-12.46
893.374	46.93
893.545	30.55
893.716	69.46
893.887	-2.22
894.057	34.64
894.228	30.55
894.399	-4.27
894.57	108.37
894.74	-12.46
894.911	53.08
895.082	18.26
895.253	-2.22
895.423	24.4
895.594	12.12
895.764	73.56
895.935	22.36
896.106	14.17
896.276	-88.23
896.447	22.36
896.617	-71.85
896.788	-14.51
896.958	-28.84
897.129	-26.79
897.299	51.03
897.47	94.04
897.64	65.36
897.81	-2.22
897.981	3.93
898.151	16.21
898.322	14.17
898.492	65.36
898.662	-20.65
898.832	-4.27
899.003	8.02
899.173	28.5
899.343	-6.31
899.513	-41.13
