Data from USB4F104151__35__12-11-58-908.txt Node

Date: Fri Mar 14 12:11:58 EDT 2025
User: louis
Spectrometer: USB4F10415
Trigger mode: 4
Integration Time (sec): 5.000000E-2
Scans to average: 1
Electric dark correction enabled: true
Nonlinearity correction enabled: false
Boxcar width: 0
XAxis mode: Wavelengths
Number of Pixels in Spectrum: 3648
>>>>>Begin Spectral Data<<<<<
178.204	-208.72
178.424	-208.72
178.644	-208.72
178.864	-223.06
179.084	-161.62
179.304	0.17
179.524	51.37
179.744	-10.07
179.964	75.95
180.184	12.46
180.404	28.84
180.624	-36.69
180.844	-53.08
181.064	-75.6
181.283	26.79
181.503	-22.36
181.723	2.22
181.943	-63.32
182.163	151.72
182.383	102.57
182.602	84.14
182.822	94.38
183.042	-10.07
183.262	90.28
183.482	-24.4
183.701	65.71
183.921	75.95
184.141	-20.31
184.361	92.33
184.58	80.04
184.8	-18.26
185.02	-28.5
185.239	141.48
185.459	43.18
185.679	92.33
185.898	-40.79
186.118	170.15
186.338	22.7
186.557	157.86
186.777	34.99
186.997	28.84
187.216	71.85
187.436	141.48
187.655	26.79
187.875	69.8
188.095	59.56
188.314	14.51
188.534	147.62
188.753	43.18
188.973	116.9
189.192	123.05
189.412	84.14
189.631	-20.31
189.851	49.32
190.07	82.09
190.29	-18.26
190.509	61.61
190.729	20.65
190.948	133.29
191.168	299.17
191.387	41.13
191.607	10.41
191.826	20.65
192.045	28.84
192.265	8.36
192.484	28.84
192.704	49.32
192.923	32.94
193.142	180.39
193.362	37.03
193.581	75.95
193.8	86.19
194.02	112.81
194.239	53.42
194.458	47.27
194.678	69.8
194.897	26.79
195.116	80.04
195.335	26.79
195.555	82.09
195.774	30.89
195.993	65.71
196.212	-3.93
196.432	57.51
196.651	71.85
196.87	88.23
197.089	194.73
197.308	55.47
197.528	102.57
197.747	32.94
197.966	45.23
198.185	155.82
198.404	55.47
198.623	53.42
198.842	-5.97
199.062	55.47
199.281	49.32
199.5	51.37
199.719	67.75
199.938	39.08
200.157	110.76
200.376	121
200.595	102.57
200.814	90.28
201.033	24.75
201.252	67.75
201.471	41.13
201.69	71.85
201.909	-36.69
202.128	2.22
202.347	135.34
202.566	71.85
202.785	53.42
203.004	18.6
203.223	143.53
203.442	6.31
203.661	-30.55
203.879	69.8
204.098	53.42
204.317	22.7
204.536	92.33
204.755	63.66
204.974	94.38
205.193	84.14
205.411	108.71
205.63	53.42
205.849	123.05
206.068	20.65
206.287	16.55
206.505	71.85
206.724	41.13
206.943	69.8
207.162	28.84
207.381	69.8
207.599	-40.79
207.818	22.7
208.037	34.99
208.255	28.84
208.474	-16.21
208.693	61.61
208.911	65.71
209.13	129.19
209.349	-8.02
209.567	80.04
209.786	133.29
210.005	159.91
210.223	102.57
210.442	-32.6
210.661	53.42
210.879	57.51
211.098	71.85
211.316	121
211.535	123.05
211.753	-32.6
211.972	10.41
212.191	30.89
212.409	71.85
212.628	59.56
212.846	-1.88
213.065	84.14
213.283	135.34
213.502	43.18
213.72	-14.17
213.938	55.47
214.157	45.23
214.375	61.61
214.594	24.75
214.812	26.79
215.031	90.28
215.249	12.46
215.467	90.28
215.686	53.42
215.904	12.46
216.122	71.85
216.341	116.9
216.559	-5.97
216.778	123.05
216.996	57.51
217.214	121
217.432	16.55
217.651	2.22
217.869	10.41
218.087	6.31
218.306	34.99
218.524	53.42
218.742	59.56
218.96	102.57
219.179	32.94
219.397	80.04
219.615	141.48
219.833	94.38
220.051	59.56
220.27	116.9
220.488	57.51
220.706	2.22
220.924	18.6
221.142	0.17
221.36	94.38
221.578	45.23
221.796	8.36
222.015	80.04
222.233	18.6
222.451	112.81
222.669	-57.17
222.887	123.05
223.105	-5.97
223.323	43.18
223.541	45.23
223.759	39.08
223.977	57.51
224.195	161.96
224.413	2.22
224.631	100.52
224.849	41.13
225.067	75.95
225.285	16.55
225.503	-10.07
225.721	39.08
225.939	73.9
226.157	-22.36
226.375	129.19
226.592	-1.88
226.81	26.79
227.028	127.14
227.246	94.38
227.464	61.61
227.682	53.42
227.9	2.22
228.117	51.37
228.335	90.28
228.553	61.61
228.771	53.42
228.989	4.27
229.206	73.9
229.424	-1.88
229.642	100.52
229.86	32.94
230.077	65.71
230.295	77.99
230.513	168.1
230.731	28.84
230.948	127.14
231.166	59.56
231.384	37.03
231.601	59.56
231.819	94.38
232.037	41.13
232.254	0.17
232.472	8.36
232.689	28.84
232.907	51.37
233.125	2.22
233.342	26.79
233.56	49.32
233.777	-55.12
233.995	30.89
234.213	47.27
234.43	69.8
234.648	6.31
234.865	32.94
235.083	53.42
235.3	82.09
235.518	45.23
235.735	75.95
235.953	153.77
236.17	26.79
236.388	-44.88
236.605	73.9
236.822	12.46
237.04	129.19
237.257	4.27
237.475	-1.88
237.692	20.65
237.909	32.94
238.127	24.75
238.344	18.6
238.562	43.18
238.779	37.03
238.996	-24.4
239.214	49.32
239.431	102.57
239.648	-10.07
239.865	14.51
240.083	59.56
240.3	-30.55
240.517	-3.93
240.735	14.51
240.952	114.86
241.169	75.95
241.386	94.38
241.603	-3.93
241.821	-28.5
242.038	86.19
242.255	63.66
242.472	-1.88
242.689	96.43
242.907	65.71
243.124	39.08
243.341	90.28
243.558	10.41
243.775	-67.41
243.992	14.51
244.209	65.71
244.426	168.1
244.643	141.48
244.86	-28.5
245.078	2.22
245.295	71.85
245.512	-20.31
245.729	-22.36
245.946	14.51
246.163	82.09
246.38	-28.5
246.597	47.27
246.814	51.37
247.031	73.9
247.248	51.37
247.464	18.6
247.681	63.66
247.898	131.24
248.115	34.99
248.332	-28.5
248.549	53.42
248.766	123.05
248.983	59.56
249.2	69.8
249.417	49.32
249.633	-22.36
249.85	75.95
250.067	18.6
250.284	82.09
250.501	123.05
250.717	127.14
250.934	26.79
251.151	59.56
251.368	92.33
251.585	116.9
251.801	14.51
252.018	4.27
252.235	170.15
252.451	-32.6
252.668	45.23
252.885	98.47
253.102	49.32
253.318	14.51
253.535	2.22
253.752	-40.79
253.968	18.6
254.185	88.23
254.401	30.89
254.618	26.79
254.835	71.85
255.051	135.34
255.268	6.31
255.484	51.37
255.701	41.13
255.917	102.57
256.134	2.22
256.351	6.31
256.567	-8.02
256.784	6.31
257	-5.97
257.217	96.43
257.433	55.47
257.65	49.32
257.866	121
258.082	20.65
258.299	-12.12
258.515	-3.93
258.732	2.22
258.948	12.46
259.165	55.47
259.381	-61.27
259.597	34.99
259.814	43.18
260.03	82.09
260.246	71.85
260.463	114.86
260.679	94.38
260.895	90.28
261.112	57.51
261.328	20.65
261.544	49.32
261.761	88.23
261.977	-38.74
262.193	-22.36
262.409	22.7
262.626	49.32
262.842	30.89
263.058	-16.21
263.274	106.67
263.49	30.89
263.707	92.33
263.923	67.75
264.139	24.75
264.355	16.55
264.571	57.51
264.787	32.94
265.004	110.76
265.22	51.37
265.436	69.8
265.652	14.51
265.868	49.32
266.084	-20.31
266.3	59.56
266.516	-5.97
266.732	82.09
266.948	143.53
267.164	82.09
267.38	10.41
267.596	18.6
267.812	131.24
268.028	67.75
268.244	30.89
268.46	14.51
268.676	-1.88
268.892	-1.88
269.108	-63.32
269.324	92.33
269.54	-18.26
269.756	16.55
269.972	-44.88
270.188	75.95
270.403	67.75
270.619	6.31
270.835	26.79
271.051	34.99
271.267	37.03
271.483	-18.26
271.698	55.47
271.914	94.38
272.13	88.23
272.346	80.04
272.562	71.85
272.777	39.08
272.993	47.27
273.209	51.37
273.425	49.32
273.64	20.65
273.856	141.48
274.072	-28.5
274.287	96.43
274.503	24.75
274.719	135.34
274.934	55.47
275.15	41.13
275.366	65.71
275.581	2.22
275.797	127.14
276.012	86.19
276.228	39.08
276.444	-5.97
276.659	24.75
276.875	-22.36
277.09	63.66
277.306	-10.07
277.521	51.37
277.737	57.51
277.952	80.04
278.168	65.71
278.383	51.37
278.599	2.22
278.814	94.38
279.03	67.75
279.245	12.46
279.461	18.6
279.676	118.95
279.892	-38.74
280.107	-36.69
280.322	0.17
280.538	67.75
280.753	41.13
280.969	45.23
281.184	34.99
281.399	118.95
281.615	94.38
281.83	75.95
282.045	-34.64
282.26	10.41
282.476	12.46
282.691	37.03
282.906	92.33
283.122	84.14
283.337	0.17
283.552	82.09
283.767	65.71
283.983	18.6
284.198	6.31
284.413	34.99
284.628	32.94
284.843	84.14
285.058	-5.97
285.274	28.84
285.489	63.66
285.704	34.99
285.919	88.23
286.134	75.95
286.349	8.36
286.564	41.13
286.779	71.85
286.995	-8.02
287.21	-12.12
287.425	49.32
287.64	34.99
287.855	43.18
288.07	-30.55
288.285	96.43
288.5	137.38
288.715	116.9
288.93	45.23
289.145	30.89
289.36	135.34
289.575	20.65
289.79	88.23
290.004	-20.31
290.219	59.56
290.434	67.75
290.649	-36.69
290.864	61.61
291.079	20.65
291.294	67.75
291.509	28.84
291.724	18.6
291.938	59.56
292.153	110.76
292.368	59.56
292.583	49.32
292.798	104.62
293.012	51.37
293.227	30.89
293.442	57.51
293.657	47.27
293.871	161.96
294.086	-1.88
294.301	133.29
294.516	84.14
294.73	133.29
294.945	-44.88
295.16	118.95
295.374	104.62
295.589	92.33
295.804	-34.64
296.018	59.56
296.233	75.95
296.447	45.23
296.662	10.41
296.877	129.19
297.091	94.38
297.306	84.14
297.52	43.18
297.735	67.75
297.949	65.71
298.164	26.79
298.378	82.09
298.593	-18.26
298.807	-14.17
299.022	67.75
299.236	92.33
299.451	14.51
299.665	80.04
299.88	45.23
300.094	10.41
300.309	18.6
300.523	43.18
300.737	47.27
300.952	0.17
301.166	24.75
301.381	18.6
301.595	86.19
301.809	65.71
302.024	118.95
302.238	30.89
302.452	94.38
302.667	39.08
302.881	90.28
303.095	37.03
303.309	57.51
303.524	8.36
303.738	-3.93
303.952	14.51
304.166	49.32
304.381	37.03
304.595	80.04
304.809	-57.17
305.023	84.14
305.237	18.6
305.452	26.79
305.666	100.52
305.88	133.29
306.094	112.81
306.308	49.32
306.522	98.47
306.736	164.01
306.95	96.43
307.164	102.57
307.379	6.31
307.593	135.34
307.807	18.6
308.021	135.34
308.235	0.17
308.449	34.99
308.663	96.43
308.877	102.57
309.091	41.13
309.305	73.9
309.519	-14.17
309.733	168.1
309.947	10.41
310.161	10.41
310.374	57.51
310.588	110.76
310.802	47.27
311.016	-28.5
311.23	63.66
311.444	32.94
311.658	16.55
311.872	94.38
312.085	43.18
312.299	45.23
312.513	51.37
312.727	43.18
312.941	-5.97
313.154	-16.21
313.368	104.62
313.582	63.66
313.796	63.66
314.009	53.42
314.223	75.95
314.437	102.57
314.651	47.27
314.864	53.42
315.078	-28.5
315.292	4.27
315.505	10.41
315.719	71.85
315.933	90.28
316.146	45.23
316.36	-10.07
316.573	118.95
316.787	88.23
317.001	84.14
317.214	-46.93
317.428	43.18
317.641	-32.6
317.855	77.99
318.068	16.55
318.282	-5.97
318.495	84.14
318.709	67.75
318.922	94.38
319.136	63.66
319.349	106.67
319.563	47.27
319.776	106.67
319.99	-16.21
320.203	114.86
320.417	92.33
320.63	102.57
320.843	104.62
321.057	86.19
321.27	59.56
321.483	24.75
321.697	123.05
321.91	71.85
322.124	100.52
322.337	45.23
322.55	34.99
322.763	43.18
322.977	-24.4
323.19	26.79
323.403	8.36
323.617	94.38
323.83	84.14
324.043	41.13
324.256	51.37
324.469	69.8
324.683	80.04
324.896	135.34
325.109	8.36
325.322	-57.17
325.535	-14.17
325.748	20.65
325.962	96.43
326.175	41.13
326.388	73.9
326.601	49.32
326.814	67.75
327.027	61.61
327.24	100.52
327.453	-32.6
327.666	90.28
327.879	94.38
328.092	114.86
328.305	100.52
328.518	69.8
328.731	63.66
328.944	53.42
329.157	75.95
329.37	80.04
329.583	92.33
329.796	88.23
330.009	61.61
330.222	145.58
330.435	127.14
330.648	94.38
330.861	32.94
331.073	34.99
331.286	88.23
331.499	92.33
331.712	43.18
331.925	28.84
332.138	30.89
332.35	8.36
332.563	49.32
332.776	98.47
332.989	61.61
333.202	28.84
333.414	67.75
333.627	41.13
333.84	43.18
334.053	102.57
334.265	32.94
334.478	14.51
334.691	28.84
334.903	-36.69
335.116	-61.27
335.329	20.65
335.541	86.19
335.754	82.09
335.966	41.13
336.179	71.85
336.392	28.84
336.604	69.8
336.817	63.66
337.029	69.8
337.242	45.23
337.454	37.03
337.667	77.99
337.88	67.75
338.092	73.9
338.305	127.14
338.517	10.41
338.729	57.51
338.942	112.81
339.154	4.27
339.367	-36.69
339.579	24.75
339.792	43.18
340.004	45.23
340.217	75.95
340.429	90.28
340.641	6.31
340.854	-26.45
341.066	24.75
341.278	118.95
341.491	133.29
341.703	26.79
341.915	-12.12
342.128	59.56
342.34	96.43
342.552	-26.45
342.764	65.71
342.977	-24.4
343.189	47.27
343.401	118.95
343.613	-38.74
343.826	92.33
344.038	18.6
344.25	108.71
344.462	59.56
344.674	32.94
344.886	-5.97
345.099	59.56
345.311	22.7
345.523	102.57
345.735	6.31
345.947	104.62
346.159	24.75
346.371	88.23
346.583	-81.75
346.795	121
347.007	65.71
347.219	112.81
347.431	39.08
347.643	61.61
347.855	82.09
348.067	116.9
348.279	24.75
348.491	18.6
348.703	102.57
348.915	118.95
349.127	24.75
349.339	98.47
349.551	-22.36
349.763	94.38
349.975	47.27
350.187	92.33
350.399	145.58
350.61	100.52
350.822	14.51
351.034	32.94
351.246	98.47
351.458	28.84
351.669	-5.97
351.881	94.38
352.093	59.56
352.305	121
352.517	116.9
352.728	43.18
352.94	51.37
353.152	45.23
353.363	-14.17
353.575	20.65
353.787	153.77
353.999	118.95
354.21	112.81
354.422	20.65
354.633	49.32
354.845	90.28
355.057	57.51
355.268	131.24
355.48	110.76
355.692	57.51
355.903	41.13
356.115	10.41
356.326	-53.08
356.538	121
356.749	106.67
356.961	86.19
357.172	24.75
357.384	57.51
357.595	180.39
357.807	12.46
358.018	41.13
358.23	47.27
358.441	110.76
358.653	-5.97
358.864	123.05
359.075	-14.17
359.287	131.24
359.498	63.66
359.709	137.38
359.921	92.33
360.132	110.76
360.344	69.8
360.555	30.89
360.766	123.05
360.977	-12.12
361.189	100.52
361.4	59.56
361.611	127.14
361.823	98.47
362.034	94.38
362.245	39.08
362.456	88.23
362.667	157.86
362.879	63.66
363.09	24.75
363.301	49.32
363.512	94.38
363.723	14.51
363.935	53.42
364.146	53.42
364.357	55.47
364.568	108.71
364.779	-38.74
364.99	73.9
365.201	4.27
365.412	77.99
365.623	22.7
365.834	86.19
366.045	86.19
366.256	127.14
366.467	34.99
366.678	100.52
366.889	69.8
367.1	86.19
367.311	96.43
367.522	65.71
367.733	69.8
367.944	164.01
368.155	45.23
368.366	47.27
368.577	129.19
368.788	161.96
368.999	2.22
369.209	10.41
369.42	153.77
369.631	133.29
369.842	73.9
370.053	-22.36
370.264	90.28
370.474	2.22
370.685	51.37
370.896	55.47
371.107	168.1
371.317	133.29
371.528	88.23
371.739	39.08
371.95	59.56
372.16	143.53
372.371	20.65
372.582	-28.5
372.792	129.19
373.003	133.29
373.214	65.71
373.424	92.33
373.635	84.14
373.846	61.61
374.056	53.42
374.267	26.79
374.477	69.8
374.688	118.95
374.898	73.9
375.109	45.23
375.319	114.86
375.53	106.67
375.74	106.67
375.951	51.37
376.161	118.95
376.372	123.05
376.582	10.41
376.793	67.75
377.003	75.95
377.214	22.7
377.424	141.48
377.635	30.89
377.845	-28.5
378.055	116.9
378.266	20.65
378.476	30.89
378.686	86.19
378.897	-20.31
379.107	108.71
379.317	98.47
379.528	127.14
379.738	137.38
379.948	26.79
380.158	100.52
380.369	28.84
380.579	94.38
380.789	41.13
380.999	24.75
381.21	147.62
381.42	137.38
381.63	55.47
381.84	43.18
382.05	94.38
382.261	125.1
382.471	84.14
382.681	45.23
382.891	157.86
383.101	82.09
383.311	-5.97
383.521	-38.74
383.731	82.09
383.941	104.62
384.151	102.57
384.361	37.03
384.571	114.86
384.781	77.99
384.991	127.14
385.201	149.67
385.411	125.1
385.621	133.29
385.831	100.52
386.041	47.27
386.251	88.23
386.461	92.33
386.671	104.62
386.881	71.85
387.091	32.94
387.301	45.23
387.511	121
387.72	121
387.93	121
388.14	28.84
388.35	47.27
388.56	180.39
388.769	145.58
388.979	106.67
389.189	82.09
389.399	26.79
389.609	121
389.818	98.47
390.028	102.57
390.238	96.43
390.447	18.6
390.657	116.9
390.867	92.33
391.076	-12.12
391.286	96.43
391.496	30.89
391.705	43.18
391.915	151.72
392.125	94.38
392.334	57.51
392.544	139.43
392.753	94.38
392.963	114.86
393.172	41.13
393.382	-8.02
393.591	157.86
393.801	110.76
394.01	149.67
394.22	63.66
394.429	102.57
394.639	116.9
394.848	98.47
395.058	174.25
395.267	112.81
395.477	59.56
395.686	90.28
395.895	227.5
396.105	209.06
396.314	57.51
396.524	63.66
396.733	84.14
396.942	153.77
397.152	108.71
397.361	143.53
397.57	75.95
397.78	12.46
397.989	168.1
398.198	237.74
398.407	182.44
398.617	59.56
398.826	61.61
399.035	127.14
399.244	213.16
399.453	110.76
399.663	133.29
399.872	100.52
400.081	96.43
400.29	161.96
400.499	82.09
400.708	127.14
400.917	96.43
401.127	112.81
401.336	123.05
401.545	174.25
401.754	164.01
401.963	151.72
402.172	145.58
402.381	170.15
402.59	127.14
402.799	176.3
403.008	190.63
403.217	133.29
403.426	100.52
403.635	37.03
403.844	90.28
404.053	166.06
404.262	202.92
404.471	256.17
404.68	157.86
404.888	190.63
405.097	219.3
405.306	166.06
405.515	227.5
405.724	213.16
405.933	260.26
406.142	207.02
406.35	229.54
406.559	250.02
406.768	196.78
406.977	344.23
407.185	211.11
407.394	225.45
407.603	133.29
407.812	243.88
408.02	276.65
408.229	180.39
408.438	336.04
408.646	223.4
408.855	280.74
409.064	317.61
409.272	331.94
409.481	258.21
409.69	233.64
409.898	307.37
410.107	389.28
410.315	428.2
410.524	405.67
410.733	331.94
410.941	352.42
411.15	415.91
411.358	444.58
411.567	424.1
411.775	454.82
411.984	407.72
412.192	506.02
412.401	510.11
412.609	499.88
412.818	573.6
413.026	534.69
413.234	430.24
413.443	600.23
413.651	589.99
413.86	653.47
414.068	665.76
414.276	653.47
414.485	667.81
414.693	653.47
414.901	749.73
415.11	747.68
415.318	698.53
415.526	733.34
415.734	809.12
415.943	798.88
416.151	911.52
416.359	850.08
416.567	895.13
416.776	975
416.984	993.44
417.192	1050.78
417.4	1024.16
417.608	1058.97
417.817	1110.17
418.025	1132.7
418.233	1300.63
418.441	1202.33
418.649	1222.81
418.857	1267.86
419.065	1398.93
419.273	1353.88
419.481	1435.8
419.689	1437.84
419.897	1515.67
420.105	1491.09
420.313	1566.87
420.521	1673.36
420.729	1661.07
420.937	1714.32
421.145	1849.49
421.353	1902.73
421.561	1925.26
421.769	2031.76
421.977	2140.3
422.185	2207.88
422.393	2107.53
422.601	2367.62
422.809	2300.04
423.017	2328.71
423.224	2519.17
423.432	2642.05
423.64	2406.53
423.848	2734.21
424.056	2752.64
424.263	2936.96
424.471	2893.95
424.679	2975.87
424.887	3154.04
425.094	3231.87
425.302	3313.78
425.51	3188.86
425.718	3407.99
425.925	3475.57
426.133	3641.46
426.341	3862.64
426.548	3993.71
426.756	3928.17
426.964	4036.72
427.171	4163.69
427.379	4384.87
427.586	4479.08
427.794	4706.4
428.001	4911.2
428.209	5079.13
428.417	4978.78
428.624	5132.38
428.832	5263.45
429.039	5181.53
429.247	5199.96
429.454	5732.44
429.662	6203.47
429.869	5736.53
430.076	6058.06
430.284	5910.61
430.491	6107.21
430.699	6660.17
430.906	6615.11
431.114	6701.12
431.321	7018.56
431.528	7108.67
431.736	7475.26
431.943	7931.95
432.15	7616.57
432.358	7563.32
432.565	8241.2
432.772	8198.19
432.979	8454.19
433.187	8634.41
433.394	8693.8
433.601	9189.41
433.808	9343
434.016	9205.79
434.223	9631.77
434.43	10082.32
434.637	9848.85
434.844	10434.57
435.052	10805.25
435.259	10637.32
435.466	10905.6
435.673	10655.75
435.88	11388.92
436.087	12210.16
436.294	11876.34
436.501	11632.63
436.708	12021.75
436.915	12298.22
437.122	13023.2
437.329	13031.4
437.537	13137.89
437.743	13508.57
437.95	13352.93
438.157	14008.28
438.364	14661.58
438.571	14477.26
438.778	14647.24
438.985	15720.38
439.192	15128.52
439.399	15808.44
439.606	15400.9
439.813	16445.36
440.02	17096.61
440.227	17047.46
440.433	16934.82
440.64	17491.87
440.847	17450.91
441.054	17584.03
441.261	18798.48
441.467	18575.25
441.674	18931.59
441.881	19804.03
442.088	19521.41
442.294	19400.58
442.501	20047.74
442.708	20547.44
442.914	21253.99
443.121	21909.34
443.328	21624.67
443.534	22912.85
443.741	22300.5
443.948	22130.52
444.154	23605.06
444.361	23609.15
444.568	23850.81
444.774	23940.93
444.981	24112.95
445.187	24801.07
445.394	25913.12
445.6	25501.48
445.807	28194.56
446.013	26824.47
446.22	27254.54
446.426	28811
446.633	28466.94
446.839	29724.39
447.046	28452.6
447.252	29953.76
447.459	29863.65
447.665	29871.84
447.871	31258.32
448.078	32421.56
448.284	30582.49
448.491	31852.23
448.697	32941.75
448.903	33773.22
449.11	34033.32
449.316	33273.52
449.522	33742.5
449.728	34918.04
449.935	34782.87
450.141	34719.38
450.347	35503.76
450.553	34360.99
450.76	34743.96
450.966	35772.04
451.172	35913.35
451.378	36730.49
451.584	36259.46
451.791	36767.35
451.997	36685.43
452.203	37381.74
452.409	37525.1
452.615	36890.23
452.821	35491.47
453.027	35298.96
453.233	37314.16
453.44	35544.72
453.646	36591.23
453.852	36365.95
454.058	37006.97
454.264	36009.61
454.47	36216.45
454.676	35899.01
454.882	36816.5
455.088	33900.2
455.294	34324.13
455.5	34662.04
455.705	35202.71
455.911	33834.66
456.117	33105.59
456.323	32571.07
456.529	30897.88
456.735	32050.88
456.941	31395.53
457.147	30775
457.352	30166.75
457.558	29837.03
457.764	29861.6
457.97	29271.79
458.176	28710.64
458.381	28299
458.587	27348.75
458.793	27389.7
458.999	25622.31
459.204	27608.84
459.41	27053.84
459.616	25132.84
459.821	25372.46
460.027	25145.13
460.233	24641.33
460.438	23066.44
460.644	23611.2
460.85	22431.57
461.055	22198.1
461.261	22245.21
461.466	20203.38
461.672	19490.69
461.878	21546.85
462.083	19765.12
462.289	19500.93
462.494	19269.51
462.7	18558.86
462.905	17766.3
463.111	18585.49
463.316	18614.16
463.522	18161.56
463.727	18229.14
463.932	18171.8
464.138	17991.58
464.343	17858.46
464.549	17684.38
464.754	18356.11
464.959	18040.73
465.165	17885.08
465.37	17045.41
465.575	16750.51
465.781	17502.11
465.986	17633.18
466.191	16725.93
466.397	16119.73
466.602	15607.74
466.807	16152.5
467.012	16336.82
467.218	16187.32
467.423	16066.49
467.628	16035.77
467.833	16525.23
468.038	16232.37
468.244	15687.61
468.449	16041.91
468.654	15888.31
468.859	15613.88
469.064	15648.7
469.269	14929.86
469.474	15333.31
469.679	15200.19
469.885	14964.68
470.09	14985.16
470.295	15032.26
470.5	14696.39
470.705	14602.19
470.91	14344.14
471.115	14419.92
471.32	14407.63
471.525	14319.57
471.73	14020.56
471.935	14092.24
472.139	13469.66
472.344	13715.42
472.549	13606.88
472.754	13512.67
472.959	13137.89
473.164	12951.53
473.369	12699.62
473.574	13172.71
473.778	12988.39
473.983	13072.36
474.188	13021.16
474.393	12455.92
474.598	12445.68
474.802	12193.78
475.007	12269.55
475.212	12312.56
475.417	11884.53
475.621	11945.97
475.826	11923.44
476.031	11511.8
476.235	11386.88
476.44	11448.32
476.645	11212.8
476.849	11128.83
477.054	11112.45
477.259	10911.75
477.463	10719.24
477.668	10579.98
477.872	10936.32
478.077	10407.95
478.282	10356.75
478.486	10450.96
478.691	10221.58
478.895	10110.99
479.1	10260.49
479.304	10305.55
479.509	9818.13
479.713	10180.62
479.918	9922.58
480.122	9689.11
480.326	10088.46
480.531	10006.55
480.735	9809.94
480.94	9764.89
481.144	9955.35
481.348	9281.57
481.553	9725.97
481.757	9316.38
481.961	9447.45
482.166	9613.34
482.37	9373.72
482.574	9416.73
482.778	9353.24
482.983	9406.49
483.187	9349.15
483.391	9410.59
483.595	9381.92
483.8	9494.55
484.004	9375.77
484.208	9424.92
484.412	9289.76
484.616	9353.24
484.821	9543.71
485.025	9177.12
485.229	9418.78
485.433	9111.58
485.637	9463.83
485.841	9388.06
486.045	9332.76
486.249	9300
486.453	9359.39
486.657	9402.4
486.861	9414.68
487.065	9269.28
487.269	9482.27
487.473	9082.91
487.677	9363.48
487.881	9447.45
488.085	9287.71
488.289	9537.56
488.493	9367.58
488.697	9390.11
488.901	9474.07
489.105	9359.39
489.309	9490.46
489.512	9351.2
489.716	9613.34
489.92	9717.78
490.124	9396.25
490.328	9914.39
490.531	9500.7
490.735	9517.08
490.939	9691.16
491.143	9545.75
491.346	9531.42
491.55	10012.69
491.754	9795.61
491.958	9924.63
492.161	9816.08
492.365	9783.32
492.569	9793.56
492.772	10102.8
492.976	9906.2
493.18	9895.96
493.383	9898
493.587	10106.9
493.79	10330.13
493.994	10184.72
494.197	10358.8
494.401	10371.08
494.605	10528.78
494.808	10526.73
495.012	10561.55
495.215	10534.92
495.419	10606.6
495.622	10424.33
495.825	10752.01
496.029	10874.88
496.232	11032.58
496.436	11046.91
496.639	11208.7
496.843	11214.85
497.046	11431.93
497.249	11589.63
497.453	11876.34
497.656	11759.61
497.859	11692.02
498.063	12017.65
498.266	12154.87
498.469	11962.36
498.673	12070.9
498.876	12525.55
499.079	12474.35
499.282	12197.87
499.485	12816.36
499.689	12793.83
499.892	12982.24
500.095	12967.91
500.298	13557.72
500.501	13086.69
500.705	13488.09
500.908	13619.16
501.111	13850.58
501.314	13821.91
501.517	14096.34
501.72	14213.07
501.923	14467.02
502.126	14364.62
502.329	14948.29
502.532	14958.53
502.735	14925.77
502.938	15226.82
503.141	15267.78
503.344	15497.15
503.547	15611.84
503.75	15704
503.953	15988.66
504.156	16054.2
504.359	16285.62
504.562	16447.41
504.765	16742.32
504.968	16639.92
505.17	16977.83
505.373	17074.09
505.576	17422.24
505.779	17409.95
505.982	17581.98
506.185	17880.99
506.387	17940.38
506.59	18032.54
506.793	18407.31
506.996	18110.36
507.198	18808.72
507.401	18773.9
507.604	18890.63
507.807	19308.42
508.009	19238.79
508.212	19781.5
508.415	19994.49
508.617	20031.35
508.82	20107.13
509.022	20146.04
509.225	20629.36
509.428	20729.71
509.63	20899.69
509.833	20526.96
510.035	21247.85
510.238	21247.85
510.44	21544.8
510.643	21907.29
510.845	21935.96
511.048	21671.78
511.25	22054.75
511.453	22400.85
511.655	23015.24
511.858	22841.17
512.06	22918.99
512.262	23347.01
512.465	23322.44
512.667	23758.66
512.87	23684.93
513.072	24182.59
513.274	24223.55
513.477	24672.05
513.679	24588.08
513.881	25116.46
514.084	25120.56
514.286	25255.72
514.488	25472.81
514.69	25888.54
514.893	25790.24
515.095	25986.85
515.297	26408.73
515.499	26179.36
515.701	26818.32
515.904	27199.24
516.106	27072.27
516.308	27119.37
516.51	27539.21
516.712	27565.83
516.914	27852.55
517.116	28172.03
517.318	28004.1
517.52	28403.45
517.722	28886.77
517.925	28684.02
518.127	29058.8
518.329	29040.37
518.531	28753.65
518.733	29849.32
518.935	29972.19
519.136	29834.98
519.338	30484.19
519.54	30492.38
519.742	30478.04
519.944	30750.42
520.146	31039.19
520.348	31276.75
520.55	31366.86
520.752	31446.73
520.954	31839.94
521.155	31647.43
521.357	31780.55
521.559	32112.32
521.761	32665.27
521.963	32583.35
522.164	32857.78
522.366	33007.28
522.568	33078.96
522.77	32773.81
522.971	33695.4
523.173	33097.39
523.375	33552.04
523.576	33384.11
523.778	33390.25
523.98	33842.85
524.181	34205.34
524.383	33990.31
524.584	34236.06
524.786	34621.08
524.988	34447.01
525.189	34711.19
525.391	34920.09
525.592	35020.44
525.794	34899.61
525.995	35143.31
526.197	35004.05
526.398	35184.27
526.6	35620.49
526.801	35776.14
527.003	35624.59
527.204	35767.94
527.406	36069
527.607	35800.71
527.808	36007.56
528.01	35554.96
528.211	36163.2
528.412	36101.76
528.614	36216.45
528.815	36118.15
529.016	36468.35
529.218	36296.32
529.419	36521.6
529.62	36396.67
529.822	36238.98
530.023	36521.6
530.224	36415.1
530.425	36662.91
530.626	36003.46
530.828	35925.64
531.029	36992.63
531.23	36779.64
531.431	36296.32
531.632	36576.89
531.833	36673.15
532.035	36798.07
532.236	36669.05
532.437	37111.41
532.638	36202.11
532.839	37037.69
533.04	37078.64
533.241	36392.58
533.442	36855.42
533.643	36953.72
533.844	36464.25
534.045	36779.64
534.246	36468.35
534.447	36765.31
534.648	36523.65
534.849	36517.5
535.05	36474.49
535.251	36814.46
535.451	36728.44
535.652	37025.4
535.853	36632.19
536.054	36828.79
536.255	37090.93
536.456	36271.75
536.657	37291.63
536.857	36343.42
537.058	36808.31
537.259	37138.04
537.46	36900.47
537.66	36685.43
537.861	36462.21
538.062	36558.46
538.263	36707.96
538.463	36664.96
538.664	36714.11
538.865	36925.05
539.065	37043.83
539.266	36558.46
539.466	36714.11
539.667	36030.08
539.868	36966.01
540.068	36677.24
540.269	36378.24
540.469	36683.39
540.67	36466.3
540.87	36583.04
541.071	36726.39
541.271	36800.12
541.472	36396.67
541.672	36060.8
541.873	36243.07
542.073	36107.91
542.274	36509.31
542.474	36306.56
542.675	36183.68
542.875	36836.98
543.075	36439.68
543.276	36277.89
543.476	36845.18
543.676	36589.18
543.877	36384.38
544.077	36247.17
544.277	36173.44
544.478	36470.4
544.678	36441.73
544.878	36626.04
545.078	36368
545.279	36304.51
545.479	36570.75
545.679	36411.01
545.879	36402.82
546.079	36597.37
546.28	36066.95
546.48	36189.83
546.68	36509.31
546.88	36261.51
547.08	36324.99
547.28	36036.23
547.48	36187.78
547.68	36509.31
547.88	35731.08
548.081	36116.1
548.281	36062.85
548.481	35829.38
548.681	36476.54
548.881	36523.65
549.081	36134.53
549.28	36472.45
549.48	36071.04
549.68	36189.83
549.88	36681.34
550.08	36232.83
550.28	36044.42
550.48	35782.28
550.68	36425.34
550.88	36187.78
551.08	36185.73
551.279	36572.8
551.479	35645.07
551.679	36120.2
551.879	35901.06
552.079	36370.05
552.278	36138.63
552.478	36185.73
552.678	36529.79
552.878	36417.15
553.077	35991.17
553.277	36044.42
553.477	36494.97
553.676	36234.88
553.876	36146.82
554.076	35696.27
554.275	36138.63
554.475	35724.94
554.674	35901.06
554.874	35899.01
555.074	36163.2
555.273	35841.67
555.473	36253.31
555.672	35563.15
555.872	36034.18
556.071	36048.52
556.271	36183.68
556.47	35919.49
556.67	35645.07
556.869	35890.82
557.068	35956.36
557.268	35802.76
557.467	36032.13
557.667	36044.42
557.866	35776.14
558.065	35694.22
558.265	35729.03
558.464	35782.28
558.663	36091.52
558.863	35204.75
559.062	36079.24
559.261	35323.54
559.461	35968.65
559.66	35370.64
559.859	35786.38
560.058	35473.04
560.258	35540.62
560.457	35073.68
560.656	35905.16
560.855	35618.44
561.054	35477.13
561.253	35335.82
561.453	35630.73
561.652	35466.89
561.851	35608.2
562.05	35305.1
562.249	35395.21
562.448	36114.05
562.647	35714.7
562.846	35335.82
563.045	35972.74
563.244	35118.74
563.443	35694.22
563.642	35460.75
563.841	35419.79
564.04	35208.85
564.239	35784.33
564.438	35356.3
564.637	35399.31
564.836	35434.13
565.035	35083.92
565.234	35341.97
565.432	35231.38
565.631	35235.47
565.83	35438.22
566.029	35155.6
566.228	35245.71
566.427	35384.97
566.625	34965.14
566.824	34668.19
567.023	35393.17
567.222	34549.4
567.42	35346.06
567.619	35231.38
567.818	34737.82
568.016	34981.52
568.215	35253.9
568.414	34823.83
568.612	35249.81
568.811	34844.31
569.01	34936.47
569.208	34672.28
569.407	35229.33
569.605	34494.11
569.804	35155.6
570.002	34551.45
570.201	34678.43
570.4	34408.09
570.598	34428.57
570.797	34119.33
570.995	34899.61
571.193	33924.77
571.392	34905.75
571.59	34510.49
571.789	34604.7
571.987	34541.21
572.186	34438.81
572.384	34500.25
572.582	34406.05
572.781	34567.84
572.979	33588.91
573.177	34252.45
573.376	34270.88
573.574	33760.94
573.772	34000.55
573.971	34264.74
574.169	33900.2
574.367	33883.81
574.565	34033.32
574.763	33824.42
574.962	34021.03
575.16	33701.54
575.358	34043.56
575.556	33603.24
575.754	34023.08
575.952	33474.22
576.151	33842.85
576.349	33492.65
576.547	33420.97
576.745	33816.23
576.943	33801.89
577.141	33365.68
577.339	33425.07
577.537	33373.87
577.735	33648.3
577.933	32908.98
578.131	33095.35
578.329	33289.9
578.527	32939.7
578.725	33271.47
578.923	32900.79
579.121	33302.19
579.319	32888.5
579.516	33203.89
579.714	32900.79
579.912	32995
580.11	32906.93
580.308	32816.82
580.506	32788.15
580.704	32425.66
580.901	32726.71
581.099	32786.1
581.297	32480.96
581.495	32421.56
581.692	32507.58
581.89	32546.49
582.088	32540.35
582.285	32317.12
582.483	32501.43
582.681	32472.76
582.878	32433.85
583.076	32294.59
583.274	32313.02
583.471	31923.91
583.669	32483
583.866	31934.15
584.064	32143.04
584.262	31948.48
584.459	31907.52
584.657	31760.07
584.854	32102.08
585.052	31196.88
585.249	31956.68
585.447	31590.09
585.644	31362.76
585.841	31588.04
586.039	31891.14
586.236	31325.9
586.434	31598.28
586.631	31223.5
586.828	31495.88
587.026	31360.72
587.223	31164.11
587.42	30803.67
587.618	31006.42
587.815	30918.35
588.012	30893.78
588.21	30598.87
588.407	31141.58
588.604	30508.76
588.801	30533.34
588.999	30838.48
589.196	30406.36
589.393	30820.05
589.59	30654.17
589.787	30416.6
589.984	30349.02
590.182	30174.94
590.379	30269.15
590.576	29947.62
590.773	30199.52
590.97	30133.98
591.167	30344.92
591.364	29673.19
591.561	29855.46
591.758	30031.58
591.955	29828.84
592.152	30133.98
592.349	29363.95
592.546	29751.01
592.743	29624.04
592.94	29402.86
593.137	29556.46
593.334	29824.74
593.531	29517.54
593.727	29812.45
593.924	29187.82
594.121	29267.69
594.318	29335.28
594.515	28849.91
594.712	29265.64
594.908	29042.42
595.105	29165.29
595.302	28722.93
595.499	29066.99
595.696	28845.81
595.892	28471.03
596.089	28962.54
596.286	28690.16
596.482	28798.71
596.679	28362.49
596.876	28600.05
597.072	28530.42
597.269	28524.28
597.466	28352.25
597.662	28333.82
597.859	28698.36
598.055	28387.07
598.252	28464.89
598.448	28139.26
598.645	28126.97
598.841	27741.96
599.038	28325.63
599.234	28004.1
599.431	27707.14
599.627	27770.63
599.824	28385.02
600.02	27647.75
600.217	28094.21
600.413	27881.22
600.609	27565.83
600.806	27758.34
601.002	27776.77
601.198	27498.25
601.395	27346.7
601.591	27195.15
601.787	27621.13
601.984	27322.12
602.18	27344.65
602.376	27375.37
602.572	27066.13
602.769	27352.84
602.965	26681.11
603.161	27154.19
603.357	26744.59
603.553	27193.1
603.75	26820.37
603.946	26736.4
604.142	27148.04
604.338	26509.08
604.534	26877.71
604.73	26461.97
604.926	26730.26
605.122	26916.62
605.318	26267.42
605.514	26529.56
605.71	26568.47
605.906	26326.81
606.102	26347.29
606.298	26576.66
606.494	26511.13
606.69	26476.31
606.886	26173.21
607.082	26165.02
607.278	26199.83
607.474	26025.76
607.67	26326.81
607.866	25794.34
608.062	26226.46
608.257	25970.46
608.453	26119.96
608.649	25816.86
608.845	26074.91
609.041	25825.06
609.236	26031.9
609.432	25710.37
609.628	25736.99
609.824	25968.41
610.019	25749.28
610.215	25995.04
610.411	25913.12
610.606	25276.2
610.802	25720.61
610.998	25736.99
611.193	25601.83
611.389	25233.19
611.584	25235.24
611.78	25261.87
611.976	25493.29
612.171	25650.98
612.367	25376.55
612.562	25192.23
612.758	25208.62
612.953	25268.01
613.149	25708.32
613.344	25216.81
613.539	25751.33
613.735	25343.78
613.93	25728.8
614.126	25095.98
614.321	25446.18
614.517	25116.46
614.712	25042.73
614.907	25206.57
615.103	25200.43
615.298	24956.72
615.493	25204.52
615.688	24844.08
615.884	25198.38
616.079	24807.22
616.274	25194.28
616.47	24909.61
616.665	24751.92
616.86	24446.77
617.055	24667.95
617.25	24756.02
617.445	24844.08
617.641	24399.67
617.836	24420.15
618.031	23961.41
618.226	24401.72
618.421	24158.01
618.616	24674.1
618.811	24244.02
619.006	24762.16
619.201	24012.6
619.396	24053.56
619.591	23897.92
619.786	24082.24
619.981	23707.46
620.176	24088.38
620.371	23617.35
620.566	23672.64
620.761	23674.69
620.956	23512.9
621.151	23412.55
621.346	23691.07
621.541	23174.99
621.735	23471.94
621.93	22976.33
622.125	23002.96
622.32	22654.8
622.515	22935.37
622.709	22679.38
622.904	22767.44
623.099	22632.27
623.294	22497.11
623.488	22304.6
623.683	22366.04
623.878	21952.35
624.072	22194.01
624.267	22021.98
624.462	21786.46
624.656	21735.26
624.851	21819.23
625.046	21532.51
625.24	21667.68
625.435	21385.06
625.629	21167.98
625.824	21018.47
626.018	20805.49
626.213	20797.29
626.407	21022.57
626.602	20676.46
626.796	20705.13
626.991	20621.17
627.185	20295.54
627.38	20330.36
627.574	20238.2
627.768	19924.86
627.963	20143.99
628.157	19605.38
628.352	20006.78
628.546	19689.34
628.74	19990.39
628.935	19423.11
629.129	19576.7
629.323	19672.96
629.517	19341.19
629.712	19289.99
629.906	19197.83
630.1	18933.64
630.294	19130.25
630.489	18909.07
630.683	18739.08
630.877	18831.24
631.071	18573.2
631.265	18671.5
631.459	18294.68
631.653	18450.32
631.848	18384.79
632.042	18120.6
632.236	18579.34
632.43	18153.37
632.624	18255.76
632.818	17770.4
633.012	17690.52
633.206	17598.37
633.4	17766.3
633.594	17309.6
633.788	17518.5
633.982	17342.37
634.176	17631.13
634.369	17303.46
634.563	17141.67
634.757	17280.93
634.951	17170.34
635.145	16918.44
635.339	16625.58
635.533	16738.22
635.726	16697.26
635.92	16312.24
636.114	16510.89
636.308	16326.58
636.501	16521.13
636.695	16431.02
636.889	16283.57
637.083	16082.87
637.276	16111.54
637.47	15882.17
637.664	15865.78
637.857	15959.99
638.051	15505.34
638.244	15478.72
638.438	15712.19
638.632	15132.61
638.825	15509.44
639.019	15556.54
639.212	15476.67
639.406	15056.84
639.599	15187.91
639.793	15151.04
639.986	14557.13
640.18	15048.65
640.373	14755.79
640.567	14481.36
640.76	14819.27
640.954	14358.48
641.147	14436.3
641.34	14489.55
641.534	14227.41
641.727	14319.57
641.92	14153.68
642.114	14110.68
642.307	14168.02
642.5	13971.41
642.694	13758.42
642.887	13699.03
643.08	13836.25
643.273	13498.33
643.467	13658.07
643.66	13576.16
643.853	13291.49
644.046	13393.89
644.239	13205.47
644.432	12965.86
644.626	13236.19
644.819	12912.61
645.012	12949.48
645.205	13115.36
645.398	12937.19
645.591	12632.04
645.784	12701.67
645.977	12652.52
646.17	12529.64
646.363	12394.48
646.556	12171.25
646.749	12439.53
646.942	12249.07
647.135	12267.5
647.328	12230.64
647.521	12171.25
647.714	11862.01
647.907	11810.81
648.099	11649.02
648.292	11513.85
648.485	11696.12
648.678	11364.35
648.871	11401.21
649.064	11536.38
649.256	11517.95
649.449	11448.32
649.642	11241.47
649.835	11282.43
650.027	10944.52
650.22	11087.87
650.413	11126.78
650.605	10973.19
650.798	10782.73
650.991	10813.45
651.183	10827.78
651.376	10616.84
651.568	10602.5
651.761	10655.75
651.954	10711.05
652.146	10555.4
652.339	10539.02
652.531	10405.9
652.724	10352.65
652.916	10207.25
653.109	10098.7
653.301	10012.69
653.494	10291.21
653.686	9861.14
653.879	10147.86
654.071	9795.61
654.263	9615.38
654.456	9801.75
654.648	9754.65
654.84	9447.45
655.033	9652.25
655.225	9648.15
655.417	9308.19
655.61	9463.83
655.802	9349.15
655.994	9390.11
656.186	9486.36
656.379	9164.83
656.571	9195.55
656.763	8980.51
656.955	8982.56
657.148	9078.82
657.34	9162.78
657.532	8835.11
657.724	8800.29
657.916	8888.36
658.108	8699.94
658.3	8544.3
658.492	8554.54
658.684	8615.98
658.876	8499.24
659.068	8130.61
659.26	8532.01
659.452	8456.23
659.644	8398.89
659.836	8071.22
660.028	8069.17
660.22	8058.93
660.412	8114.22
660.604	8103.98
660.796	8032.3
660.988	7989.3
661.18	7847.99
661.372	7811.12
661.563	7782.45
661.755	7778.36
661.947	7854.13
662.139	7604.28
662.331	7530.55
662.522	7577.66
662.714	7618.61
662.906	7295.04
663.097	7524.41
663.289	7360.57
663.481	7092.29
663.673	7288.89
663.864	7178.3
664.056	7288.89
664.247	7192.64
664.439	7247.93
664.631	7151.68
664.822	7096.38
665.014	7010.37
665.205	6860.87
665.397	6854.72
665.588	6864.96
665.78	6930.5
665.971	6930.5
666.163	6709.32
666.354	6996.03
666.546	6707.27
666.737	6623.3
666.929	6801.47
667.12	6733.89
667.311	6551.62
667.503	6494.28
667.694	6703.17
667.885	6549.57
668.077	6479.94
668.268	6475.85
668.459	6334.54
668.651	6318.15
668.842	6365.26
669.033	6277.19
669.224	6338.63
669.416	6490.18
669.607	6244.43
669.798	6195.28
669.989	6375.5
670.18	6287.43
670.371	6211.66
670.563	6088.78
670.754	6053.97
670.945	6189.13
671.136	6008.91
671.327	5795.92
671.518	6033.49
671.709	5953.62
671.9	5890.13
672.091	6033.49
672.282	6144.08
672.473	5748.82
672.664	5763.15
672.855	5838.93
673.046	5855.31
673.237	5859.41
673.428	5744.72
673.619	5687.38
673.809	5791.83
674	5781.59
674.191	5662.8
674.382	5621.84
674.573	5595.22
674.764	5544.02
674.954	5738.58
675.145	5492.82
675.336	5429.34
675.527	5623.89
675.717	5394.52
675.908	5390.42
676.099	5496.92
676.289	5423.19
676.48	5517.4
676.671	5447.77
676.861	5453.91
677.052	5501.01
677.243	5396.57
677.433	5326.94
677.624	5650.52
677.814	5300.31
678.005	5406.81
678.195	5433.43
678.386	5382.23
678.576	5265.5
678.767	5283.93
678.957	5449.82
679.148	5488.73
679.338	5337.18
679.529	5249.11
679.719	5130.33
679.909	5443.67
680.1	5054.56
680.29	5306.46
680.481	5116
680.671	5230.68
680.861	5279.83
681.052	5130.33
681.242	5163.1
681.432	5177.44
681.622	5148.76
681.813	5124.19
682.003	5212.25
682.193	5025.89
682.383	5146.72
682.573	5089.37
682.764	5072.99
682.954	5058.65
683.144	5148.76
683.334	5134.43
683.524	5066.85
683.714	5019.74
683.904	5085.28
684.094	5116
684.284	5191.77
684.474	5150.81
684.664	5005.41
684.854	5087.33
685.044	4950.11
685.234	4917.34
685.424	4978.78
685.614	4837.47
685.804	5011.55
685.994	5011.55
686.184	4878.43
686.374	4907.1
686.564	4874.34
686.753	4921.44
686.943	4806.75
687.133	4735.07
687.323	4780.13
687.513	4778.08
687.702	4884.58
687.892	4747.36
688.082	4745.31
688.272	4829.28
688.461	4751.46
688.651	4726.88
688.841	4730.98
689.03	4628.58
689.22	4745.31
689.41	4694.12
689.599	4776.03
689.789	4626.53
689.979	4593.76
690.168	4685.92
690.358	4653.16
690.547	4487.27
690.737	4571.24
690.926	4456.55
691.116	4509.8
691.305	4474.98
691.495	4493.41
691.684	4364.39
691.874	4450.41
692.063	4536.42
692.252	4536.42
692.442	4565.09
692.631	4454.5
692.82	4378.73
693.01	4442.21
693.199	4558.95
693.388	4370.54
693.578	4429.93
693.767	4552.81
693.956	4405.35
694.146	4462.69
694.335	4397.16
694.524	4386.92
694.713	4542.57
694.902	4378.73
695.092	4368.49
695.281	4456.55
695.47	4491.37
695.659	4565.09
695.848	4268.14
696.037	4507.75
696.226	4599.91
696.415	4499.56
696.604	4558.95
696.793	4429.93
696.982	4499.56
697.171	4384.87
697.36	4413.54
697.549	4366.44
697.738	4403.3
697.927	4370.54
698.116	4364.39
698.305	4487.27
698.494	4452.45
698.683	4448.36
698.872	4448.36
699.061	4517.99
699.25	4546.66
699.438	4464.74
699.627	4509.8
699.816	4517.99
700.005	4483.17
700.193	4286.57
700.382	4382.82
700.571	4452.45
700.76	4493.41
700.948	4391.02
701.137	4477.03
701.326	4542.57
701.514	4440.17
701.703	4524.13
701.892	4517.99
702.08	4540.52
702.269	4552.81
702.457	4446.31
702.646	4556.9
702.834	4620.39
703.023	4532.33
703.212	4565.09
703.4	4612.2
703.589	4495.46
703.777	4526.18
703.965	4434.02
704.154	4567.14
704.342	4421.74
704.531	4485.22
704.719	4511.85
704.907	4497.51
705.096	4448.36
705.284	4298.86
705.472	4573.28
705.661	4460.65
705.849	4579.43
706.037	4458.6
706.226	4532.33
706.414	4477.03
706.602	4604
706.79	4507.75
706.979	4507.75
707.167	4436.07
707.355	4487.27
707.543	4487.27
707.731	4448.36
707.919	4450.41
708.107	4552.81
708.296	4460.65
708.484	4266.09
708.672	4520.04
708.86	4589.67
709.048	4427.88
709.236	4493.41
709.424	4522.09
709.612	4505.7
709.8	4515.94
709.988	4550.76
710.176	4661.35
710.364	4407.4
710.551	4376.68
710.739	4319.34
710.927	4503.65
711.115	4374.63
711.303	4509.8
711.491	4337.77
711.679	4458.6
711.866	4511.85
712.054	4468.84
712.242	4364.39
712.43	4395.11
712.617	4356.2
712.805	4391.02
712.993	4358.25
713.181	4333.67
713.368	4313.19
713.556	4444.26
713.744	4395.11
713.931	4491.37
714.119	4292.71
714.306	4360.3
714.494	4386.92
714.682	4522.09
714.869	4241.51
715.057	4300.91
715.244	4196.46
715.432	4247.66
715.619	4294.76
715.807	4343.91
715.994	4354.15
716.182	4227.18
716.369	4315.24
716.556	4317.29
716.744	4243.56
716.931	4249.71
717.119	4214.89
717.306	4302.95
717.493	4196.46
717.681	4231.27
717.868	4132.97
718.055	3991.66
718.242	4274.28
718.43	4155.5
718.617	4204.65
718.804	4214.89
718.991	4333.67
719.179	4313.19
719.366	4124.78
719.553	4284.52
719.74	4206.7
719.927	4335.72
720.114	4192.36
720.301	4096.11
720.488	4104.3
720.676	4046.96
720.863	4141.16
721.05	4196.46
721.237	4069.48
721.424	4208.75
721.611	4200.55
721.798	4167.79
721.985	4124.78
722.172	4003.95
722.358	4063.34
722.545	4120.68
722.732	4149.36
722.919	4151.4
723.106	4132.97
723.293	4049
723.48	4120.68
723.667	4020.33
723.853	4073.58
724.04	4003.95
724.227	3962.99
724.414	3950.7
724.6	4053.1
724.787	4110.44
724.974	4077.68
725.161	4010.09
725.347	3991.66
725.534	3983.47
725.72	4053.1
725.907	3846.26
726.094	4092.01
726.28	3948.65
726.467	3903.6
726.653	3995.76
726.84	4003.95
727.027	4200.55
727.213	3971.18
727.4	3780.72
727.586	3934.32
727.773	3852.4
727.959	3919.98
728.145	3872.88
728.332	3950.7
728.518	3764.34
728.705	3926.13
728.891	3885.17
729.077	3905.65
729.264	3811.44
729.45	3864.69
729.636	3866.74
729.823	3868.78
730.009	3885.17
730.195	3895.41
730.382	3760.24
730.568	3776.63
730.754	3909.74
730.94	3739.76
731.126	3762.29
731.313	3827.82
731.499	3686.51
731.685	3670.13
731.871	3801.2
732.057	3747.95
732.243	3649.65
732.429	3537.01
732.615	3678.32
732.801	3563.64
732.987	3678.32
733.173	3666.03
733.359	3653.75
733.545	3537.01
733.731	3504.25
733.917	3592.31
734.103	3598.45
734.289	3690.61
734.475	3594.36
734.661	3530.87
734.847	3604.6
735.033	3694.71
735.219	3655.79
735.404	3430.52
735.59	3479.67
735.776	3565.68
735.962	3678.32
736.148	3520.63
736.333	3592.31
736.519	3514.49
736.705	3483.77
736.89	3467.38
737.076	3498.1
737.262	3444.85
737.447	3405.94
737.633	3328.12
737.819	3557.49
738.004	3389.56
738.19	3526.77
738.375	3440.76
738.561	3430.52
738.747	3371.13
738.932	3334.26
739.118	3305.59
739.303	3371.13
739.489	3371.13
739.674	3364.98
739.859	3174.52
740.045	3266.68
740.23	3272.82
740.416	3205.24
740.601	3256.44
740.786	3174.52
740.972	3119.23
741.157	3149.95
741.342	3158.14
741.528	3207.29
741.713	3174.52
741.898	3135.61
742.084	3018.88
742.269	3088.51
742.454	3094.65
742.639	3129.47
742.824	3090.56
743.01	3145.85
743.195	3197.05
743.38	2908.29
743.565	3117.18
743.75	3047.55
743.935	2893.95
744.12	2990.21
744.305	2928.77
744.49	2879.61
744.675	2769.02
744.86	2906.24
745.045	2930.81
745.23	2930.81
745.415	2934.91
745.6	2906.24
745.785	2859.14
745.97	2912.38
746.155	2855.04
746.34	2912.38
746.525	2711.68
746.71	2797.7
746.895	2734.21
747.079	2789.5
747.264	2683.01
747.449	2764.93
747.634	2689.15
747.819	2685.06
748.003	2640
748.188	2513.03
748.373	2467.97
748.557	2709.63
748.742	2586.76
748.927	2474.12
749.111	2574.47
749.296	2584.71
749.481	2652.29
749.665	2556.04
749.85	2496.64
750.034	2556.04
750.219	2607.23
750.404	2400.39
750.588	2424.97
750.773	2330.76
750.957	2377.86
751.141	2273.42
751.326	2443.4
751.51	2457.73
751.695	2373.77
751.879	2257.03
752.064	2369.67
752.248	2267.27
752.432	2185.35
752.617	2324.62
752.801	2300.04
752.985	2248.84
753.17	2140.3
753.354	2228.36
753.538	2162.83
753.722	2128.01
753.907	2193.55
754.091	2052.24
754.275	2156.68
754.459	2064.52
754.643	2015.37
754.828	2117.77
755.012	2062.48
755.196	2035.85
755.38	1968.27
755.564	1921.17
755.748	1998.99
755.932	2035.85
756.116	1929.36
756.3	2062.48
756.484	1980.56
756.668	1898.64
756.852	1839.25
757.036	1915.02
757.22	1753.23
757.404	1874.06
757.588	1859.73
757.772	1810.58
757.956	1779.86
758.14	2015.37
758.323	1829.01
758.507	1884.3
758.691	1857.68
758.875	1831.05
759.059	1738.9
759.242	1822.86
759.426	1712.27
759.61	1699.98
759.794	1681.55
759.977	1773.71
760.161	1835.15
760.345	1724.56
760.528	1742.99
760.712	1695.89
760.895	1685.65
761.079	1632.4
761.263	1656.98
761.446	1597.59
761.63	1652.88
761.813	1681.55
761.997	1573.01
762.18	1609.87
762.364	1634.45
762.547	1579.15
762.731	1523.86
762.914	1560.72
763.098	1525.91
763.281	1499.28
763.464	1507.48
763.648	1446.04
763.831	1513.62
764.015	1550.48
764.198	1583.25
764.381	1458.32
764.564	1482.9
764.748	1575.06
764.931	1519.76
765.114	1517.72
765.297	1534.1
765.481	1462.42
765.664	1554.58
765.847	1425.56
766.03	1560.72
766.213	1548.44
766.397	1400.98
766.58	1376.41
766.763	1411.22
766.946	1376.41
767.129	1360.02
767.312	1386.65
767.495	1353.88
767.678	1345.69
767.861	1392.79
768.044	1421.46
768.227	1380.5
768.41	1427.6
768.593	1405.08
768.776	1407.13
768.959	1353.88
769.142	1435.8
769.324	1386.65
769.507	1329.3
769.69	1319.06
769.873	1308.82
770.056	1380.5
770.239	1265.82
770.421	1364.12
770.604	1304.73
770.787	1265.82
770.97	1280.15
771.152	1364.12
771.335	1231
771.518	1249.43
771.7	1427.6
771.883	1329.3
772.066	1151.13
772.248	1325.21
772.431	1368.21
772.613	1327.25
772.796	1231
772.978	1245.34
773.161	1212.57
773.343	1302.68
773.526	1212.57
773.708	1120.41
773.891	1126.55
774.073	1083.55
774.256	1169.56
774.438	1208.47
774.621	1181.85
774.803	1224.86
774.985	1095.83
775.168	1097.88
775.35	1192.09
775.532	1077.4
775.715	1122.46
775.897	1169.56
776.079	1069.21
776.261	1101.98
776.444	1085.59
776.626	1108.12
776.808	1052.83
776.99	1054.87
777.173	1073.31
777.355	1101.98
777.537	1095.83
777.719	1087.64
777.901	993.44
778.083	999.58
778.265	968.86
778.447	1048.73
778.629	1065.11
778.811	1052.83
778.993	1005.72
779.175	1036.44
779.357	948.38
779.539	940.19
779.721	983.2
779.903	964.76
780.085	880.8
780.267	905.37
780.449	944.28
780.631	798.88
780.812	921.76
780.994	825.5
781.176	893.09
781.358	915.61
781.54	794.78
781.721	811.17
781.903	886.94
782.085	827.55
782.267	895.13
782.448	802.97
782.63	825.5
782.812	776.35
782.993	815.26
783.175	800.93
783.357	788.64
783.538	798.88
783.72	782.49
783.901	716.96
784.083	759.97
784.264	776.35
784.446	686.24
784.627	778.4
784.809	772.25
784.99	684.19
785.172	749.73
785.353	739.49
785.535	784.54
785.716	731.3
785.897	602.27
786.079	598.18
786.26	645.28
786.441	716.96
786.623	647.33
786.804	589.99
786.985	676
787.167	786.59
787.348	690.34
787.529	637.09
787.71	665.76
787.891	684.19
788.073	614.56
788.254	602.27
788.435	585.89
788.616	692.38
788.797	571.55
788.978	612.51
789.159	635.04
789.34	600.23
789.522	696.48
789.703	583.84
789.884	561.31
790.065	551.07
790.246	600.23
790.427	563.36
790.607	655.52
790.788	655.52
790.969	573.6
791.15	583.84
791.331	614.56
791.512	522.4
791.693	567.46
791.874	569.51
792.054	614.56
792.235	577.7
792.416	510.11
792.597	565.41
792.778	561.31
792.958	559.27
793.139	587.94
793.32	522.4
793.5	424.1
793.681	567.46
793.862	463.01
794.042	467.11
794.223	428.2
794.404	536.74
794.584	522.4
794.765	569.51
794.945	450.72
795.126	514.21
795.306	510.11
795.487	407.72
795.667	428.2
795.848	422.05
796.028	463.01
796.209	450.72
796.389	460.96
796.57	452.77
796.75	405.67
796.93	432.29
797.111	497.83
797.291	393.38
797.471	424.1
797.652	428.2
797.832	432.29
798.012	475.3
798.192	368.81
798.373	436.39
798.553	407.72
798.733	473.25
798.913	399.52
799.093	438.44
799.274	358.57
799.454	446.63
799.634	510.11
799.814	409.76
799.994	342.18
800.174	442.53
800.354	422.05
800.534	360.61
800.714	422.05
800.894	385.19
801.074	329.89
801.254	370.85
801.434	413.86
801.614	387.24
801.794	309.41
801.974	1370.26
802.154	350.37
802.334	395.43
802.514	346.28
802.693	405.67
802.873	342.18
803.053	393.38
803.233	329.89
803.413	415.91
803.592	397.48
803.772	323.75
803.952	424.1
804.131	215.21
804.311	315.56
804.491	329.89
804.67	274.6
804.85	297.13
805.03	407.72
805.209	403.62
805.389	309.41
805.568	268.45
805.748	290.98
805.928	331.94
806.107	321.7
806.287	303.27
806.466	340.13
806.646	268.45
806.825	315.56
807.004	250.02
807.184	327.85
807.363	284.84
807.543	344.23
807.722	290.98
807.901	364.71
808.081	284.84
808.26	266.41
808.439	362.66
808.619	258.21
808.798	317.61
808.977	315.56
809.156	387.24
809.336	272.55
809.515	331.94
809.694	266.41
809.873	280.74
810.052	282.79
810.231	364.71
810.411	229.54
810.59	307.37
810.769	274.6
810.948	280.74
811.127	192.68
811.306	233.64
811.485	250.02
811.664	258.21
811.843	313.51
812.022	211.11
812.201	233.64
812.38	260.26
812.559	245.93
812.737	264.36
812.916	180.39
813.095	252.07
813.274	258.21
813.453	217.26
813.632	250.02
813.811	321.7
813.989	180.39
814.168	227.5
814.347	217.26
814.526	209.06
814.704	284.84
814.883	252.07
815.062	194.73
815.24	209.06
815.419	192.68
815.598	225.45
815.776	157.86
815.955	164.01
816.133	164.01
816.312	284.84
816.49	207.02
816.669	262.31
816.847	123.05
817.026	233.64
817.204	213.16
817.383	278.69
817.561	159.91
817.74	258.21
817.918	213.16
818.097	141.48
818.275	213.16
818.453	274.6
818.632	221.35
818.81	223.4
818.988	157.86
819.167	209.06
819.345	147.62
819.523	127.14
819.701	159.91
819.879	190.63
820.058	215.21
820.236	221.35
820.414	161.96
820.592	190.63
820.77	90.28
820.948	170.15
821.127	202.92
821.305	188.58
821.483	88.23
821.661	164.01
821.839	252.07
822.017	121
822.195	202.92
822.373	188.58
822.551	102.57
822.729	180.39
822.907	209.06
823.085	166.06
823.262	186.54
823.44	104.62
823.618	247.97
823.796	252.07
823.974	133.29
824.152	112.81
824.329	194.73
824.507	231.59
824.685	223.4
824.863	198.82
825.04	186.54
825.218	157.86
825.396	141.48
825.574	112.81
825.751	149.67
825.929	155.82
826.107	94.38
826.284	182.44
826.462	102.57
826.639	114.86
826.817	96.43
826.994	147.62
827.172	137.38
827.349	229.54
827.527	186.54
827.704	143.53
827.882	207.02
828.059	131.24
828.237	131.24
828.414	174.25
828.591	110.76
828.769	174.25
828.946	157.86
829.124	135.34
829.301	149.67
829.478	164.01
829.655	188.58
829.833	180.39
830.01	123.05
830.187	196.78
830.364	164.01
830.542	178.34
830.719	225.45
830.896	166.06
831.073	137.38
831.25	145.58
831.427	141.48
831.604	147.62
831.782	77.99
831.959	176.3
832.136	30.89
832.313	157.86
832.49	98.47
832.667	178.34
832.844	77.99
833.021	157.86
833.198	59.56
833.374	155.82
833.551	88.23
833.728	129.19
833.905	131.24
834.082	110.76
834.259	88.23
834.436	123.05
834.612	45.23
834.789	159.91
834.966	145.58
835.143	178.34
835.319	69.8
835.496	37.03
835.673	100.52
835.85	80.04
836.026	125.1
836.203	174.25
836.38	133.29
836.556	127.14
836.733	135.34
836.909	71.85
837.086	6.31
837.262	71.85
837.439	88.23
837.616	135.34
837.792	129.19
837.968	161.96
838.145	82.09
838.321	106.67
838.498	114.86
838.674	133.29
838.851	73.9
839.027	102.57
839.203	92.33
839.38	135.34
839.556	131.24
839.732	118.95
839.909	53.42
840.085	182.44
840.261	53.42
840.437	86.19
840.614	77.99
840.79	168.1
840.966	75.95
841.142	63.66
841.318	57.51
841.494	39.08
841.671	86.19
841.847	116.9
842.023	28.84
842.199	151.72
842.375	129.19
842.551	-28.5
842.727	118.95
842.903	231.59
843.079	28.84
843.255	198.82
843.431	110.76
843.607	94.38
843.783	51.37
843.959	73.9
844.134	-16.21
844.31	166.06
844.486	102.57
844.662	39.08
844.838	12.46
845.013	94.38
845.189	155.82
845.365	88.23
845.541	145.58
845.716	94.38
845.892	155.82
846.068	63.66
846.244	16.55
846.419	110.76
846.595	34.99
846.77	39.08
846.946	149.67
847.122	86.19
847.297	30.89
847.473	174.25
847.648	10.41
847.824	63.66
847.999	20.65
848.175	28.84
848.35	135.34
848.526	166.06
848.701	67.75
848.876	84.14
849.052	65.71
849.227	10.41
849.403	-10.07
849.578	80.04
849.753	114.86
849.929	55.47
850.104	32.94
850.279	20.65
850.454	59.56
850.63	84.14
850.805	149.67
850.98	104.62
851.155	-40.79
851.33	116.9
851.505	-32.6
851.681	86.19
851.856	104.62
852.031	135.34
852.206	123.05
852.381	18.6
852.556	22.7
852.731	47.27
852.906	112.81
853.081	123.05
853.256	112.81
853.431	24.75
853.606	43.18
853.781	24.75
853.956	-1.88
854.131	69.8
854.305	-30.55
854.48	98.47
854.655	57.51
854.83	24.75
855.005	6.31
855.18	4.27
855.354	41.13
855.529	45.23
855.704	37.03
855.879	90.28
856.053	4.27
856.228	55.47
856.403	20.65
856.577	116.9
856.752	14.51
856.926	65.71
857.101	100.52
857.276	-14.17
857.45	92.33
857.625	90.28
857.799	90.28
857.974	86.19
858.148	63.66
858.323	92.33
858.497	49.32
858.672	-3.93
858.846	30.89
859.02	88.23
859.195	-20.31
859.369	-51.03
859.543	164.01
859.718	82.09
859.892	2.22
860.066	43.18
860.241	34.99
860.415	80.04
860.589	32.94
860.763	61.61
860.938	-22.36
861.112	18.6
861.286	-16.21
861.46	41.13
861.634	47.27
861.808	55.47
861.982	4.27
862.157	51.37
862.331	90.28
862.505	-77.65
862.679	-10.07
862.853	-8.02
863.027	47.27
863.201	157.86
863.375	57.51
863.549	55.47
863.722	-5.97
863.896	96.43
864.07	-51.03
864.244	18.6
864.418	118.95
864.592	28.84
864.766	-16.21
864.939	49.32
865.113	-26.45
865.287	88.23
865.461	-10.07
865.634	63.66
865.808	30.89
865.982	47.27
866.156	24.75
866.329	-18.26
866.503	26.79
866.676	55.47
866.85	-18.26
867.024	8.36
867.197	28.84
867.371	32.94
867.544	125.1
867.718	-42.84
867.891	26.79
868.065	-22.36
868.238	55.47
868.412	90.28
868.585	-3.93
868.759	-5.97
868.932	-3.93
869.105	-53.08
869.279	47.27
869.452	12.46
869.625	82.09
869.799	80.04
869.972	-30.55
870.145	37.03
870.319	28.84
870.492	22.7
870.665	-3.93
870.838	-5.97
871.011	-16.21
871.185	69.8
871.358	-8.02
871.531	77.99
871.704	43.18
871.877	28.84
872.05	45.23
872.223	2.22
872.396	39.08
872.569	53.42
872.742	51.37
872.915	112.81
873.088	24.75
873.261	-48.98
873.434	82.09
873.607	-5.97
873.78	73.9
873.953	-38.74
874.126	47.27
874.299	41.13
874.471	61.61
874.644	-28.5
874.817	43.18
874.99	108.71
875.163	0.17
875.335	43.18
875.508	-38.74
875.681	77.99
875.853	-67.41
876.026	10.41
876.199	51.37
876.371	102.57
876.544	-24.4
876.717	69.8
876.889	14.51
877.062	55.47
877.234	2.22
877.407	8.36
877.579	47.27
877.752	37.03
877.924	39.08
878.097	84.14
878.269	53.42
878.442	55.47
878.614	92.33
878.786	59.56
878.959	-1.88
879.131	22.7
879.303	0.17
879.476	-38.74
879.648	4.27
879.82	28.84
879.993	6.31
880.165	-14.17
880.337	6.31
880.509	-3.93
880.681	-32.6
880.854	-51.03
881.026	104.62
881.198	139.43
881.37	-12.12
881.542	37.03
881.714	51.37
881.886	28.84
882.058	-38.74
882.23	67.75
882.402	20.65
882.574	12.46
882.746	86.19
882.918	55.47
883.09	53.42
883.262	-10.07
883.434	-24.4
883.606	8.36
883.778	20.65
883.95	137.38
884.122	20.65
884.293	114.86
884.465	12.46
884.637	80.04
884.809	-48.98
884.98	18.6
885.152	49.32
885.324	71.85
885.496	-5.97
885.667	0.17
885.839	-42.84
886.011	110.76
886.182	6.31
886.354	32.94
886.525	75.95
886.697	49.32
886.869	8.36
887.04	65.71
887.212	69.8
887.383	67.75
887.555	-16.21
887.726	86.19
887.897	-3.93
888.069	24.75
888.24	61.61
888.412	4.27
888.583	34.99
888.754	63.66
888.926	-10.07
889.097	53.42
889.268	-22.36
889.44	-1.88
889.611	-83.8
889.782	-3.93
889.953	8.36
890.125	63.66
890.296	18.6
890.467	86.19
890.638	26.79
890.809	39.08
890.98	30.89
891.151	47.27
891.323	118.95
891.494	61.61
891.665	71.85
891.836	63.66
892.007	20.65
892.178	69.8
892.349	8.36
892.52	26.79
892.691	-34.64
892.862	49.32
893.032	-10.07
893.203	-28.5
893.374	-53.08
893.545	102.57
893.716	18.6
893.887	57.51
894.057	-48.98
894.228	4.27
894.399	4.27
894.57	137.38
894.74	26.79
894.911	-46.93
895.082	-1.88
895.253	-5.97
895.423	69.8
895.594	73.9
895.764	55.47
895.935	6.31
896.106	26.79
896.276	0.17
896.447	26.79
896.617	18.6
896.788	10.41
896.958	24.75
897.129	-10.07
897.299	32.94
897.47	34.99
897.64	71.85
897.81	-5.97
897.981	77.99
898.151	47.27
898.322	-18.26
898.492	53.42
898.662	39.08
898.832	-32.6
899.003	32.94
899.173	43.18
899.343	-1.88
899.513	2.22
