Data from USB4F104151__54__12-12-19-105.txt Node

Date: Fri Mar 14 12:12:19 EDT 2025
User: louis
Spectrometer: USB4F10415
Trigger mode: 4
Integration Time (sec): 5.000000E-2
Scans to average: 1
Electric dark correction enabled: true
Nonlinearity correction enabled: false
Boxcar width: 0
XAxis mode: Wavelengths
Number of Pixels in Spectrum: 3648
>>>>>Begin Spectral Data<<<<<
178.204	-235.35
178.424	-235.35
178.644	-235.35
178.864	-163.67
179.084	-216.91
179.304	-20.31
179.524	10.41
179.744	-26.45
179.964	18.6
180.184	-1.88
180.404	-16.21
180.624	-40.79
180.844	-38.74
181.064	-22.36
181.283	67.75
181.503	6.31
181.723	63.66
181.943	-46.93
182.163	147.62
182.383	-61.27
182.602	55.47
182.822	112.81
183.042	88.23
183.262	100.52
183.482	59.56
183.701	-59.22
183.921	73.9
184.141	-38.74
184.361	129.19
184.58	-5.97
184.8	98.47
185.02	-24.4
185.239	94.38
185.459	69.8
185.679	92.33
185.898	4.27
186.118	69.8
186.338	22.7
186.557	51.37
186.777	-22.36
186.997	57.51
187.216	22.7
187.436	168.1
187.655	131.24
187.875	41.13
188.095	-46.93
188.314	86.19
188.534	84.14
188.753	80.04
188.973	12.46
189.192	26.79
189.412	67.75
189.631	-22.36
189.851	59.56
190.07	71.85
190.29	75.95
190.509	32.94
190.729	-30.55
190.948	57.51
191.168	233.64
191.387	116.9
191.607	57.51
191.826	26.79
192.045	24.75
192.265	61.61
192.484	14.51
192.704	24.75
192.923	0.17
193.142	53.42
193.362	39.08
193.581	106.67
193.8	-10.07
194.02	55.47
194.239	-22.36
194.458	57.51
194.678	63.66
194.897	-18.26
195.116	104.62
195.335	49.32
195.555	-65.36
195.774	-36.69
195.993	92.33
196.212	84.14
196.432	18.6
196.651	-24.4
196.87	-30.55
197.089	143.53
197.308	94.38
197.528	84.14
197.747	-12.12
197.966	16.55
198.185	51.37
198.404	41.13
198.623	20.65
198.842	92.33
199.062	90.28
199.281	96.43
199.5	18.6
199.719	-42.84
199.938	30.89
200.157	84.14
200.376	135.34
200.595	69.8
200.814	77.99
201.033	108.71
201.252	112.81
201.471	43.18
201.69	73.9
201.909	-20.31
202.128	67.75
202.347	59.56
202.566	61.61
202.785	45.23
203.004	-71.51
203.223	237.74
203.442	-1.88
203.661	-5.97
203.879	-12.12
204.098	86.19
204.317	-40.79
204.536	90.28
204.755	6.31
204.974	28.84
205.193	2.22
205.411	161.96
205.63	65.71
205.849	-1.88
206.068	84.14
206.287	90.28
206.505	86.19
206.724	-16.21
206.943	24.75
207.162	59.56
207.381	53.42
207.599	4.27
207.818	24.75
208.037	-44.88
208.255	20.65
208.474	139.43
208.693	96.43
208.911	69.8
209.13	59.56
209.349	22.7
209.567	94.38
209.786	94.38
210.005	49.32
210.223	88.23
210.442	-69.46
210.661	73.9
210.879	-18.26
211.098	92.33
211.316	71.85
211.535	39.08
211.753	-24.4
211.972	92.33
212.191	51.37
212.409	-63.32
212.628	37.03
212.846	-34.64
213.065	28.84
213.283	49.32
213.502	65.71
213.72	-3.93
213.938	28.84
214.157	-20.31
214.375	12.46
214.594	-26.45
214.812	-10.07
215.031	53.42
215.249	-1.88
215.467	32.94
215.686	57.51
215.904	67.75
216.122	61.61
216.341	67.75
216.559	18.6
216.778	47.27
216.996	108.71
217.214	20.65
217.432	96.43
217.651	65.71
217.869	8.36
218.087	-36.69
218.306	82.09
218.524	26.79
218.742	30.89
218.96	37.03
219.179	16.55
219.397	-55.12
219.615	108.71
219.833	77.99
220.051	45.23
220.27	77.99
220.488	98.47
220.706	55.47
220.924	18.6
221.142	61.61
221.36	10.41
221.578	63.66
221.796	116.9
222.015	32.94
222.233	71.85
222.451	133.29
222.669	-40.79
222.887	75.95
223.105	-1.88
223.323	22.7
223.541	-28.5
223.759	121
223.977	14.51
224.195	75.95
224.413	49.32
224.631	18.6
224.849	65.71
225.067	82.09
225.285	45.23
225.503	43.18
225.721	-79.7
225.939	0.17
226.157	51.37
226.375	176.3
226.592	34.99
226.81	-51.03
227.028	59.56
227.246	28.84
227.464	34.99
227.682	108.71
227.9	30.89
228.117	-10.07
228.335	26.79
228.553	0.17
228.771	96.43
228.989	135.34
229.206	71.85
229.424	41.13
229.642	-18.26
229.86	20.65
230.077	121
230.295	51.37
230.513	88.23
230.731	71.85
230.948	94.38
231.166	145.58
231.384	-22.36
231.601	69.8
231.819	96.43
232.037	30.89
232.254	-36.69
232.472	24.75
232.689	61.61
232.907	32.94
233.125	45.23
233.342	94.38
233.56	-67.41
233.777	-3.93
233.995	49.32
234.213	84.14
234.43	108.71
234.648	28.84
234.865	26.79
235.083	170.15
235.3	-10.07
235.518	65.71
235.735	80.04
235.953	28.84
236.17	45.23
236.388	18.6
236.605	88.23
236.822	34.99
237.04	57.51
237.257	92.33
237.475	18.6
237.692	75.95
237.909	84.14
238.127	20.65
238.344	30.89
238.562	59.56
238.779	-44.88
238.996	-24.4
239.214	12.46
239.431	53.42
239.648	-8.02
239.865	88.23
240.083	65.71
240.3	43.18
240.517	-14.17
240.735	24.75
240.952	82.09
241.169	84.14
241.386	51.37
241.603	77.99
241.821	-16.21
242.038	98.47
242.255	32.94
242.472	-55.12
242.689	-1.88
242.907	80.04
243.124	24.75
243.341	41.13
243.558	-16.21
243.775	-34.64
243.992	-5.97
244.209	12.46
244.426	174.25
244.643	137.38
244.86	55.47
245.078	82.09
245.295	30.89
245.512	75.95
245.729	-51.03
245.946	71.85
246.163	18.6
246.38	6.31
246.597	63.66
246.814	137.38
247.031	26.79
247.248	39.08
247.464	41.13
247.681	39.08
247.898	49.32
248.115	30.89
248.332	2.22
248.549	41.13
248.766	98.47
248.983	4.27
249.2	-12.12
249.417	104.62
249.633	-10.07
249.85	73.9
250.067	82.09
250.284	-10.07
250.501	43.18
250.717	135.34
250.934	-48.98
251.151	43.18
251.368	22.7
251.585	12.46
251.801	-40.79
252.018	-36.69
252.235	80.04
252.451	49.32
252.668	16.55
252.885	80.04
253.102	-12.12
253.318	-18.26
253.535	59.56
253.752	20.65
253.968	-16.21
254.185	-36.69
254.401	16.55
254.618	-81.75
254.835	24.75
255.051	116.9
255.268	96.43
255.484	2.22
255.701	34.99
255.917	71.85
256.134	18.6
256.351	55.47
256.567	-32.6
256.784	73.9
257	-14.17
257.217	125.1
257.433	45.23
257.65	65.71
257.866	137.38
258.082	-5.97
258.299	-24.4
258.515	43.18
258.732	32.94
258.948	20.65
259.165	75.95
259.381	-34.64
259.597	22.7
259.814	-16.21
260.03	10.41
260.246	-5.97
260.463	82.09
260.679	57.51
260.895	30.89
261.112	108.71
261.328	-1.88
261.544	55.47
261.761	118.95
261.977	67.75
262.193	-69.46
262.409	30.89
262.626	37.03
262.842	10.41
263.058	10.41
263.274	84.14
263.49	-3.93
263.707	141.48
263.923	84.14
264.139	-14.17
264.355	77.99
264.571	133.29
264.787	96.43
265.004	65.71
265.22	47.27
265.436	-46.93
265.652	24.75
265.868	80.04
266.084	10.41
266.3	49.32
266.516	-32.6
266.732	14.51
266.948	20.65
267.164	-46.93
267.38	75.95
267.596	4.27
267.812	63.66
268.028	45.23
268.244	34.99
268.46	32.94
268.676	65.71
268.892	22.7
269.108	-48.98
269.324	67.75
269.54	53.42
269.756	53.42
269.972	57.51
270.188	-1.88
270.403	14.51
270.619	12.46
270.835	32.94
271.051	12.46
271.267	-12.12
271.483	49.32
271.698	73.9
271.914	59.56
272.13	67.75
272.346	73.9
272.562	26.79
272.777	106.67
272.993	53.42
273.209	37.03
273.425	51.37
273.64	-32.6
273.856	57.51
274.072	59.56
274.287	12.46
274.503	-12.12
274.719	104.62
274.934	-10.07
275.15	4.27
275.366	37.03
275.581	2.22
275.797	51.37
276.012	-40.79
276.228	14.51
276.444	86.19
276.659	135.34
276.875	16.55
277.09	-38.74
277.306	55.47
277.521	84.14
277.737	-26.45
277.952	41.13
278.168	43.18
278.383	-28.5
278.599	18.6
278.814	65.71
279.03	26.79
279.245	77.99
279.461	114.86
279.676	133.29
279.892	22.7
280.107	-28.5
280.322	-32.6
280.538	34.99
280.753	37.03
280.969	45.23
281.184	37.03
281.399	100.52
281.615	45.23
281.83	98.47
282.045	-30.55
282.26	37.03
282.476	32.94
282.691	49.32
282.906	82.09
283.122	16.55
283.337	-14.17
283.552	114.86
283.767	0.17
283.983	133.29
284.198	43.18
284.413	39.08
284.628	2.22
284.843	16.55
285.058	-1.88
285.274	43.18
285.489	-71.51
285.704	69.8
285.919	-10.07
286.134	2.22
286.349	22.7
286.564	26.79
286.779	73.9
286.995	90.28
287.21	-51.03
287.425	123.05
287.64	20.65
287.855	45.23
288.07	-30.55
288.285	73.9
288.5	20.65
288.715	43.18
288.93	77.99
289.145	-12.12
289.36	80.04
289.575	24.75
289.79	14.51
290.004	8.36
290.219	65.71
290.434	45.23
290.649	-3.93
290.864	-14.17
291.079	34.99
291.294	34.99
291.509	32.94
291.724	75.95
291.938	53.42
292.153	77.99
292.368	-3.93
292.583	-30.55
292.798	10.41
293.012	0.17
293.227	32.94
293.442	-5.97
293.657	47.27
293.871	53.42
294.086	57.51
294.301	139.43
294.516	59.56
294.73	18.6
294.945	-24.4
295.16	139.43
295.374	108.71
295.589	41.13
295.804	2.22
296.018	49.32
296.233	92.33
296.447	34.99
296.662	-10.07
296.877	84.14
297.091	92.33
297.306	75.95
297.52	-55.12
297.735	104.62
297.949	75.95
298.164	96.43
298.378	61.61
298.593	22.7
298.807	18.6
299.022	-8.02
299.236	112.81
299.451	20.65
299.665	-5.97
299.88	71.85
300.094	43.18
300.309	39.08
300.523	47.27
300.737	-10.07
300.952	86.19
301.166	30.89
301.381	16.55
301.595	57.51
301.809	0.17
302.024	45.23
302.238	-5.97
302.452	59.56
302.667	-10.07
302.881	110.76
303.095	55.47
303.309	84.14
303.524	8.36
303.738	-16.21
303.952	22.7
304.166	65.71
304.381	-40.79
304.595	104.62
304.809	14.51
305.023	41.13
305.237	39.08
305.452	22.7
305.666	69.8
305.88	73.9
306.094	34.99
306.308	94.38
306.522	10.41
306.736	61.61
306.95	114.86
307.164	69.8
307.379	47.27
307.593	123.05
307.807	39.08
308.021	104.62
308.235	65.71
308.449	41.13
308.663	24.75
308.877	104.62
309.091	20.65
309.305	92.33
309.519	-89.94
309.733	114.86
309.947	-32.6
310.161	65.71
310.374	57.51
310.588	75.95
310.802	37.03
311.016	28.84
311.23	-24.4
311.444	71.85
311.658	37.03
311.872	143.53
312.085	86.19
312.299	125.1
312.513	151.72
312.727	100.52
312.941	45.23
313.154	106.67
313.368	34.99
313.582	34.99
313.796	61.61
314.009	59.56
314.223	82.09
314.437	20.65
314.651	65.71
314.864	47.27
315.078	22.7
315.292	-38.74
315.505	51.37
315.719	67.75
315.933	67.75
316.146	-48.98
316.36	-16.21
316.573	157.86
316.787	80.04
317.001	18.6
317.214	-18.26
317.428	18.6
317.641	10.41
317.855	-36.69
318.068	26.79
318.282	37.03
318.495	141.48
318.709	47.27
318.922	69.8
319.136	125.1
319.349	49.32
319.563	18.6
319.776	51.37
319.99	-18.26
320.203	43.18
320.417	73.9
320.63	96.43
320.843	145.58
321.057	65.71
321.27	16.55
321.483	53.42
321.697	106.67
321.91	63.66
322.124	43.18
322.337	49.32
322.55	57.51
322.763	37.03
322.977	4.27
323.19	-28.5
323.403	53.42
323.617	84.14
323.83	102.57
324.043	34.99
324.256	16.55
324.469	10.41
324.683	63.66
324.896	41.13
325.109	82.09
325.322	18.6
325.535	24.75
325.748	57.51
325.962	39.08
326.175	12.46
326.388	127.14
326.601	127.14
326.814	45.23
327.027	8.36
327.24	157.86
327.453	59.56
327.666	39.08
327.879	112.81
328.092	8.36
328.305	47.27
328.518	18.6
328.731	-40.79
328.944	73.9
329.157	69.8
329.37	34.99
329.583	139.43
329.796	143.53
330.009	0.17
330.222	57.51
330.435	-1.88
330.648	43.18
330.861	28.84
331.073	63.66
331.286	121
331.499	49.32
331.712	-38.74
331.925	-30.55
332.138	24.75
332.35	-69.46
332.563	0.17
332.776	114.86
332.989	63.66
333.202	69.8
333.414	37.03
333.627	77.99
333.84	24.75
334.053	-36.69
334.265	77.99
334.478	20.65
334.691	20.65
334.903	86.19
335.116	37.03
335.329	14.51
335.541	30.89
335.754	90.28
335.966	34.99
336.179	-8.02
336.392	-46.93
336.604	57.51
336.817	118.95
337.029	86.19
337.242	37.03
337.454	100.52
337.667	43.18
337.88	12.46
338.092	12.46
338.305	39.08
338.517	59.56
338.729	73.9
338.942	104.62
339.154	-36.69
339.367	16.55
339.579	127.14
339.792	4.27
340.004	26.79
340.217	57.51
340.429	34.99
340.641	-48.98
340.854	55.47
341.066	10.41
341.278	61.61
341.491	143.53
341.703	2.22
341.915	-57.17
342.128	131.24
342.34	47.27
342.552	-1.88
342.764	47.27
342.977	34.99
343.189	80.04
343.401	96.43
343.613	12.46
343.826	80.04
344.038	20.65
344.25	-14.17
344.462	22.7
344.674	90.28
344.886	73.9
345.099	186.54
345.311	53.42
345.523	-5.97
345.735	8.36
345.947	43.18
346.159	45.23
346.371	49.32
346.583	67.75
346.795	133.29
347.007	-16.21
347.219	92.33
347.431	59.56
347.643	121
347.855	20.65
348.067	118.95
348.279	127.14
348.491	26.79
348.703	69.8
348.915	6.31
349.127	-18.26
349.339	86.19
349.551	26.79
349.763	80.04
349.975	51.37
350.187	90.28
350.399	108.71
350.61	129.19
350.822	118.95
351.034	65.71
351.246	-16.21
351.458	110.76
351.669	75.95
351.881	12.46
352.093	49.32
352.305	92.33
352.517	98.47
352.728	133.29
352.94	32.94
353.152	49.32
353.363	53.42
353.575	16.55
353.787	71.85
353.999	96.43
354.21	90.28
354.422	12.46
354.633	24.75
354.845	-12.12
355.057	80.04
355.268	112.81
355.48	77.99
355.692	-38.74
355.903	41.13
356.115	20.65
356.326	-61.27
356.538	92.33
356.749	49.32
356.961	86.19
357.172	114.86
357.384	20.65
357.595	114.86
357.807	34.99
358.018	59.56
358.23	67.75
358.441	100.52
358.653	116.9
358.864	43.18
359.075	127.14
359.287	24.75
359.498	149.67
359.709	84.14
359.921	49.32
360.132	41.13
360.344	16.55
360.555	18.6
360.766	108.71
360.977	82.09
361.189	86.19
361.4	-59.22
361.611	123.05
361.823	100.52
362.034	82.09
362.245	16.55
362.456	90.28
362.667	108.71
362.879	63.66
363.09	96.43
363.301	96.43
363.512	63.66
363.723	67.75
363.935	0.17
364.146	159.91
364.357	26.79
364.568	92.33
364.779	-16.21
364.99	18.6
365.201	77.99
365.412	102.57
365.623	-51.03
365.834	47.27
366.045	32.94
366.256	75.95
366.467	133.29
366.678	51.37
366.889	45.23
367.1	-46.93
367.311	61.61
367.522	14.51
367.733	96.43
367.944	84.14
368.155	59.56
368.366	88.23
368.577	43.18
368.788	61.61
368.999	2.22
369.209	53.42
369.42	151.72
369.631	90.28
369.842	75.95
370.053	34.99
370.264	92.33
370.474	20.65
370.685	57.51
370.896	65.71
371.107	137.38
371.317	86.19
371.528	22.7
371.739	98.47
371.95	30.89
372.16	157.86
372.371	61.61
372.582	0.17
372.792	65.71
373.003	22.7
373.214	39.08
373.424	43.18
373.635	94.38
373.846	41.13
374.056	-1.88
374.267	104.62
374.477	55.47
374.688	34.99
374.898	98.47
375.109	43.18
375.319	63.66
375.53	116.9
375.74	143.53
375.951	22.7
376.161	55.47
376.372	108.71
376.582	-61.27
376.793	94.38
377.003	77.99
377.214	49.32
377.424	106.67
377.635	67.75
377.845	20.65
378.055	188.58
378.266	-28.5
378.476	26.79
378.686	32.94
378.897	30.89
379.107	73.9
379.317	53.42
379.528	12.46
379.738	39.08
379.948	30.89
380.158	73.9
380.369	69.8
380.579	45.23
380.789	65.71
380.999	65.71
381.21	104.62
381.42	123.05
381.63	86.19
381.84	57.51
382.05	24.75
382.261	127.14
382.471	16.55
382.681	-8.02
382.891	131.24
383.101	71.85
383.311	47.27
383.521	67.75
383.731	182.44
383.941	104.62
384.151	57.51
384.361	96.43
384.571	82.09
384.781	30.89
384.991	127.14
385.201	127.14
385.411	161.96
385.621	84.14
385.831	100.52
386.041	8.36
386.251	20.65
386.461	223.4
386.671	43.18
386.881	37.03
387.091	65.71
387.301	116.9
387.511	53.42
387.72	57.51
387.93	121
388.14	-3.93
388.35	43.18
388.56	129.19
388.769	59.56
388.979	-16.21
389.189	18.6
389.399	4.27
389.609	65.71
389.818	123.05
390.028	63.66
390.238	45.23
390.447	-28.5
390.657	67.75
390.867	110.76
391.076	90.28
391.286	49.32
391.496	71.85
391.705	-1.88
391.915	129.19
392.125	104.62
392.334	116.9
392.544	129.19
392.753	39.08
392.963	73.9
393.172	80.04
393.382	49.32
393.591	137.38
393.801	86.19
394.01	180.39
394.22	39.08
394.429	80.04
394.639	84.14
394.848	75.95
395.058	57.51
395.267	82.09
395.477	104.62
395.686	137.38
395.895	135.34
396.105	178.34
396.314	123.05
396.524	57.51
396.733	131.24
396.942	127.14
397.152	86.19
397.361	168.1
397.57	28.84
397.78	114.86
397.989	118.95
398.198	172.2
398.407	82.09
398.617	92.33
398.826	112.81
399.035	47.27
399.244	137.38
399.453	147.62
399.663	102.57
399.872	110.76
400.081	32.94
400.29	145.58
400.499	34.99
400.708	129.19
400.917	43.18
401.127	86.19
401.336	114.86
401.545	145.58
401.754	204.97
401.963	172.2
402.172	90.28
402.381	127.14
402.59	170.15
402.799	184.49
403.008	217.26
403.217	164.01
403.426	184.49
403.635	135.34
403.844	157.86
404.053	131.24
404.262	178.34
404.471	327.85
404.68	170.15
404.888	157.86
405.097	256.17
405.306	213.16
405.515	229.54
405.724	217.26
405.933	239.78
406.142	209.06
406.35	227.5
406.559	221.35
406.768	174.25
406.977	215.21
407.185	229.54
407.394	262.31
407.603	192.68
407.812	284.84
408.02	290.98
408.229	196.78
408.438	231.59
408.646	260.26
408.855	282.79
409.064	237.74
409.272	227.5
409.481	368.81
409.69	290.98
409.898	260.26
410.107	356.52
410.315	381.09
410.524	268.45
410.733	385.19
410.941	356.52
411.15	465.06
411.358	452.77
411.567	501.92
411.775	383.14
411.984	475.3
412.192	477.35
412.401	467.11
412.609	544.93
412.818	559.27
413.026	551.07
413.234	508.07
413.443	538.79
413.651	618.66
413.86	635.04
414.068	655.52
414.276	700.58
414.485	755.87
414.693	669.86
414.901	770.21
415.11	735.39
415.318	802.97
415.526	772.25
415.734	807.07
415.943	872.61
416.151	940.19
416.359	938.14
416.567	987.29
416.776	921.76
416.984	1005.72
417.192	1063.07
417.4	1065.11
417.608	1087.64
417.817	1036.44
418.025	1228.95
418.233	1239.19
418.441	1198.23
418.649	1360.02
418.857	1327.25
419.065	1439.89
419.273	1360.02
419.481	1448.08
419.689	1564.82
419.897	1640.59
420.105	1626.26
420.313	1734.8
420.521	1794.19
420.729	1845.39
420.937	1759.38
421.145	1917.07
421.353	1978.51
421.561	2146.44
421.769	2076.81
421.977	2267.27
422.185	2154.63
422.393	2349.19
422.601	2375.81
422.809	2433.16
423.017	2541.7
423.224	2662.53
423.432	2701.44
423.64	2693.25
423.848	2973.82
424.056	2861.18
424.263	3076.22
424.471	2994.3
424.679	3125.37
424.887	3375.22
425.094	3510.39
425.302	3414.13
425.51	3670.13
425.718	3709.04
425.925	3723.38
426.133	4016.24
426.341	4057.2
426.548	4298.86
426.756	4175.98
426.964	4296.81
427.171	4446.31
427.379	4585.57
427.586	4739.17
427.794	4868.19
428.001	5175.39
428.209	5339.23
428.417	5152.86
428.624	5558.36
428.832	5656.66
429.039	5390.42
429.247	5415
429.454	6144.08
429.662	6422.6
429.869	6027.34
430.076	6613.06
430.284	6344.78
430.491	6656.07
430.699	7047.23
430.906	6924.35
431.114	7297.08
431.321	7241.79
431.528	7579.7
431.736	7721.01
431.943	8454.19
432.15	8087.6
432.358	8032.3
432.565	8534.06
432.772	8515.62
432.979	9105.44
433.187	9158.69
433.394	9185.31
433.601	9674.78
433.808	9814.04
434.016	9889.81
434.223	10188.82
434.43	10887.17
434.637	10674.18
434.844	11231.23
435.052	11472.89
435.259	11499.52
435.466	11571.19
435.673	11436.03
435.88	11984.88
436.087	12838.89
436.294	12789.74
436.501	12591.08
436.708	12619.75
436.915	13170.66
437.122	13932.5
437.329	13606.88
437.537	14022.61
437.743	14424.01
437.95	14268.37
438.157	15130.56
438.364	15409.09
438.571	15454.14
438.778	15583.16
438.985	17010.6
439.192	16375.73
439.399	16779.18
439.606	16609.2
439.813	17178.53
440.02	18392.98
440.227	17940.38
440.433	17967
440.64	18239.38
440.847	18446.23
441.054	19079.05
441.261	20199.29
441.467	19861.37
441.674	20111.22
441.881	20768.62
442.088	20819.82
442.294	20733.81
442.501	21057.39
442.708	21862.24
442.914	22234.97
443.121	23394.12
443.328	22503.25
443.534	24358.71
443.741	23502.66
443.948	23156.55
444.154	25448.23
444.361	24710.96
444.568	25048.88
444.774	25093.93
444.981	25337.64
445.187	25874.21
445.394	27256.59
445.6	27143.95
445.807	29617.89
446.013	28163.84
446.22	28577.53
446.426	29859.56
446.633	29974.24
446.839	30987.99
447.046	29550.31
447.252	31665.86
447.459	31542.99
447.665	31268.56
447.871	32513.72
448.078	33658.54
448.284	32374.46
448.491	33253.04
448.697	34164.39
448.903	34877.08
449.11	35190.42
449.316	34598.55
449.522	35464.85
449.728	36226.69
449.935	36451.97
450.141	36554.36
450.347	37379.7
450.553	36087.43
450.76	36904.57
450.966	37666.41
451.172	37361.26
451.378	38162.02
451.584	37262.96
451.791	38293.09
451.997	38174.31
452.203	38534.75
452.409	38921.82
452.615	38510.18
452.821	36939.38
453.027	36712.06
453.233	38915.67
453.44	37062.26
453.646	37324.4
453.852	37686.89
454.058	38135.4
454.264	36986.49
454.47	37721.71
454.676	37002.87
454.882	37965.42
455.088	34616.99
455.294	35276.43
455.5	36175.49
455.705	36023.94
455.911	34793.11
456.117	33816.23
456.323	33408.68
456.529	31876.8
456.735	33242.8
456.941	32440
457.147	31555.27
457.352	30785.24
457.558	30320.35
457.764	30777.05
457.97	29742.82
458.176	28946.16
458.381	29292.27
458.587	28034.81
458.793	27438.86
458.999	26011.42
459.204	28411.64
459.41	27252.49
459.616	25450.28
459.821	25634.6
460.027	25218.86
460.233	24457.01
460.438	24010.56
460.644	23848.77
460.85	22716.24
461.055	22402.9
461.261	22464.34
461.466	20586.35
461.672	19689.34
461.878	21368.68
462.083	20068.22
462.289	19535.74
462.494	19224.45
462.7	18700.17
462.905	17958.81
463.111	18524.05
463.316	18687.89
463.522	18354.07
463.727	18364.31
463.932	18339.73
464.138	17952.66
464.343	18225.04
464.549	17567.65
464.754	18124.69
464.959	18087.83
465.165	18003.86
465.37	17190.82
465.575	16625.58
465.781	17170.34
465.986	17344.42
466.191	16793.51
466.397	16535.47
466.602	15675.32
466.807	16285.62
467.012	16037.81
467.218	15869.88
467.423	15724.47
467.628	15833.02
467.833	16514.99
468.038	16039.86
468.244	15523.77
468.449	16185.27
468.654	15536.06
468.859	15484.86
469.064	15312.83
469.269	14893
469.474	14860.23
469.679	15339.46
469.885	14907.34
470.09	14839.75
470.295	14665.67
470.5	14303.18
470.705	14594
470.91	14282.7
471.115	13836.25
471.32	14139.35
471.525	14041.04
471.73	13826.01
471.935	13758.42
472.139	13213.67
472.344	13481.95
472.549	13084.64
472.754	13473.76
472.959	12785.64
473.164	12713.96
473.369	12486.64
473.574	12808.17
473.778	12642.28
473.983	12466.16
474.188	12521.45
474.393	11821.05
474.598	11945.97
474.802	11927.54
475.007	11880.44
475.212	12122.1
475.417	11558.91
475.621	11331.58
475.826	11231.23
476.031	11220.99
476.235	10928.13
476.44	11227.14
476.645	10831.88
476.849	10860.55
477.054	10663.94
477.259	10672.14
477.463	10528.78
477.668	10307.6
477.872	10371.08
478.077	10223.63
478.282	10020.88
478.486	9889.81
478.691	9730.07
478.895	9807.89
479.1	9834.52
479.304	9793.56
479.509	9461.79
479.713	9666.58
479.918	9320.48
480.122	9396.25
480.326	9496.6
480.531	9596.95
480.735	9402.4
480.94	9033.76
481.144	9400.35
481.348	8894.5
481.553	9017.38
481.757	8914.98
481.961	9000.99
482.166	9187.36
482.37	8884.26
482.574	8912.93
482.778	8757.29
482.983	8998.95
483.187	8824.87
483.391	8996.9
483.595	8876.07
483.8	8689.7
484.004	8884.26
484.208	9123.87
484.412	8871.97
484.616	8994.85
484.821	8833.06
485.025	8931.36
485.229	8740.9
485.433	8957.99
485.637	8720.42
485.841	8726.57
486.045	8896.55
486.249	8888.36
486.453	8853.54
486.657	8808.48
486.861	8851.49
487.065	8779.81
487.269	8861.73
487.473	8661.03
487.677	8927.27
487.881	8951.84
488.085	8847.4
488.289	8904.74
488.493	8671.27
488.697	8964.13
488.901	8863.78
489.105	8810.53
489.309	8978.47
489.512	8882.21
489.716	9076.77
489.92	8859.68
490.124	8790.05
490.328	9029.66
490.531	8964.13
490.735	9168.93
490.939	8976.42
491.143	8824.87
491.346	8943.65
491.55	9113.63
491.754	9078.82
491.958	9095.2
492.161	8939.55
492.365	9226.27
492.569	9162.78
492.772	9113.63
492.976	9363.48
493.18	9330.72
493.383	9443.35
493.587	9467.93
493.79	9599
493.994	9457.69
494.197	9564.18
494.401	9519.13
494.605	9656.34
494.808	9910.29
495.012	9648.15
495.215	9936.92
495.419	9922.58
495.622	9883.67
495.825	10033.17
496.029	10141.71
496.232	10334.22
496.436	10108.94
496.639	10647.56
496.843	10328.08
497.046	10698.76
497.249	10743.81
497.453	10528.78
497.656	10772.49
497.859	10938.37
498.063	10827.78
498.266	11186.18
498.469	11100.16
498.673	10993.67
498.876	11421.69
499.079	11483.13
499.282	11538.43
499.485	11853.81
499.689	11649.02
499.892	11966.45
500.095	11997.17
500.298	12267.5
500.501	12191.73
500.705	12247.02
500.908	12574.7
501.111	12613.61
501.314	12836.84
501.517	12789.74
501.72	13002.72
501.923	12799.98
502.126	13244.38
502.329	13430.75
502.532	13420.51
502.735	13608.92
502.938	13727.71
503.141	13871.06
503.344	14278.61
503.547	14315.47
503.75	14114.77
503.953	14616.52
504.156	14487.5
504.359	14829.51
504.562	14831.56
504.765	14952.39
504.968	15208.39
505.17	15740.86
505.373	15523.77
505.576	15591.36
505.779	15826.87
505.982	15876.02
506.185	16222.13
506.387	16316.34
506.59	16011.19
506.793	16924.58
506.996	16820.14
507.198	16967.59
507.401	16834.47
507.604	17051.56
507.807	17555.36
508.009	17768.35
508.212	17737.63
508.415	17797.02
508.617	17977.24
508.82	18075.54
509.022	18143.13
509.225	18653.07
509.428	18554.77
509.63	18716.56
509.833	18796.43
510.035	19378.05
510.238	19251.08
510.44	19545.98
510.643	19888
510.845	19722.11
511.048	19728.25
511.25	20129.66
511.453	20256.63
511.655	21024.62
511.858	20602.74
512.06	20733.81
512.262	20944.75
512.465	21012.33
512.667	21000.04
512.87	21301.09
513.072	21210.98
513.274	21716.83
513.477	21927.77
513.679	22343.51
513.881	22476.63
514.084	22589.27
514.286	22384.47
514.488	22800.21
514.69	23363.4
514.893	23279.43
515.095	23426.89
515.297	23549.76
515.499	23564.1
515.701	23678.79
515.904	24143.67
516.106	24006.46
516.308	24270.65
516.51	24381.24
516.712	24670
516.914	24602.42
517.116	25091.88
517.318	25069.36
517.52	25323.3
517.722	25429.8
517.925	25499.43
518.127	25876.26
518.329	26277.66
518.531	25868.06
518.733	26433.3
518.935	26556.18
519.136	26384.15
519.338	26621.72
519.54	26939.15
519.742	26787.6
519.944	27277.07
520.146	27870.98
520.348	27565.83
520.55	27881.22
520.752	27731.72
520.954	28129.02
521.155	27916.03
521.357	28417.79
521.559	28276.48
521.761	28917.49
521.963	28628.73
522.164	28536.57
522.366	28860.15
522.568	29128.43
522.77	29218.54
522.971	29826.79
523.173	29464.3
523.375	29959.91
523.576	29626.09
523.778	29789.92
523.98	29886.18
524.181	29859.56
524.383	29943.52
524.584	30275.29
524.786	30373.6
524.988	30226.14
525.189	30449.37
525.391	30619.35
525.592	30813.91
525.794	30785.24
525.995	30629.59
526.197	30629.59
526.398	30918.35
526.6	31416.01
526.801	31248.08
527.003	31352.52
527.204	31141.58
527.406	31526.6
527.607	31268.56
527.808	31663.82
528.01	31219.41
528.211	31446.73
528.412	32124.61
528.614	31516.36
528.815	31657.67
529.016	31993.54
529.218	31729.35
529.419	31698.63
529.62	31706.82
529.822	31616.71
530.023	31651.53
530.224	32001.73
530.425	31702.73
530.626	31633.1
530.828	31428.3
531.029	32239.29
531.23	31858.37
531.431	31629
531.632	31563.47
531.833	31977.15
532.035	31821.51
532.236	31856.32
532.437	31966.91
532.638	31772.36
532.839	31858.37
533.04	31813.32
533.241	31604.42
533.442	32403.13
533.643	32108.22
533.844	31672.01
534.045	32018.11
534.246	31745.73
534.447	31755.97
534.648	31745.73
534.849	31788.74
535.05	31688.39
535.251	31758.02
535.451	31583.94
535.652	31551.18
535.853	31440.59
536.054	32022.21
536.255	31831.75
536.456	31477.45
536.657	32136.9
536.857	31729.35
537.058	31383.24
537.259	31674.06
537.46	31723.21
537.66	31510.22
537.861	31502.03
538.062	31641.29
538.263	31514.31
538.463	31262.41
538.664	31479.5
538.865	31420.11
539.065	31743.69
539.266	31178.45
539.466	31749.83
539.667	31067.86
539.868	31731.4
540.068	31319.76
540.269	31164.11
540.469	31665.86
540.67	31327.95
540.87	30971.6
541.071	31264.46
541.271	31571.66
541.472	31217.36
541.672	30881.49
541.873	30963.41
542.073	30525.14
542.274	31399.63
542.474	30871.25
542.675	30830.29
542.875	31405.77
543.075	30947.03
543.276	30779.09
543.476	31219.41
543.676	31055.57
543.877	30963.41
544.077	30951.12
544.277	31076.05
544.478	30668.5
544.678	30846.68
544.878	30531.29
545.078	31012.56
545.279	30512.86
545.479	30680.79
545.679	31006.42
545.879	30525.14
546.079	30664.41
546.28	30381.79
546.48	30273.24
546.68	30492.38
546.88	30807.76
547.08	30654.17
547.28	30596.82
547.48	30107.36
547.68	30586.58
547.88	30437.08
548.081	30451.42
548.281	30279.39
548.481	30254.81
548.681	30334.68
548.881	30432.99
549.081	30469.85
549.28	30430.94
549.48	30789.33
549.68	30441.18
549.88	30502.62
550.08	30056.16
550.28	30252.77
550.48	30359.26
550.68	30777.05
550.88	30004.96
551.08	30424.79
551.279	30310.11
551.479	30101.22
551.679	30398.17
551.879	30273.24
552.079	30299.87
552.278	30029.54
552.478	30316.25
552.678	29767.4
552.878	30199.52
553.077	29714.15
553.277	29781.73
553.477	30203.61
553.676	30017.25
553.876	30023.39
554.076	30056.16
554.275	29736.68
554.475	29437.67
554.674	29890.27
554.874	29949.67
555.074	29572.84
555.273	29791.97
555.473	29861.6
555.672	29923.04
555.872	29681.38
556.071	29761.25
556.271	29861.6
556.47	29542.12
556.67	29417.19
556.869	29847.27
557.068	29693.67
557.268	29413.1
557.467	29525.74
557.667	29699.81
557.866	29753.06
558.065	29419.24
558.265	29337.32
558.464	29273.84
558.663	29486.82
558.863	29327.08
559.062	29718.25
559.261	29054.7
559.461	29538.02
559.66	29134.57
559.859	29071.09
560.058	28890.87
560.258	29165.29
560.457	28905.2
560.656	29552.36
560.855	28655.35
561.054	29265.64
561.253	28856.05
561.453	29277.93
561.652	29064.94
561.851	28972.78
562.05	29032.18
562.249	28722.93
562.448	29140.72
562.647	29032.18
562.846	28886.77
563.045	29101.81
563.244	28684.02
563.443	28909.3
563.642	28434.17
563.841	28630.77
564.04	28729.08
564.239	28950.26
564.438	28591.86
564.637	28485.37
564.836	28868.34
565.035	28665.59
565.234	28339.96
565.432	28380.92
565.631	28409.59
565.83	28759.8
566.029	28292.86
566.228	28251.9
566.427	28387.07
566.625	28342.01
566.824	27862.79
567.023	28346.11
567.222	28239.61
567.42	28534.52
567.619	28018.43
567.818	28073.73
568.016	28083.97
568.215	28497.66
568.414	28323.58
568.612	28360.44
568.811	28081.92
569.01	28284.67
569.208	27502.34
569.407	28296.95
569.605	28012.29
569.804	28061.44
570.002	27987.71
570.201	28012.29
570.4	27832.07
570.598	27834.11
570.797	27649.8
570.995	27705.09
571.193	27647.75
571.392	28047.1
571.59	27408.14
571.789	27823.87
571.987	27451.14
572.186	27434.76
572.384	27135.76
572.582	27623.17
572.781	27490.06
572.979	26863.38
573.177	27217.68
573.376	27633.41
573.574	27016.97
573.772	27516.68
573.971	27160.33
574.169	27023.12
574.367	26631.96
574.565	27043.6
574.763	26922.77
574.962	27152.14
575.16	27016.97
575.358	27240.2
575.556	26490.65
575.754	27414.28
575.952	26527.51
576.151	26840.85
576.349	26711.83
576.547	26846.99
576.745	26814.23
576.943	26425.11
577.141	26570.52
577.339	26543.89
577.537	26365.72
577.735	26591
577.933	26017.57
578.131	26578.71
578.329	26304.28
578.527	26195.74
578.725	26099.48
578.923	25884.45
579.121	26244.89
579.319	26183.45
579.516	26246.94
579.714	26470.17
579.912	25892.64
580.11	25689.89
580.308	25847.58
580.506	26023.71
580.704	25552.68
580.901	25849.63
581.099	26091.29
581.297	25571.11
581.495	25579.3
581.692	25771.81
581.89	25446.18
582.088	25644.84
582.285	25153.32
582.483	25358.12
582.681	25614.12
582.878	25397.03
583.076	25040.68
583.274	25433.89
583.471	24844.08
583.669	25040.68
583.866	24977.2
584.064	25169.71
584.262	24895.28
584.459	25458.47
584.657	24719.15
584.854	25214.76
585.052	24577.84
585.249	24809.26
585.447	24626.99
585.644	24698.67
585.841	24586.04
586.039	24405.81
586.236	24414.01
586.434	24354.62
586.631	24387.38
586.828	24198.97
587.026	24506.16
587.223	24319.8
587.42	24268.6
587.618	24594.23
587.815	23826.24
588.012	23875.39
588.21	23926.59
588.407	24387.38
588.604	23859.01
588.801	23924.54
588.999	23760.7
589.196	23992.12
589.393	23783.23
589.59	23707.46
589.787	23443.27
589.984	23699.27
590.182	23308.1
590.379	23934.78
590.576	23603.01
590.773	23648.07
590.97	23582.53
591.167	23437.13
591.364	23441.22
591.561	23625.54
591.758	23134.03
591.955	23502.66
592.152	23543.62
592.349	23119.69
592.546	23150.41
592.743	22949.71
592.94	22798.16
593.137	23326.53
593.334	23224.14
593.531	22787.92
593.727	23029.58
593.924	22865.74
594.121	22912.85
594.318	22640.47
594.515	22357.85
594.712	22767.44
594.908	22712.14
595.105	22677.33
595.302	22349.65
595.499	22466.39
595.696	22445.91
595.892	22267.73
596.089	22482.77
596.286	22265.69
596.482	22157.14
596.679	22370.13
596.876	22525.78
597.072	22189.91
597.269	22097.75
597.466	21890.91
597.662	22085.47
597.859	22378.33
598.055	21991.26
598.252	22058.84
598.448	21684.06
598.645	22237.02
598.841	21512.03
599.038	21925.72
599.234	22228.82
599.431	21573.47
599.627	21583.71
599.824	21731.17
600.02	21518.18
600.217	21591.91
600.413	21581.67
600.609	21792.61
600.806	21557.09
601.002	21460.84
601.198	21210.98
601.395	21366.63
601.591	21563.23
601.787	21415.78
601.984	21346.15
602.18	21397.35
602.376	21329.77
602.572	21180.26
602.769	21245.8
602.965	21038.95
603.161	21088.1
603.357	20981.61
603.553	21127.02
603.75	21247.85
603.946	21006.19
604.142	21397.35
604.338	20760.43
604.534	21094.25
604.73	20608.88
604.926	20758.38
605.122	21034.86
605.318	20647.79
605.514	20647.79
605.71	20658.03
605.906	20682.61
606.102	20752.24
606.298	20629.36
606.494	20660.08
606.69	20739.95
606.886	20793.2
607.082	20391.8
607.278	20490.1
607.474	20514.67
607.67	20725.61
607.866	20162.42
608.062	20764.53
608.257	20553.59
608.453	20338.55
608.649	20586.35
608.845	20246.39
609.041	20467.57
609.236	20641.65
609.432	20455.28
609.628	20381.56
609.824	20559.73
610.019	20346.74
610.215	20537.2
610.411	20639.6
610.606	20230.01
610.802	20588.4
610.998	20414.32
611.193	20426.61
611.389	20539.25
611.584	20176.76
611.78	20391.8
611.976	20371.32
612.171	20395.89
612.367	20381.56
612.562	20367.22
612.758	20246.39
612.953	20060.02
613.149	20422.52
613.344	19943.29
613.539	20518.77
613.735	20180.85
613.93	20483.95
614.126	20098.94
614.321	20420.47
614.517	20373.36
614.712	20416.37
614.907	20277.11
615.103	20340.6
615.298	20092.79
615.493	20676.46
615.688	19896.19
615.884	20291.45
616.079	20152.18
616.274	20334.45
616.47	20049.78
616.665	20031.35
616.86	20078.46
617.055	20139.9
617.25	19933.05
617.445	20234.1
617.641	19820.41
617.836	20055.93
618.031	19818.36
618.226	20176.76
618.421	19816.32
618.616	19873.66
618.811	19658.62
619.006	19955.58
619.201	19808.12
619.396	19718.01
619.591	19316.61
619.786	19742.59
619.981	19275.65
620.176	19863.42
620.371	19609.47
620.566	19386.24
620.761	19541.89
620.956	19615.62
621.151	19253.12
621.346	19513.22
621.541	19126.15
621.735	19046.28
621.93	19191.69
622.125	18956.17
622.32	18847.63
622.515	18990.98
622.709	18732.94
622.904	18601.87
623.099	18478.99
623.294	18710.41
623.488	18466.7
623.683	18395.03
623.878	18216.85
624.072	18552.72
624.267	18358.16
624.462	18040.73
624.656	18014.1
624.851	18223
625.046	17911.71
625.24	17952.66
625.435	17680.28
625.629	17954.71
625.824	17655.71
626.018	17729.44
626.213	17348.51
626.407	17541.02
626.602	17541.02
626.796	17463.2
626.991	17471.39
627.185	17262.5
627.38	16674.73
627.574	16961.45
627.768	17004.46
627.963	16652.2
628.157	16664.49
628.352	16627.63
628.546	16357.3
628.74	16674.73
628.935	16568.24
629.129	16629.68
629.323	16514.99
629.517	16396.21
629.712	16193.46
629.906	16406.45
630.1	15955.9
630.294	15845.3
630.489	15845.3
630.683	16050.1
630.877	15916.98
631.071	15652.8
631.265	15828.92
631.459	15581.12
631.653	15206.34
631.848	15691.71
632.042	15376.32
632.236	15370.18
632.43	15327.17
632.624	15138.76
632.818	15302.59
633.012	15116.23
633.206	15093.7
633.4	15146.95
633.594	14735.31
633.788	15083.46
633.982	14770.12
634.176	14880.71
634.369	14870.47
634.563	14655.44
634.757	14503.89
634.951	14577.61
635.145	14579.66
635.339	14620.62
635.533	14444.49
635.726	14219.22
635.92	14176.21
636.114	14206.93
636.308	13995.99
636.501	13850.58
636.695	14063.57
636.889	13785.05
637.083	13680.6
637.276	13619.16
637.47	13787.1
637.664	13604.83
637.857	13797.34
638.051	13551.58
638.244	13385.69
638.438	13756.38
638.632	13240.29
638.825	13144.03
639.019	13275.1
639.212	13105.12
639.406	13033.44
639.599	12896.23
639.793	13080.55
639.986	13004.77
640.18	12859.37
640.373	12527.6
640.567	12668.91
640.76	12552.17
640.954	12730.34
641.147	12457.96
641.34	12216.3
641.534	12503.02
641.727	12486.64
641.92	12015.6
642.114	12269.55
642.307	12058.61
642.5	12085.23
642.694	11997.17
642.887	11642.87
643.08	11943.92
643.273	11962.36
643.467	11759.61
643.66	11661.3
643.853	11517.95
644.046	11413.5
644.239	11401.21
644.432	11337.73
644.626	11294.72
644.819	11425.79
645.012	11266.05
645.205	11089.92
645.398	11204.61
645.591	11001.86
645.784	10921.99
645.977	10854.41
646.17	10821.64
646.363	10954.76
646.556	10711.05
646.749	10739.72
646.942	10719.24
647.135	10680.33
647.328	10641.42
647.521	10436.62
647.714	10416.14
647.907	10362.89
648.099	10201.1
648.292	10395.66
648.485	10145.81
648.678	9836.56
648.871	10151.95
649.064	10237.97
649.256	9900.05
649.449	9793.56
649.642	9771.03
649.835	9844.76
650.027	9734.17
650.22	9891.86
650.413	9400.35
650.605	9560.09
650.798	9412.64
650.991	9353.24
651.183	9412.64
651.376	9402.4
651.568	9476.12
651.761	9281.57
651.954	9244.7
652.146	9312.28
652.339	9173.02
652.531	9170.97
652.724	8808.48
652.916	8763.43
653.109	8886.31
653.301	8906.79
653.494	8931.36
653.686	8812.58
653.879	8865.83
654.071	8638.5
654.263	8728.61
654.456	8820.77
654.648	8515.62
654.84	8388.65
655.033	8534.06
655.225	8474.67
655.417	8233.01
655.61	8400.94
655.802	8370.22
655.994	8110.13
656.186	8265.77
656.379	8030.26
656.571	7952.43
656.763	7899.19
656.955	7923.76
657.148	8026.16
657.34	8046.64
657.532	7637.05
657.724	7696.44
657.916	7901.23
658.108	7600.18
658.3	7807.03
658.492	7602.23
658.684	7430.2
658.876	7573.56
659.068	7387.19
659.26	7168.06
659.452	7499.83
659.644	7344.19
659.836	7288.89
660.028	7223.36
660.22	7067.71
660.412	7200.83
660.604	6848.58
660.796	6873.15
660.988	7004.22
661.18	6758.47
661.372	6977.6
661.563	6938.69
661.755	6758.47
661.947	6867.01
662.139	6664.26
662.331	6750.28
662.522	6580.29
662.714	6721.6
662.906	6453.32
663.097	6547.53
663.289	6479.94
663.481	6367.31
663.673	6406.22
663.864	6279.24
664.056	6178.89
664.247	6287.43
664.439	6133.84
664.631	6281.29
664.822	6139.98
665.014	6123.6
665.205	6271.05
665.397	6113.36
665.588	6074.45
665.78	5910.61
665.971	6049.87
666.163	5894.22
666.354	5871.7
666.546	5926.99
666.737	5679.19
666.929	5836.88
667.12	5896.27
667.311	5615.7
667.503	5652.56
667.694	5765.2
667.885	5673.04
668.077	5634.13
668.268	5396.57
668.459	5654.61
668.651	5466.2
668.842	5486.68
669.033	5490.77
669.224	5283.93
669.416	5548.12
669.607	5460.06
669.798	5410.9
669.989	5548.12
670.18	5314.65
670.371	5255.26
670.563	5181.53
670.754	5249.11
670.945	5177.44
671.136	5181.53
671.327	5214.3
671.518	5267.55
671.709	5193.82
671.9	5216.35
672.091	5120.09
672.282	5136.48
672.473	5007.45
672.664	5064.8
672.855	4962.4
673.046	5046.37
673.237	5113.95
673.428	5068.89
673.619	5070.94
673.809	4882.53
674	4917.34
674.191	4935.78
674.382	4753.51
674.573	4804.71
674.764	4909.15
674.954	4905.06
675.145	4694.12
675.336	4563.05
675.527	4669.54
675.717	4847.71
675.908	4778.08
676.099	4554.85
676.289	4792.42
676.48	4843.62
676.671	4634.72
676.861	4577.38
677.052	4733.03
677.243	4401.26
677.433	4634.72
677.624	4597.86
677.814	4528.23
678.005	4622.44
678.195	4431.98
678.386	4483.17
678.576	4513.89
678.767	4614.24
678.957	4554.85
679.148	4685.92
679.338	4309.1
679.529	4464.74
679.719	4454.5
679.909	4483.17
680.1	4499.56
680.29	4399.21
680.481	4456.55
680.671	4431.98
680.861	4417.64
681.052	4450.41
681.242	4409.45
681.432	4317.29
681.622	4302.95
681.813	4264.04
682.003	4472.93
682.193	4305
682.383	4364.39
682.573	4245.61
682.764	4249.71
682.954	4173.93
683.144	4278.38
683.334	4210.79
683.524	4354.15
683.714	4128.88
683.904	4319.34
684.094	4284.52
684.284	4175.98
684.474	4313.19
684.664	4313.19
684.854	4253.8
685.044	4286.57
685.234	4116.59
685.424	4065.39
685.614	4216.94
685.804	4206.7
685.994	4198.51
686.184	4165.74
686.374	4159.6
686.564	4157.55
686.753	4098.16
686.943	3962.99
687.133	4167.79
687.323	4030.57
687.513	4132.97
687.702	4139.12
687.892	3891.31
688.082	4030.57
688.272	3946.61
688.461	3950.7
688.651	3874.93
688.841	4036.72
689.03	3971.18
689.22	3795.06
689.41	4020.33
689.599	3854.45
689.789	3928.17
689.979	3987.57
690.168	3764.34
690.358	3776.63
690.547	3829.87
690.737	3778.67
690.926	3899.5
691.116	3780.72
691.305	3690.61
691.495	3836.02
691.684	3735.67
691.874	3774.58
692.063	3745.91
692.252	3848.3
692.442	3780.72
692.631	3725.43
692.82	3706.99
693.01	3713.14
693.199	3793.01
693.388	3713.14
693.578	3614.84
693.767	3649.65
693.956	3682.42
694.146	3729.52
694.335	3610.74
694.524	3676.27
694.713	3592.31
694.902	3559.54
695.092	3649.65
695.281	3592.31
695.47	3651.7
695.659	3637.36
695.848	3678.32
696.037	3498.1
696.226	3754.1
696.415	3530.87
696.604	3702.9
696.793	3594.36
696.982	3602.55
697.171	3625.08
697.36	3545.2
697.549	3467.38
697.738	3623.03
697.927	3653.75
698.116	3537.01
698.305	3602.55
698.494	3670.13
698.683	3479.67
698.872	3561.59
699.061	3674.23
699.25	3500.15
699.438	3659.89
699.627	3518.58
699.816	3655.79
700.005	3582.07
700.193	3516.53
700.382	3627.12
700.571	3534.96
700.76	3588.21
700.948	3614.84
701.137	3668.08
701.326	3645.56
701.514	3618.93
701.703	3575.92
701.892	3647.6
702.08	3672.18
702.269	3543.16
702.457	3539.06
702.646	3633.27
702.834	3518.58
703.023	3516.53
703.212	3590.26
703.4	3512.44
703.589	3592.31
703.777	3633.27
703.965	3504.25
704.154	3651.7
704.342	3465.33
704.531	3516.53
704.719	3498.1
704.907	3575.92
705.096	3410.04
705.284	3477.62
705.472	3434.61
705.661	3504.25
705.849	3606.64
706.037	3551.35
706.226	3444.85
706.414	3455.09
706.602	3416.18
706.79	3518.58
706.979	3520.63
707.167	3430.52
707.355	3364.98
707.543	3424.37
707.731	3553.4
707.919	3610.74
708.107	3496.05
708.296	3338.36
708.484	3524.72
708.672	3448.95
708.86	3522.68
709.048	3547.25
709.236	3352.7
709.424	3494.01
709.612	3561.59
709.8	3596.4
709.988	3465.33
710.176	3608.69
710.364	3321.98
710.551	3307.64
710.739	3407.99
710.927	3590.26
711.115	3391.61
711.303	3489.91
711.491	3508.34
711.679	3455.09
711.866	3473.53
712.054	3440.76
712.242	3397.75
712.43	3362.94
712.617	3491.96
712.805	3393.65
712.993	3522.68
713.181	3428.47
713.368	3479.67
713.556	3434.61
713.744	3410.04
713.931	3479.67
714.119	3461.24
714.306	3446.9
714.494	3442.81
714.682	3481.72
714.869	3319.93
715.057	3369.08
715.244	3260.54
715.432	3387.51
715.619	3317.88
715.807	3373.18
715.994	3358.84
716.182	3371.13
716.369	3410.04
716.556	3391.61
716.744	3303.54
716.931	3254.39
717.119	3491.96
717.306	3436.66
717.493	3369.08
717.681	3244.15
717.868	3455.09
718.055	3285.11
718.242	3395.7
718.43	3172.47
718.617	3385.46
718.804	3313.78
718.991	3324.02
719.179	3393.65
719.366	3309.69
719.553	3291.26
719.74	3348.6
719.927	3264.63
720.114	3260.54
720.301	3223.67
720.488	3158.14
720.676	3246.2
720.863	3373.18
721.05	3297.4
721.237	3256.44
721.424	3340.41
721.611	3231.87
721.798	3324.02
721.985	3205.24
722.172	3102.84
722.358	3205.24
722.545	3231.87
722.732	3158.14
722.919	3319.93
723.106	3295.35
723.293	3262.58
723.48	3154.04
723.667	3213.43
723.853	3213.43
724.04	3274.87
724.227	3231.87
724.414	3055.74
724.6	3227.77
724.787	3319.93
724.974	3201.15
725.161	3145.85
725.347	3149.95
725.534	3295.35
725.72	3088.51
725.907	3297.4
726.094	3164.28
726.28	3147.9
726.467	3174.52
726.653	3063.93
726.84	3211.39
727.027	3211.39
727.213	3041.4
727.4	3074.17
727.586	3045.5
727.773	3213.43
727.959	3192.95
728.145	3051.64
728.332	3166.33
728.518	2947.2
728.705	3022.97
728.891	3063.93
729.077	3041.4
729.264	3000.44
729.45	3065.98
729.636	3022.97
729.823	3022.97
730.009	2984.06
730.195	2982.01
730.382	2988.16
730.568	2975.87
730.754	3068.03
730.94	3012.73
731.126	3078.27
731.313	3059.84
731.499	3027.07
731.685	3006.59
731.871	2943.1
732.057	2908.29
732.243	3004.54
732.429	2959.49
732.615	3027.07
732.801	2891.9
732.987	2887.81
733.173	3094.65
733.359	2969.73
733.545	2900.09
733.731	2906.24
733.917	2883.71
734.103	2916.48
734.289	2908.29
734.475	2883.71
734.661	2912.38
734.847	2953.34
735.033	2920.57
735.219	2871.42
735.404	2939.01
735.59	2728.07
735.776	2801.79
735.962	2826.37
736.148	2781.31
736.333	2785.41
736.519	2771.07
736.705	2926.72
736.89	2885.76
737.076	2746.5
737.262	2631.81
737.447	2773.12
737.633	2779.26
737.819	2777.22
738.004	2656.39
738.19	2838.66
738.375	2781.31
738.561	2824.32
738.747	2836.61
738.932	2685.06
739.118	2644.1
739.303	2732.16
739.489	2676.87
739.674	2676.87
739.859	2556.04
740.045	2656.39
740.23	2642.05
740.416	2545.8
740.601	2707.59
740.786	2635.91
740.972	2637.95
741.157	2674.82
741.342	2539.65
741.528	2586.76
741.713	2674.82
741.898	2576.52
742.084	2582.66
742.269	2472.07
742.454	2510.98
742.639	2513.03
742.824	2457.73
743.01	2519.17
743.195	2541.7
743.38	2500.74
743.565	2508.93
743.75	2549.89
743.935	2384.01
744.12	2480.26
744.305	2351.24
744.49	2451.59
744.675	2408.58
744.86	2291.85
745.045	2392.2
745.23	2343.05
745.415	2195.59
745.6	2455.69
745.785	2398.34
745.97	2293.9
746.155	2228.36
746.34	2287.75
746.525	2246.79
746.71	2361.48
746.895	2209.93
747.079	2300.04
747.264	2254.98
747.449	2232.46
747.634	2201.74
747.819	2123.91
748.003	2091.15
748.188	2134.15
748.373	2177.16
748.557	2078.86
748.742	2128.01
748.927	2162.83
749.111	2033.8
749.296	2027.66
749.481	2023.56
749.665	1988.75
749.85	1951.88
750.034	2134.15
750.219	1976.46
750.404	1943.69
750.588	2025.61
750.773	1878.16
750.957	1912.97
751.141	1910.93
751.326	1998.99
751.51	1886.35
751.695	1904.78
751.879	1910.93
752.064	1892.49
752.248	1808.53
752.432	1955.98
752.617	1990.8
752.801	1763.47
752.985	1808.53
753.17	1880.21
753.354	1812.62
753.538	1818.77
753.722	1767.57
753.907	1831.05
754.091	1691.79
754.275	1802.38
754.459	1706.13
754.643	1620.11
754.828	1730.7
755.012	1706.13
755.196	1583.25
755.38	1726.61
755.564	1724.56
755.748	1691.79
755.932	1656.98
756.116	1628.31
756.3	1613.97
756.484	1564.82
756.668	1534.1
756.852	1609.87
757.036	1577.11
757.22	1544.34
757.404	1527.96
757.588	1527.96
757.772	1534.1
757.956	1398.93
758.14	1478.8
758.323	1446.04
758.507	1398.93
758.691	1601.68
758.875	1448.08
759.059	1501.33
759.242	1329.3
759.426	1409.17
759.61	1448.08
759.794	1417.37
759.977	1423.51
760.161	1439.89
760.345	1396.89
760.528	1423.51
760.712	1413.27
760.895	1360.02
761.079	1392.79
761.263	1398.93
761.446	1335.45
761.63	1222.81
761.813	1366.17
761.997	1249.43
762.18	1271.96
762.364	1319.06
762.547	1226.9
762.731	1247.38
762.914	1384.6
763.098	1249.43
763.281	1274.01
763.464	1323.16
763.648	1308.82
763.831	1263.77
764.015	1194.14
764.198	1153.18
764.381	1179.8
764.564	1280.15
764.748	1249.43
764.931	1208.47
765.114	1251.48
765.297	1269.91
765.481	1179.8
765.664	1173.66
765.847	1208.47
766.03	1208.47
766.213	1040.54
766.397	1192.09
766.58	1171.61
766.763	1304.73
766.946	1165.46
767.129	1157.27
767.312	1163.42
767.495	1136.79
767.678	1097.88
767.861	1089.69
768.044	1171.61
768.227	1165.46
768.41	1175.7
768.593	1122.46
768.776	1142.94
768.959	1147.03
769.142	1104.03
769.324	1134.75
769.507	1124.51
769.69	1118.36
769.873	1069.21
770.056	1249.43
770.239	1112.22
770.421	1124.51
770.604	1046.68
770.787	1028.25
770.97	1124.51
771.152	1134.75
771.335	1061.02
771.518	993.44
771.7	1149.08
771.883	1046.68
772.066	954.52
772.248	1034.39
772.431	1136.79
772.613	1081.5
772.796	981.15
772.978	1124.51
773.161	1210.52
773.343	999.58
773.526	1056.92
773.708	940.19
773.891	1003.68
774.073	964.76
774.256	964.76
774.438	1038.49
774.621	970.91
774.803	1038.49
774.985	981.15
775.168	901.28
775.35	960.67
775.532	1005.72
775.715	925.85
775.897	995.48
776.079	907.42
776.261	950.43
776.444	860.32
776.626	854.17
776.808	929.95
776.99	864.41
777.173	981.15
777.355	884.89
777.537	843.93
777.719	790.69
777.901	854.17
778.083	897.18
778.265	768.16
778.447	817.31
778.629	864.41
778.811	751.78
778.993	831.65
779.175	821.41
779.357	809.12
779.539	782.49
779.721	766.11
779.903	827.55
780.085	811.17
780.267	727.2
780.449	792.73
780.631	780.45
780.812	837.79
780.994	751.78
781.176	676
781.358	731.3
781.54	731.3
781.721	753.82
781.903	700.58
782.085	712.86
782.267	790.69
782.448	673.95
782.63	772.25
782.812	682.14
782.993	698.53
783.175	757.92
783.357	659.62
783.538	721.06
783.72	659.62
783.901	620.71
784.083	559.27
784.264	561.31
784.446	622.75
784.627	585.89
784.809	682.14
784.99	606.37
785.172	641.18
785.353	495.78
785.535	585.89
785.716	540.83
785.897	559.27
786.079	575.65
786.26	624.8
786.441	571.55
786.623	553.12
786.804	585.89
786.985	585.89
787.167	530.59
787.348	503.97
787.529	551.07
787.71	553.12
787.891	542.88
788.073	487.59
788.254	487.59
788.435	538.79
788.616	544.93
788.797	389.28
788.978	338.09
789.159	501.92
789.34	493.73
789.522	454.82
789.703	475.3
789.884	508.07
790.065	506.02
790.246	522.4
790.427	465.06
790.607	520.35
790.788	532.64
790.969	516.26
791.15	471.2
791.331	450.72
791.512	503.97
791.693	438.44
791.874	508.07
792.054	532.64
792.235	493.73
792.416	475.3
792.597	460.96
792.778	463.01
792.958	473.25
793.139	362.66
793.32	467.11
793.5	465.06
793.681	503.97
793.862	452.77
794.042	420
794.223	424.1
794.404	438.44
794.584	403.62
794.765	389.28
794.945	438.44
795.126	438.44
795.306	397.48
795.487	319.65
795.667	391.33
795.848	356.52
796.028	399.52
796.209	342.18
796.389	366.76
796.57	379.04
796.75	303.27
796.93	360.61
797.111	352.42
797.291	354.47
797.471	401.57
797.652	372.9
797.832	311.46
798.012	354.47
798.192	344.23
798.373	319.65
798.553	327.85
798.733	358.57
798.913	317.61
799.093	366.76
799.274	346.28
799.454	346.28
799.634	368.81
799.814	389.28
799.994	354.47
800.174	313.51
800.354	348.33
800.534	288.93
800.714	338.09
800.894	290.98
801.074	247.97
801.254	266.41
801.434	370.85
801.614	217.26
801.794	235.69
801.974	1114.27
802.154	331.94
802.334	340.13
802.514	256.17
802.693	264.36
802.873	241.83
803.053	358.57
803.233	260.26
803.413	202.92
803.592	290.98
803.772	329.89
803.952	245.93
804.131	168.1
804.311	202.92
804.491	282.79
804.67	276.65
804.85	227.5
805.03	336.04
805.209	264.36
805.389	211.11
805.568	213.16
805.748	258.21
805.928	280.74
806.107	237.74
806.287	186.54
806.466	264.36
806.646	227.5
806.825	233.64
807.004	196.78
807.184	221.35
807.363	293.03
807.543	250.02
807.722	204.97
807.901	297.13
808.081	295.08
808.26	204.97
808.439	258.21
808.619	207.02
808.798	260.26
808.977	258.21
809.156	315.56
809.336	258.21
809.515	270.5
809.694	182.44
809.873	190.63
810.052	231.59
810.231	278.69
810.411	198.82
810.59	311.46
810.769	176.3
810.948	247.97
811.127	164.01
811.306	190.63
811.485	184.49
811.664	374.95
811.843	164.01
812.022	196.78
812.201	166.06
812.38	182.44
812.559	168.1
812.737	247.97
812.916	202.92
813.095	123.05
813.274	213.16
813.453	194.73
813.632	270.5
813.811	231.59
813.989	143.53
814.168	256.17
814.347	123.05
814.526	184.49
814.704	217.26
814.883	223.4
815.062	153.77
815.24	258.21
815.419	127.14
815.598	184.49
815.776	133.29
815.955	149.67
816.133	104.62
816.312	166.06
816.49	96.43
816.669	213.16
816.847	157.86
817.026	188.58
817.204	190.63
817.383	180.39
817.561	94.38
817.74	174.25
817.918	231.59
818.097	114.86
818.275	172.2
818.453	200.87
818.632	231.59
818.81	145.58
818.988	211.11
819.167	149.67
819.345	170.15
819.523	137.38
819.701	182.44
819.879	180.39
820.058	114.86
820.236	155.82
820.414	141.48
820.592	190.63
820.77	22.7
820.948	90.28
821.127	149.67
821.305	231.59
821.483	80.04
821.661	172.2
821.839	133.29
822.017	149.67
822.195	125.1
822.373	204.97
822.551	121
822.729	170.15
822.907	84.14
823.085	186.54
823.262	178.34
823.44	104.62
823.618	157.86
823.796	104.62
823.974	75.95
824.152	34.99
824.329	82.09
824.507	135.34
824.685	110.76
824.863	131.24
825.04	102.57
825.218	145.58
825.396	127.14
825.574	100.52
825.751	106.67
825.929	225.45
826.107	143.53
826.284	121
826.462	219.3
826.639	98.47
826.817	28.84
826.994	69.8
827.172	129.19
827.349	202.92
827.527	145.58
827.704	118.95
827.882	151.72
828.059	127.14
828.237	121
828.414	90.28
828.591	73.9
828.769	69.8
828.946	32.94
829.124	145.58
829.301	92.33
829.478	26.79
829.655	118.95
829.833	100.52
830.01	69.8
830.187	110.76
830.364	88.23
830.542	94.38
830.719	166.06
830.896	151.72
831.073	71.85
831.25	123.05
831.427	106.67
831.604	71.85
831.782	61.61
831.959	94.38
832.136	90.28
832.313	141.48
832.49	118.95
832.667	73.9
832.844	53.42
833.021	92.33
833.198	121
833.374	104.62
833.551	75.95
833.728	67.75
833.905	104.62
834.082	-3.93
834.259	41.13
834.436	145.58
834.612	69.8
834.789	139.43
834.966	110.76
835.143	30.89
835.319	41.13
835.496	24.75
835.673	123.05
835.85	96.43
836.026	84.14
836.203	92.33
836.38	61.61
836.556	98.47
836.733	-8.02
836.909	209.06
837.086	-10.07
837.262	22.7
837.439	106.67
837.616	88.23
837.792	55.47
837.968	123.05
838.145	39.08
838.321	43.18
838.498	118.95
838.674	108.71
838.851	166.06
839.027	-5.97
839.203	82.09
839.38	88.23
839.556	118.95
839.732	123.05
839.909	51.37
840.085	67.75
840.261	24.75
840.437	67.75
840.614	34.99
840.79	133.29
840.966	112.81
841.142	123.05
841.318	59.56
841.494	121
841.671	28.84
841.847	47.27
842.023	37.03
842.199	49.32
842.375	65.71
842.551	-26.45
842.727	49.32
842.903	133.29
843.079	30.89
843.255	110.76
843.431	37.03
843.607	106.67
843.783	2.22
843.959	82.09
844.134	10.41
844.31	106.67
844.486	71.85
844.662	65.71
844.838	65.71
845.013	147.62
845.189	43.18
845.365	92.33
845.541	-8.02
845.716	26.79
845.892	43.18
846.068	55.47
846.244	82.09
846.419	90.28
846.595	77.99
846.77	75.95
846.946	123.05
847.122	37.03
847.297	73.9
847.473	125.1
847.648	49.32
847.824	2.22
847.999	16.55
848.175	59.56
848.35	108.71
848.526	47.27
848.701	57.51
848.876	94.38
849.052	96.43
849.227	98.47
849.403	12.46
849.578	-24.4
849.753	106.67
849.929	41.13
850.104	43.18
850.279	47.27
850.454	63.66
850.63	116.9
850.805	67.75
850.98	63.66
851.155	149.67
851.33	59.56
851.505	-28.5
851.681	100.52
851.856	55.47
852.031	116.9
852.206	47.27
852.381	55.47
852.556	37.03
852.731	-12.12
852.906	98.47
853.081	57.51
853.256	88.23
853.431	71.85
853.606	28.84
853.781	2.22
853.956	-3.93
854.131	37.03
854.305	-10.07
854.48	75.95
854.655	-69.46
854.83	32.94
855.005	53.42
855.18	96.43
855.354	-3.93
855.529	2.22
855.704	61.61
855.879	106.67
856.053	12.46
856.228	82.09
856.403	-5.97
856.577	6.31
856.752	-28.5
856.926	-5.97
857.101	102.57
857.276	6.31
857.45	32.94
857.625	86.19
857.799	-18.26
857.974	18.6
858.148	24.75
858.323	39.08
858.497	-1.88
858.672	-55.12
858.846	20.65
859.02	123.05
859.195	-46.93
859.369	-28.5
859.543	47.27
859.718	-16.21
859.892	82.09
860.066	57.51
860.241	-5.97
860.415	-3.93
860.589	24.75
860.763	30.89
860.938	4.27
861.112	28.84
861.286	-8.02
861.46	80.04
861.634	59.56
861.808	145.58
861.982	-24.4
862.157	24.75
862.331	-26.45
862.505	26.79
862.679	4.27
862.853	24.75
863.027	-26.45
863.201	145.58
863.375	-96.08
863.549	75.95
863.722	0.17
863.896	86.19
864.07	-22.36
864.244	49.32
864.418	28.84
864.592	4.27
864.766	114.86
864.939	45.23
865.113	20.65
865.287	6.31
865.461	24.75
865.634	63.66
865.808	-20.31
865.982	-8.02
866.156	-14.17
866.329	30.89
866.503	-44.88
866.676	41.13
866.85	131.24
867.024	37.03
867.197	59.56
867.371	77.99
867.544	-36.69
867.718	-16.21
867.891	94.38
868.065	-96.08
868.238	26.79
868.412	63.66
868.585	-18.26
868.759	20.65
868.932	-16.21
869.105	8.36
869.279	10.41
869.452	28.84
869.625	71.85
869.799	30.89
869.972	-18.26
870.145	-1.88
870.319	-38.74
870.492	-46.93
870.665	12.46
870.838	-40.79
871.011	47.27
871.185	43.18
871.358	-30.55
871.531	65.71
871.704	59.56
871.877	65.71
872.05	-14.17
872.223	-32.6
872.396	8.36
872.569	63.66
872.742	-3.93
872.915	98.47
873.088	2.22
873.261	-5.97
873.434	-12.12
873.607	61.61
873.78	98.47
873.953	-18.26
874.126	47.27
874.299	86.19
874.471	-20.31
874.644	-5.97
874.817	49.32
874.99	123.05
875.163	-14.17
875.335	41.13
875.508	47.27
875.681	59.56
875.853	32.94
876.026	65.71
876.199	22.7
876.371	20.65
876.544	12.46
876.717	47.27
876.889	20.65
877.062	24.75
877.234	-71.51
877.407	-26.45
877.579	-12.12
877.752	43.18
877.924	69.8
878.097	51.37
878.269	2.22
878.442	41.13
878.614	96.43
878.786	6.31
878.959	-16.21
879.131	51.37
879.303	4.27
879.476	-14.17
879.648	53.42
879.82	43.18
879.993	-28.5
880.165	-32.6
880.337	-28.5
880.509	22.7
880.681	-69.46
880.854	-44.88
881.026	28.84
881.198	88.23
881.37	22.7
881.542	-16.21
881.714	16.55
881.886	-20.31
882.058	59.56
882.23	18.6
882.402	14.51
882.574	-30.55
882.746	16.55
882.918	18.6
883.09	49.32
883.262	-40.79
883.434	-22.36
883.606	-36.69
883.778	30.89
883.95	34.99
884.122	-14.17
884.293	28.84
884.465	-46.93
884.637	20.65
884.809	-77.65
884.98	30.89
885.152	2.22
885.324	8.36
885.496	-14.17
885.667	34.99
885.839	-28.5
886.011	82.09
886.182	-26.45
886.354	71.85
886.525	22.7
886.697	69.8
886.869	69.8
887.04	20.65
887.212	8.36
887.383	108.71
887.555	-36.69
887.726	-28.5
887.897	-34.64
888.069	98.47
888.24	34.99
888.412	22.7
888.583	-14.17
888.754	-3.93
888.926	18.6
889.097	10.41
889.268	22.7
889.44	20.65
889.611	-55.12
889.782	14.51
889.953	-42.84
890.125	12.46
890.296	-46.93
890.467	32.94
890.638	-42.84
890.809	-3.93
890.98	16.55
891.151	59.56
891.323	80.04
891.494	-5.97
891.665	34.99
891.836	4.27
892.007	14.51
892.178	-24.4
892.349	26.79
892.52	28.84
892.691	51.37
892.862	4.27
893.032	-96.08
893.203	12.46
893.374	49.32
893.545	51.37
893.716	-38.74
893.887	2.22
894.057	-91.99
894.228	47.27
894.399	-22.36
894.57	10.41
894.74	-12.12
894.911	24.75
895.082	30.89
895.253	-34.64
895.423	12.46
895.594	0.17
895.764	-30.55
895.935	-112.47
896.106	22.7
896.276	-69.46
896.447	51.37
896.617	-63.32
896.788	-48.98
896.958	14.51
897.129	-12.12
897.299	-26.45
897.47	102.57
897.64	63.66
897.81	6.31
897.981	-1.88
898.151	-51.03
898.322	39.08
898.492	45.23
898.662	4.27
898.832	-32.6
899.003	-73.56
899.173	-18.26
899.343	-106.32
899.513	-46.93
