Data from USB4F104151__91__12-13-05-000.txt Node

Date: Fri Mar 14 12:13:05 EDT 2025
User: louis
Spectrometer: USB4F10415
Trigger mode: 4
Integration Time (sec): 5.000000E-2
Scans to average: 1
Electric dark correction enabled: true
Nonlinearity correction enabled: false
Boxcar width: 0
XAxis mode: Wavelengths
Number of Pixels in Spectrum: 3648
>>>>>Begin Spectral Data<<<<<
178.204	-244.56
178.424	-244.56
178.644	-244.56
178.864	-273.23
179.084	-152.4
179.304	52.39
179.524	5.29
179.744	-47.96
179.964	62.63
180.184	25.77
180.404	-0.85
180.624	25.77
180.844	-13.14
181.064	-21.33
181.283	33.96
181.503	-95.06
181.723	-27.48
181.943	-13.14
182.163	144.55
182.383	-21.33
182.602	36.01
182.822	15.53
183.042	58.54
183.262	50.35
183.482	9.39
183.701	58.54
183.921	74.92
184.141	-33.62
184.361	70.83
184.58	-19.29
184.8	40.11
185.02	72.87
185.239	81.07
185.459	64.68
185.679	101.55
185.898	-39.76
186.118	101.55
186.338	25.77
186.557	40.11
186.777	64.68
186.997	33.96
187.216	29.87
187.436	144.55
187.655	91.31
187.875	29.87
188.095	-25.43
188.314	70.83
188.534	109.74
188.753	-7
188.973	7.34
189.192	126.12
189.412	31.91
189.631	48.3
189.851	66.73
190.07	48.3
190.29	50.35
190.509	-13.14
190.729	1.19
190.948	62.63
191.168	220.33
191.387	64.68
191.607	40.11
191.826	36.01
192.045	17.58
192.265	40.11
192.484	21.67
192.704	9.39
192.923	-21.33
193.142	148.65
193.362	44.2
193.581	122.02
193.8	-9.05
194.02	70.83
194.239	79.02
194.458	25.77
194.678	-33.62
194.897	44.2
195.116	54.44
195.335	64.68
195.555	83.11
195.774	15.53
195.993	74.92
196.212	11.43
196.432	-43.86
196.651	15.53
196.87	38.06
197.089	148.65
197.308	33.96
197.528	25.77
197.747	19.63
197.966	48.3
198.185	99.5
198.404	-45.91
198.623	87.21
198.842	72.87
199.062	72.87
199.281	23.72
199.5	44.2
199.719	46.25
199.938	89.26
200.157	54.44
200.376	91.31
200.595	70.83
200.814	29.87
201.033	-13.14
201.252	146.6
201.471	-25.43
201.69	72.87
201.909	119.98
202.128	-35.67
202.347	72.87
202.566	-27.48
202.785	-33.62
203.004	-29.52
203.223	66.73
203.442	68.78
203.661	-0.85
203.879	33.96
204.098	33.96
204.317	7.34
204.536	105.64
204.755	99.5
204.974	72.87
205.193	5.29
205.411	124.07
205.63	111.78
205.849	70.83
206.068	17.58
206.287	31.91
206.505	93.35
206.724	31.91
206.943	-0.85
207.162	1.19
207.381	113.83
207.599	52.39
207.818	87.21
208.037	50.35
208.255	-9.05
208.474	19.63
208.693	52.39
208.911	-125.78
209.13	42.15
209.349	66.73
209.567	83.11
209.786	101.55
210.005	48.3
210.223	-37.72
210.442	-17.24
210.661	27.82
210.879	85.16
211.098	23.72
211.316	-56.15
211.535	64.68
211.753	52.39
211.972	-9.05
212.191	33.96
212.409	38.06
212.628	48.3
212.846	-0.85
213.065	56.49
213.283	-0.85
213.502	64.68
213.72	38.06
213.938	66.73
214.157	19.63
214.375	40.11
214.594	74.92
214.812	46.25
215.031	23.72
215.249	68.78
215.467	-37.72
215.686	25.77
215.904	36.01
216.122	66.73
216.341	97.45
216.559	33.96
216.778	136.36
216.996	66.73
217.214	17.58
217.432	-13.14
217.651	29.87
217.869	-0.85
218.087	31.91
218.306	5.29
218.524	19.63
218.742	-37.72
218.96	-2.9
219.179	17.58
219.397	11.43
219.615	83.11
219.833	5.29
220.051	-37.72
220.27	142.5
220.488	68.78
220.706	15.53
220.924	-41.81
221.142	-64.34
221.36	13.48
221.578	36.01
221.796	5.29
222.015	1.19
222.233	-60.24
222.451	171.18
222.669	13.48
222.887	60.59
223.105	62.63
223.323	3.24
223.541	-31.57
223.759	-19.29
223.977	36.01
224.195	119.98
224.413	64.68
224.631	115.88
224.849	46.25
225.067	66.73
225.285	42.15
225.503	19.63
225.721	-54.1
225.939	15.53
226.157	58.54
226.375	134.31
226.592	58.54
226.81	27.82
227.028	109.74
227.246	156.84
227.464	-2.9
227.682	36.01
227.9	136.36
228.117	42.15
228.335	74.92
228.553	15.53
228.771	27.82
228.989	93.35
229.206	85.16
229.424	-0.85
229.642	11.43
229.86	-2.9
230.077	42.15
230.295	36.01
230.513	169.13
230.731	103.59
230.948	138.41
231.166	91.31
231.384	-13.14
231.601	-11.09
231.819	107.69
232.037	54.44
232.254	13.48
232.472	-33.62
232.689	60.59
232.907	179.37
233.125	93.35
233.342	36.01
233.56	-58.2
233.777	-19.29
233.995	23.72
234.213	79.02
234.43	-29.52
234.648	19.63
234.865	-9.05
235.083	44.2
235.3	17.58
235.518	54.44
235.735	-21.33
235.953	79.02
236.17	56.49
236.388	40.11
236.605	17.58
236.822	87.21
237.04	29.87
237.257	23.72
237.475	-56.15
237.692	62.63
237.909	13.48
238.127	17.58
238.344	87.21
238.562	5.29
238.779	-13.14
238.996	-56.15
239.214	46.25
239.431	128.17
239.648	89.26
239.865	5.29
240.083	46.25
240.3	38.06
240.517	56.49
240.735	60.59
240.952	85.16
241.169	25.77
241.386	79.02
241.603	52.39
241.821	42.15
242.038	36.01
242.255	99.5
242.472	-31.57
242.689	70.83
242.907	83.11
243.124	44.2
243.341	15.53
243.558	31.91
243.775	7.34
243.992	-78.68
244.209	50.35
244.426	216.23
244.643	11.43
244.86	-60.24
245.078	48.3
245.295	132.26
245.512	-4.95
245.729	-15.19
245.946	70.83
246.163	56.49
246.38	72.87
246.597	-15.19
246.814	13.48
247.031	66.73
247.248	76.97
247.464	56.49
247.681	1.19
247.898	23.72
248.115	-0.85
248.332	46.25
248.549	91.31
248.766	167.08
248.983	113.83
249.2	27.82
249.417	36.01
249.633	-37.72
249.85	62.63
250.067	85.16
250.284	36.01
250.501	36.01
250.717	17.58
250.934	23.72
251.151	33.96
251.368	-4.95
251.585	15.53
251.801	17.58
252.018	-43.86
252.235	-13.14
252.451	-86.87
252.668	70.83
252.885	70.83
253.102	62.63
253.318	-9.05
253.535	27.82
253.752	-43.86
253.968	-21.33
254.185	-0.85
254.401	-58.2
254.618	76.97
254.835	-11.09
255.051	74.92
255.268	-21.33
255.484	70.83
255.701	54.44
255.917	-9.05
256.134	-17.24
256.351	-4.95
256.567	-17.24
256.784	89.26
257	19.63
257.217	95.4
257.433	-13.14
257.65	87.21
257.866	74.92
258.082	-27.48
258.299	27.82
258.515	11.43
258.732	25.77
258.948	-50
259.165	60.59
259.381	-19.29
259.597	70.83
259.814	36.01
260.03	46.25
260.246	79.02
260.463	-29.52
260.679	52.39
260.895	64.68
261.112	9.39
261.328	-66.39
261.544	-25.43
261.761	175.27
261.977	21.67
262.193	19.63
262.409	58.54
262.626	27.82
262.842	31.91
263.058	-11.09
263.274	85.16
263.49	19.63
263.707	87.21
263.923	113.83
264.139	-76.63
264.355	-2.9
264.571	134.31
264.787	11.43
265.004	87.21
265.22	27.82
265.436	15.53
265.652	46.25
265.868	87.21
266.084	-39.76
266.3	58.54
266.516	15.53
266.732	60.59
266.948	115.88
267.164	3.24
267.38	50.35
267.596	105.64
267.812	72.87
268.028	44.2
268.244	-23.38
268.46	19.63
268.676	42.15
268.892	91.31
269.108	-0.85
269.324	54.44
269.54	-54.1
269.756	40.11
269.972	5.29
270.188	-15.19
270.403	68.78
270.619	50.35
270.835	17.58
271.051	66.73
271.267	-11.09
271.483	-29.52
271.698	93.35
271.914	109.74
272.13	17.58
272.346	-2.9
272.562	5.29
272.777	87.21
272.993	33.96
273.209	15.53
273.425	81.07
273.64	-37.72
273.856	68.78
274.072	42.15
274.287	-23.38
274.503	-7
274.719	38.06
274.934	15.53
275.15	-50
275.366	-21.33
275.581	5.29
275.797	7.34
276.012	33.96
276.228	27.82
276.444	-31.57
276.659	138.41
276.875	36.01
277.09	87.21
277.306	40.11
277.521	33.96
277.737	66.73
277.952	70.83
278.168	44.2
278.383	25.77
278.599	27.82
278.814	64.68
279.03	85.16
279.245	64.68
279.461	111.78
279.676	52.39
279.892	-60.24
280.107	50.35
280.322	-64.34
280.538	-11.09
280.753	-13.14
280.969	3.24
281.184	23.72
281.399	29.87
281.615	72.87
281.83	23.72
282.045	7.34
282.26	-21.33
282.476	70.83
282.691	74.92
282.906	1.19
283.122	70.83
283.337	23.72
283.552	21.67
283.767	29.87
283.983	105.64
284.198	66.73
284.413	44.2
284.628	-88.92
284.843	54.44
285.058	56.49
285.274	79.02
285.489	-45.91
285.704	52.39
285.919	17.58
286.134	-19.29
286.349	60.59
286.564	-33.62
286.779	68.78
286.995	-11.09
287.21	9.39
287.425	70.83
287.64	68.78
287.855	3.24
288.07	-4.95
288.285	56.49
288.5	87.21
288.715	87.21
288.93	11.43
289.145	13.48
289.36	58.54
289.575	25.77
289.79	79.02
290.004	19.63
290.219	29.87
290.434	15.53
290.649	-4.95
290.864	11.43
291.079	79.02
291.294	48.3
291.509	15.53
291.724	42.15
291.938	56.49
292.153	23.72
292.368	11.43
292.583	-39.76
292.798	33.96
293.012	36.01
293.227	109.74
293.442	-11.09
293.657	119.98
293.871	76.97
294.086	68.78
294.301	107.69
294.516	72.87
294.73	83.11
294.945	-4.95
295.16	31.91
295.374	103.59
295.589	87.21
295.804	9.39
296.018	33.96
296.233	42.15
296.447	87.21
296.662	25.77
296.877	140.46
297.091	50.35
297.306	9.39
297.52	31.91
297.735	136.36
297.949	36.01
298.164	74.92
298.378	52.39
298.593	11.43
298.807	31.91
299.022	56.49
299.236	54.44
299.451	85.16
299.665	60.59
299.88	7.34
300.094	-15.19
300.309	19.63
300.523	50.35
300.737	81.07
300.952	64.68
301.166	29.87
301.381	81.07
301.595	68.78
301.809	21.67
302.024	74.92
302.238	3.24
302.452	95.4
302.667	5.29
302.881	103.59
303.095	76.97
303.309	38.06
303.524	-11.09
303.738	27.82
303.952	-29.52
304.166	70.83
304.381	21.67
304.595	76.97
304.809	-35.67
305.023	62.63
305.237	9.39
305.452	5.29
305.666	29.87
305.88	74.92
306.094	70.83
306.308	76.97
306.522	70.83
306.736	60.59
306.95	111.78
307.164	44.2
307.379	11.43
307.593	144.55
307.807	85.16
308.021	93.35
308.235	60.59
308.449	-62.29
308.663	70.83
308.877	89.26
309.091	-19.29
309.305	29.87
309.519	-115.54
309.733	64.68
309.947	-31.57
310.161	54.44
310.374	81.07
310.588	130.22
310.802	-70.48
311.016	-25.43
311.23	-4.95
311.444	64.68
311.658	44.2
311.872	91.31
312.085	74.92
312.299	62.63
312.513	5.29
312.727	42.15
312.941	13.48
313.154	70.83
313.368	64.68
313.582	42.15
313.796	54.44
314.009	-17.24
314.223	74.92
314.437	-33.62
314.651	11.43
314.864	99.5
315.078	-23.38
315.292	-11.09
315.505	89.26
315.719	85.16
315.933	40.11
316.146	42.15
316.36	21.67
316.573	56.49
316.787	95.4
317.001	58.54
317.214	-29.52
317.428	56.49
317.641	-17.24
317.855	27.82
318.068	93.35
318.282	17.58
318.495	50.35
318.709	68.78
318.922	58.54
319.136	79.02
319.349	36.01
319.563	56.49
319.776	29.87
319.99	9.39
320.203	74.92
320.417	42.15
320.63	56.49
320.843	113.83
321.057	29.87
321.27	66.73
321.483	81.07
321.697	87.21
321.91	173.22
322.124	33.96
322.337	21.67
322.55	36.01
322.763	83.11
322.977	54.44
323.19	-21.33
323.403	11.43
323.617	25.77
323.83	29.87
324.043	-27.48
324.256	23.72
324.469	36.01
324.683	146.6
324.896	44.2
325.109	93.35
325.322	-11.09
325.535	68.78
325.748	74.92
325.962	-23.38
326.175	81.07
326.388	36.01
326.601	19.63
326.814	15.53
327.027	76.97
327.24	97.45
327.453	-37.72
327.666	62.63
327.879	103.59
328.092	122.02
328.305	107.69
328.518	68.78
328.731	-31.57
328.944	-13.14
329.157	-4.95
329.37	46.25
329.583	87.21
329.796	95.4
330.009	-31.57
330.222	101.55
330.435	140.46
330.648	-4.95
330.861	17.58
331.073	46.25
331.286	97.45
331.499	46.25
331.712	-15.19
331.925	44.2
332.138	19.63
332.35	85.16
332.563	-15.19
332.776	89.26
332.989	-31.57
333.202	89.26
333.414	-13.14
333.627	74.92
333.84	17.58
334.053	29.87
334.265	29.87
334.478	5.29
334.691	101.55
334.903	27.82
335.116	-35.67
335.329	-43.86
335.541	40.11
335.754	93.35
335.966	40.11
336.179	5.29
336.392	74.92
336.604	-27.48
336.817	64.68
337.029	27.82
337.242	93.35
337.454	19.63
337.667	7.34
337.88	79.02
338.092	97.45
338.305	74.92
338.517	54.44
338.729	-13.14
338.942	113.83
339.154	13.48
339.367	9.39
339.579	56.49
339.792	152.74
340.004	87.21
340.217	-27.48
340.429	79.02
340.641	15.53
340.854	62.63
341.066	74.92
341.278	107.69
341.491	79.02
341.703	38.06
341.915	9.39
342.128	128.17
342.34	81.07
342.552	5.29
342.764	29.87
342.977	42.15
343.189	132.26
343.401	58.54
343.613	-43.86
343.826	-19.29
344.038	60.59
344.25	107.69
344.462	29.87
344.674	-9.05
344.886	-7
345.099	99.5
345.311	97.45
345.523	-4.95
345.735	21.67
345.947	68.78
346.159	29.87
346.371	11.43
346.583	-17.24
346.795	113.83
347.007	48.3
347.219	31.91
347.431	60.59
347.643	-31.57
347.855	-11.09
348.067	87.21
348.279	74.92
348.491	42.15
348.703	74.92
348.915	105.64
349.127	-68.44
349.339	52.39
349.551	-62.29
349.763	58.54
349.975	91.31
350.187	66.73
350.399	115.88
350.61	128.17
350.822	66.73
351.034	101.55
351.246	48.3
351.458	-29.52
351.669	122.02
351.881	29.87
352.093	140.46
352.305	5.29
352.517	1.19
352.728	70.83
352.94	13.48
353.152	74.92
353.363	5.29
353.575	9.39
353.787	173.22
353.999	9.39
354.21	103.59
354.422	42.15
354.633	-25.43
354.845	52.39
355.057	81.07
355.268	87.21
355.48	99.5
355.692	-29.52
355.903	70.83
356.115	58.54
356.326	27.82
356.538	136.36
356.749	66.73
356.961	105.64
357.172	27.82
357.384	-23.38
357.595	152.74
357.807	113.83
358.018	81.07
358.23	81.07
358.441	136.36
358.653	70.83
358.864	27.82
359.075	27.82
359.287	21.67
359.498	93.35
359.709	50.35
359.921	-4.95
360.132	36.01
360.344	-17.24
360.555	19.63
360.766	40.11
360.977	5.29
361.189	105.64
361.4	74.92
361.611	79.02
361.823	72.87
362.034	103.59
362.245	-15.19
362.456	-4.95
362.667	11.43
362.879	50.35
363.09	48.3
363.301	89.26
363.512	5.29
363.723	36.01
363.935	17.58
364.146	-39.76
364.357	81.07
364.568	83.11
364.779	-47.96
364.99	85.16
365.201	27.82
365.412	117.93
365.623	42.15
365.834	48.3
366.045	81.07
366.256	46.25
366.467	83.11
366.678	21.67
366.889	48.3
367.1	31.91
367.311	36.01
367.522	19.63
367.733	72.87
367.944	79.02
368.155	-21.33
368.366	76.97
368.577	93.35
368.788	76.97
368.999	11.43
369.209	42.15
369.42	60.59
369.631	187.56
369.842	79.02
370.053	1.19
370.264	87.21
370.474	74.92
370.685	36.01
370.896	74.92
371.107	83.11
371.317	87.21
371.528	54.44
371.739	144.55
371.95	99.5
372.16	81.07
372.371	38.06
372.582	29.87
372.792	81.07
373.003	31.91
373.214	25.77
373.424	79.02
373.635	66.73
373.846	81.07
374.056	44.2
374.267	50.35
374.477	17.58
374.688	-37.72
374.898	42.15
375.109	52.39
375.319	46.25
375.53	76.97
375.74	72.87
375.951	42.15
376.161	183.46
376.372	97.45
376.582	76.97
376.793	83.11
377.003	-2.9
377.214	64.68
377.424	11.43
377.635	79.02
377.845	-7
378.055	62.63
378.266	-2.9
378.476	15.53
378.686	23.72
378.897	119.98
379.107	103.59
379.317	134.31
379.528	54.44
379.738	29.87
379.948	15.53
380.158	136.36
380.369	-17.24
380.579	46.25
380.789	107.69
380.999	48.3
381.21	85.16
381.42	136.36
381.63	5.29
381.84	126.12
382.05	70.83
382.261	42.15
382.471	38.06
382.681	52.39
382.891	60.59
383.101	17.58
383.311	-23.38
383.521	85.16
383.731	93.35
383.941	183.46
384.151	15.53
384.361	23.72
384.571	79.02
384.781	48.3
384.991	160.94
385.201	58.54
385.411	64.68
385.621	54.44
385.831	158.89
386.041	103.59
386.251	-0.85
386.461	81.07
386.671	9.39
386.881	89.26
387.091	46.25
387.301	70.83
387.511	21.67
387.72	27.82
387.93	72.87
388.14	-27.48
388.35	3.24
388.56	109.74
388.769	95.4
388.979	46.25
389.189	-11.09
389.399	74.92
389.609	95.4
389.818	93.35
390.028	62.63
390.238	128.17
390.447	60.59
390.657	105.64
390.867	9.39
391.076	-13.14
391.286	50.35
391.496	42.15
391.705	105.64
391.915	99.5
392.125	60.59
392.334	107.69
392.544	93.35
392.753	72.87
392.963	9.39
393.172	36.01
393.382	38.06
393.591	130.22
393.801	44.2
394.01	111.78
394.22	58.54
394.429	58.54
394.639	93.35
394.848	119.98
395.058	5.29
395.267	33.96
395.477	154.79
395.686	93.35
395.895	154.79
396.105	201.9
396.314	130.22
396.524	64.68
396.733	70.83
396.942	126.12
397.152	158.89
397.361	165.03
397.57	142.5
397.78	74.92
397.989	85.16
398.198	130.22
398.407	93.35
398.617	21.67
398.826	68.78
399.035	128.17
399.244	126.12
399.453	85.16
399.663	130.22
399.872	70.83
400.081	70.83
400.29	119.98
400.499	38.06
400.708	146.6
400.917	103.59
401.127	76.97
401.336	83.11
401.545	165.03
401.754	130.22
401.963	119.98
402.172	40.11
402.381	50.35
402.59	66.73
402.799	126.12
403.008	173.22
403.217	76.97
403.426	181.42
403.635	97.45
403.844	115.88
404.053	191.66
404.262	44.2
404.471	232.62
404.68	19.63
404.888	76.97
405.097	138.41
405.306	154.79
405.515	195.75
405.724	126.12
405.933	246.95
406.142	130.22
406.35	165.03
406.559	119.98
406.768	218.28
406.977	271.53
407.185	203.94
407.394	216.23
407.603	177.32
407.812	150.7
408.02	187.56
408.229	175.27
408.438	244.9
408.646	226.47
408.855	234.66
409.064	226.47
409.272	306.34
409.481	337.06
409.69	259.24
409.898	236.71
410.107	281.77
410.315	373.92
410.524	263.33
410.733	410.79
410.941	263.33
411.15	396.45
411.358	357.54
411.567	435.36
411.775	361.64
411.984	445.6
412.192	504.99
412.401	498.85
412.609	498.85
412.818	578.72
413.026	509.09
413.234	441.51
413.443	523.43
413.651	513.19
413.86	560.29
414.068	623.78
414.276	670.88
414.485	582.82
414.693	724.13
414.901	787.61
415.11	677.02
415.318	634.02
415.526	736.42
415.734	736.42
415.943	779.42
416.151	799.9
416.359	830.62
416.567	877.73
416.776	840.86
416.984	933.02
417.192	1021.08
417.4	959.64
417.608	961.69
417.817	994.46
418.025	1041.56
418.233	1141.91
418.441	1082.52
418.649	1158.3
418.857	1281.18
419.065	1291.41
419.273	1307.8
419.481	1352.85
419.689	1414.29
419.897	1416.34
420.105	1420.44
420.313	1666.19
420.521	1635.47
420.729	1701.01
420.937	1528.98
421.145	1715.34
421.353	1795.22
421.561	1907.85
421.769	1891.47
421.977	1967.24
422.185	2092.17
422.393	2190.47
422.601	2153.61
422.809	2270.34
423.017	2307.21
423.224	2323.59
423.432	2464.9
423.64	2333.83
423.848	2657.41
424.056	2507.91
424.263	2684.03
424.471	2788.48
424.679	2845.82
424.887	3009.66
425.094	3122.3
425.302	3112.06
425.51	3355.77
425.718	3361.91
425.925	3359.86
426.133	3533.94
426.341	3705.97
426.548	3839.09
426.756	4060.27
426.964	3896.43
427.171	4119.66
427.379	4344.94
427.586	4496.49
427.794	4363.37
428.001	4742.24
428.209	4807.78
428.417	4686.95
428.624	5119.07
428.832	5082.21
429.039	5098.59
429.247	5123.16
429.454	5532.76
429.662	5923.92
429.869	5649.49
430.076	5987.41
430.284	5762.13
430.491	5983.31
430.699	6421.58
430.906	6423.62
431.114	6513.74
431.321	6706.24
431.528	6890.56
431.736	7226.43
431.943	7476.28
432.15	7373.88
432.358	7412.79
432.565	7908.4
432.772	7715.89
432.979	8309.8
433.187	8459.31
433.394	8447.02
433.601	9071.65
433.808	9012.26
434.016	9157.66
434.223	9366.56
434.43	9907.22
434.637	9606.17
434.844	10163.22
435.052	10689.54
435.259	10335.24
435.466	10331.15
435.673	10310.67
435.88	11281.41
436.087	11529.21
436.294	12010.48
436.501	11518.97
436.708	11621.37
436.915	12211.18
437.122	12710.89
437.329	12614.63
437.537	13063.14
437.743	13263.84
437.95	13087.71
438.157	13792.22
438.364	14203.86
438.571	14175.19
438.778	14371.79
438.985	15502.27
439.192	14898.12
439.399	15504.32
439.606	14920.65
439.813	15936.44
440.02	16845.74
440.227	16747.44
440.433	16491.44
440.64	17036.2
440.847	16968.62
441.054	17273.76
441.261	18420.63
441.467	18199.44
441.674	18611.09
441.881	19309.44
442.088	19291.01
442.294	19014.54
442.501	19516.29
442.708	20165.49
442.914	20806.51
443.121	21511.01
443.328	21281.64
443.534	22627.15
443.741	21687.14
443.948	21496.67
444.154	23345.99
444.361	23374.66
444.568	23219.02
444.774	23040.84
444.981	23788.35
445.187	24199.99
445.394	25236.27
445.6	25027.37
445.807	27165.45
446.013	26227.48
446.22	26675.99
446.426	27912.96
446.633	27880.19
446.839	29154.03
447.046	27575.05
447.252	29221.61
447.459	29246.19
447.665	29143.79
447.871	30540.5
448.078	31728.33
448.284	30261.98
448.491	31187.66
448.697	32559.8
448.903	32694.97
449.11	32979.64
449.316	32285.37
449.522	33163.95
449.728	33729.19
449.935	33839.78
450.141	34011.81
450.347	34673.31
450.553	33821.35
450.76	34267.81
450.966	35445.39
451.172	34452.12
451.378	35900.04
451.584	34857.62
451.791	35988.1
451.997	35666.57
452.203	36350.59
452.409	36543.1
452.615	36127.36
452.821	34900.63
453.027	34540.19
453.233	36321.92
453.44	34738.84
453.646	35111.57
453.852	35461.77
454.058	36416.13
454.264	34892.44
454.47	35637.9
454.676	34718.36
454.882	35871.37
455.088	32819.89
455.294	33299.12
455.5	33630.89
455.705	34005.67
455.911	32756.41
456.117	32488.12
456.323	31914.69
456.529	30253.79
456.735	31277.77
456.941	30391
457.147	30098.14
457.352	29139.69
457.558	28824.31
457.764	28945.14
457.97	28486.39
458.176	27833.09
458.381	27718.4
458.587	26073.88
458.793	26393.37
458.999	24986.41
459.204	26506.01
459.41	25738.02
459.616	24111.93
459.821	24585.01
460.027	24056.64
460.233	23667.52
460.438	22416.21
460.644	22541.14
460.85	21908.32
461.055	21146.47
461.261	21594.98
461.466	19766.14
461.672	19102.6
461.878	20695.92
462.083	19233.67
462.289	18766.73
462.494	18594.7
462.7	17927.07
462.905	17263.52
463.111	18228.12
463.316	17898.39
463.522	17585.05
463.727	17709.98
463.932	17492.9
464.138	17697.69
464.343	17658.78
464.549	16870.31
464.754	17808.28
464.959	17183.65
465.165	17578.91
465.37	16395.18
465.575	15727.55
465.781	16757.67
465.986	16896.94
466.191	16260.02
466.397	16137.14
466.602	15123.4
466.807	15698.88
467.012	15961.02
467.218	15621.05
467.423	15365.06
467.628	15473.6
467.833	16354.23
468.038	15612.86
468.244	15229.89
468.449	15631.29
468.654	15111.11
468.859	15201.22
469.064	15205.31
469.269	14615.5
469.474	14719.95
469.679	14934.98
469.885	14463.95
470.09	14678.99
470.295	14492.62
470.5	14318.54
470.705	14334.93
470.91	13984.73
471.115	13767.64
471.32	13921.24
471.525	13894.61
471.73	13730.78
471.935	13532.12
472.139	13140.96
472.344	13417.44
472.549	13233.12
472.754	13255.65
472.959	12872.68
473.164	12444.65
473.369	12360.69
473.574	12846.05
473.778	12782.57
473.983	12446.7
474.188	12819.43
474.393	11996.15
474.598	12233.71
474.802	11817.97
475.007	11647.99
475.212	11850.74
475.417	11203.58
475.621	11666.42
475.826	11383.8
476.031	11138.05
476.235	10966.02
476.44	11234.3
476.645	10785.8
476.849	10791.94
477.054	10601.48
477.259	10779.65
477.463	10759.17
477.668	10363.92
477.872	10533.9
478.077	10429.45
478.282	10112.02
478.486	10167.31
478.691	9999.38
478.895	9880.6
479.1	10044.43
479.304	9966.61
479.509	9606.17
479.713	9784.34
479.918	9597.98
480.122	9341.98
480.326	9600.02
480.531	9516.06
480.735	9307.16
480.94	9317.4
481.144	9686.04
481.348	9225.25
481.553	9260.06
481.757	9198.62
481.961	9280.54
482.166	9354.27
482.37	9389.08
482.574	9112.61
482.778	9155.61
482.983	9481.24
483.187	9200.67
483.391	9169.95
483.595	9231.39
483.8	9028.64
484.004	9176.09
484.208	9258.01
484.412	9028.64
484.616	9163.81
484.821	9333.79
485.025	9059.36
485.229	9073.7
485.433	9077.79
485.637	9165.85
485.841	9083.94
486.045	9098.27
486.249	9165.85
486.453	9059.36
486.657	8967.2
486.861	9016.35
487.065	9047.07
487.269	9077.79
487.473	9042.98
487.677	9333.79
487.881	9335.84
488.085	9075.74
488.289	9200.67
488.493	8995.87
488.697	9245.73
488.901	9309.21
489.105	9096.22
489.309	9231.39
489.512	9352.22
489.716	9350.17
489.92	9296.92
490.124	9274.4
490.328	9333.79
490.531	9376.8
490.735	9542.68
490.939	9425.95
491.143	9354.27
491.346	9413.66
491.55	9585.69
491.754	9495.58
491.958	9690.13
492.161	9522.2
492.365	9694.23
492.569	9718.81
492.772	9780.25
492.976	9716.76
493.18	9890.84
493.383	10003.47
493.587	10126.35
493.79	10136.59
493.994	9835.54
494.197	10058.77
494.401	10267.66
494.605	10028.05
494.808	10392.59
495.012	10363.92
495.215	10435.6
495.419	10640.39
495.622	10499.08
495.825	10550.28
496.029	10449.93
496.232	10734.6
496.436	10652.68
496.639	11258.88
496.843	10963.97
497.046	11213.82
497.249	11328.51
497.453	11353.09
497.656	11547.64
497.859	11486.2
498.063	11652.09
498.266	12037.11
498.469	11883.51
498.673	11901.94
498.876	12145.65
499.079	12227.57
499.282	12174.32
499.485	12844.01
499.689	12717.03
499.892	12731.37
500.095	12860.39
500.298	13321.18
500.501	12850.15
500.705	13239.26
500.908	13644.76
501.111	13499.36
501.314	13745.11
501.517	13884.37
501.72	14160.85
501.923	13992.92
502.126	14443.47
502.329	14752.71
502.532	14541.77
502.735	14771.15
502.938	15158.21
503.141	15117.25
503.344	15551.42
503.547	15166.4
503.75	15567.81
503.953	15719.35
504.156	15846.33
504.359	16106.42
504.562	16094.13
504.765	16466.86
504.968	16520.11
505.17	16925.61
505.373	16960.42
505.576	17451.94
505.779	17173.41
505.982	17224.61
506.185	18031.51
506.387	17771.42
506.59	17734.56
506.793	18090.9
506.996	18258.84
507.198	18652.05
507.401	19016.58
507.604	19010.44
507.807	19350.4
508.009	19223.43
508.212	19262.34
508.415	19743.61
508.617	19956.6
508.82	20142.97
509.022	20024.19
509.225	20548.47
509.428	20523.89
509.63	20556.66
509.833	20700.01
510.035	21492.58
510.238	21189.48
510.44	21545.83
510.643	21971.8
510.845	21756.77
511.048	21832.54
511.25	22129.5
511.453	22453.08
511.655	23020.36
511.858	22784.85
512.06	23042.89
512.262	23587.65
512.465	23096.14
512.667	23591.75
512.87	23749.44
513.072	24189.75
513.274	24267.58
513.477	24505.14
513.679	24568.63
513.881	25330.47
514.084	25078.57
514.286	25277.22
514.488	25166.63
514.69	25842.46
514.893	25991.97
515.095	25922.34
515.297	26211.1
515.499	26503.96
515.701	26829.59
515.904	27075.34
516.106	26938.13
516.308	27464.46
516.51	27683.59
516.712	27665.16
516.914	27446.02
517.116	27974.4
517.318	28197.63
517.52	28543.74
517.722	28488.44
517.925	28619.51
518.127	29594.34
518.329	29291.24
518.531	29610.73
518.733	29786.85
518.935	29862.63
519.136	29684.45
519.338	30157.53
519.54	30642.9
519.742	30577.37
519.944	31015.63
520.146	31271.63
520.348	31728.33
520.55	31558.35
520.752	31593.16
520.954	32213.7
521.155	32115.39
521.357	32340.67
521.559	32303.81
521.761	32805.56
521.963	32774.84
522.164	33307.31
522.366	33419.95
522.568	33163.95
522.77	33530.54
522.971	33890.98
523.173	33551.02
523.375	33850.02
523.576	33712.81
523.778	33757.86
523.98	34437.79
524.181	34388.64
524.383	34501.28
524.584	35330.7
524.786	34771.61
524.988	34540.19
525.189	35093.14
525.391	35519.12
525.592	35420.81
525.794	35510.92
525.995	35832.46
526.197	35486.35
526.398	36020.87
526.6	35904.13
526.801	36141.7
527.003	36174.47
527.204	35797.64
527.406	36207.23
527.607	35973.77
527.808	36606.59
528.01	35652.23
528.211	36313.73
528.412	36651.64
528.614	36803.19
528.815	36719.23
529.016	36850.3
529.218	36629.12
529.419	37046.9
529.62	36805.24
529.822	36946.55
530.023	36860.54
530.224	36928.12
530.425	36831.86
530.626	36743.8
530.828	36567.68
531.029	37710.44
531.23	36930.17
531.431	36960.89
531.632	37198.45
531.833	37331.57
532.035	37388.91
532.236	37360.24
532.437	37350
532.638	37134.96
532.839	37386.86
533.04	37399.15
533.241	36967.03
533.442	37726.83
533.643	36956.79
533.844	37030.52
534.045	37163.64
534.246	37237.36
534.447	37257.84
534.648	37485.17
534.849	37562.99
535.05	36563.58
535.251	36948.6
535.451	37302.9
535.652	37321.33
535.853	37065.33
536.054	37513.84
536.255	37325.43
536.456	37010.04
536.657	37362.29
536.857	37259.89
537.058	37180.02
537.259	37421.68
537.46	37450.35
537.66	37163.64
537.861	36981.37
538.062	36995.7
538.263	37401.2
538.463	36973.17
538.664	37071.48
538.865	36897.4
539.065	37411.44
539.266	36764.28
539.466	37177.97
539.667	36629.12
539.868	37655.15
540.068	37028.47
540.269	36919.93
540.469	37153.4
540.67	37044.85
540.87	37063.29
541.071	37210.74
541.271	37284.47
541.472	37153.4
541.672	36975.22
541.873	36903.54
542.073	36614.78
542.274	37143.16
542.474	37098.1
542.675	36606.59
542.875	37173.88
543.075	37048.95
543.276	36311.68
543.476	36784.76
543.676	36895.35
543.877	36768.38
544.077	36844.15
544.277	36557.44
544.478	36700.79
544.678	37173.88
544.878	36508.29
545.078	36768.38
545.279	36514.43
545.479	36844.15
545.679	36915.83
545.879	36661.88
546.079	36692.6
546.28	36622.97
546.48	36395.65
546.68	36586.11
546.88	37042.81
547.08	36682.36
547.28	36641.4
547.48	36532.86
547.68	36541.05
547.88	36399.74
548.081	36522.62
548.281	36944.5
548.481	36455.04
548.681	36553.34
548.881	36500.09
549.081	36360.83
549.28	36348.54
549.48	36579.96
549.68	36256.39
549.88	36684.41
550.08	36465.28
550.28	36629.12
550.48	36868.73
550.68	36696.7
550.88	36344.45
551.08	36379.26
551.279	36715.13
551.479	36293.25
551.679	36536.96
551.879	36391.55
552.079	36463.23
552.278	36358.78
552.478	36209.28
552.678	36170.37
552.878	36424.32
553.077	36315.78
553.277	35639.95
553.477	36524.67
553.676	36074.12
553.876	36272.77
554.076	36141.7
554.275	36418.17
554.475	36000.39
554.674	36000.39
554.874	36289.15
555.074	36131.46
555.273	36096.64
555.473	36115.08
555.672	36196.99
555.872	36371.07
556.071	36416.13
556.271	36518.53
556.47	36006.53
556.67	35885.7
556.869	35975.81
557.068	35850.89
557.268	35881.61
557.467	36100.74
557.667	36231.81
557.866	35992.2
558.065	35728.01
558.265	35857.03
558.464	35654.28
558.663	35992.2
558.863	35740.3
559.062	36498.05
559.261	35664.52
559.461	36375.17
559.66	35555.98
559.859	35787.4
560.058	35590.8
560.258	35760.78
560.457	35367.57
560.656	36170.37
560.855	35177.11
561.054	35949.19
561.253	35578.51
561.453	35687.05
561.652	35707.53
561.851	35928.71
562.05	35451.53
562.249	35134.1
562.448	36065.92
562.647	35687.05
562.846	35551.88
563.045	35785.35
563.244	35226.26
563.443	36020.87
563.642	35287.7
563.841	35484.3
564.04	35132.05
564.239	35740.3
564.438	35564.17
564.637	35676.81
564.836	35490.45
565.035	34919.06
565.234	35246.74
565.432	35087
565.631	35041.94
565.83	35289.74
566.029	35211.92
566.228	34986.64
566.427	35027.6
566.625	35054.23
566.824	34620.06
567.023	34980.5
567.222	34298.53
567.42	34871.96
567.619	35091.09
567.818	34482.84
568.016	34888.34
568.215	35082.9
568.414	34499.23
568.612	35371.66
568.811	34501.28
569.01	34732.7
569.208	34513.56
569.407	34695.83
569.605	34224.8
569.804	34656.92
570.002	34536.09
570.201	34460.32
570.4	34466.46
570.598	34638.49
570.797	34298.53
570.995	34724.5
571.193	34067.11
571.392	34466.46
571.59	34110.11
571.789	34034.34
571.987	34067.11
572.186	33989.28
572.384	33841.83
572.582	34185.89
572.781	33972.9
572.979	33721
573.177	33854.12
573.376	34335.39
573.574	33946.28
573.772	33913.51
573.971	33868.45
574.169	33479.34
574.367	33411.76
574.565	33745.58
574.763	33600.17
574.962	33739.43
575.16	33520.3
575.358	33475.24
575.556	33049.27
575.754	33770.15
575.952	33393.33
576.151	33548.97
576.349	33131.19
576.547	33243.82
576.745	33311.41
576.943	33135.28
577.141	33237.68
577.339	32811.7
577.537	33092.27
577.735	33018.55
577.933	32811.7
578.131	32881.33
578.329	32963.25
578.527	32656.06
578.725	32537.27
578.923	32697.02
579.121	32152.26
579.319	32299.71
579.516	32688.82
579.714	32848.57
579.912	32608.95
580.11	32373.44
580.308	32211.65
580.506	32031.43
580.704	32062.15
580.901	32148.16
581.099	32385.72
581.297	31871.68
581.495	31918.79
581.692	31994.56
581.89	31873.73
582.088	32031.43
582.285	31877.83
582.483	32090.82
582.681	31797.96
582.878	31580.87
583.076	31144.66
583.274	31826.63
583.471	31623.88
583.669	31357.64
583.866	30978.77
584.064	31361.74
584.262	31138.51
584.459	31574.73
584.657	31066.83
584.854	31615.69
585.052	30907.09
585.249	31277.77
585.447	31003.35
585.644	30436.06
585.841	30986.96
586.039	31402.7
586.236	30778.07
586.434	30665.43
586.631	30427.87
586.828	30446.3
587.026	30448.35
587.223	30712.53
587.42	29997.79
587.618	30358.24
587.815	30038.75
588.012	30016.22
588.21	29934.31
588.407	30452.44
588.604	30137.05
588.801	29510.38
588.999	29864.67
589.196	29969.12
589.393	29795.04
589.59	29704.93
589.787	29330.16
589.984	29418.22
590.182	29045.49
590.379	29682.41
590.576	29340.39
590.773	29221.61
590.97	29432.55
591.167	29313.77
591.364	28629.75
591.561	29336.3
591.758	29197.04
591.955	29244.14
592.152	29115.12
592.349	28502.78
592.546	29125.36
592.743	28754.68
592.94	28373.75
593.137	28654.33
593.334	29004.53
593.531	28599.03
593.727	28715.76
593.924	28562.17
594.121	28277.5
594.318	28553.97
594.515	28070.65
594.712	28242.68
594.908	27966.21
595.105	28037.89
595.302	27751.17
595.499	27843.33
595.696	27976.45
595.892	27548.42
596.089	27880.19
596.286	28062.46
596.482	27761.41
596.679	27659.01
596.876	27620.1
597.072	27550.47
597.269	27112.2
597.466	27179.79
597.662	27067.15
597.859	27280.14
598.055	27097.87
598.252	27130.64
598.448	27173.64
598.645	27081.49
598.841	26985.23
599.038	27267.85
599.234	27347.72
599.431	26645.27
599.627	26739.47
599.824	26716.95
600.02	26577.69
600.217	26456.85
600.413	26497.81
600.609	26628.88
600.806	26282.78
601.002	26338.07
601.198	26049.31
601.395	25846.56
601.591	25967.39
601.787	26280.73
601.984	26059.55
602.18	26032.93
602.376	25873.18
602.572	25856.8
602.769	25750.31
602.965	25705.25
603.161	25967.39
603.357	25467.69
603.553	25506.6
603.75	25654.05
603.946	25312.04
604.142	25402.15
604.338	25051.95
604.534	25283.37
604.73	24955.69
604.926	25066.28
605.122	25228.07
605.318	25207.59
605.514	25207.59
605.71	24750.9
605.906	25041.71
606.102	25133.87
606.298	25123.63
606.494	24892.21
606.69	24765.23
606.886	24869.68
607.082	24355.64
607.278	24802.1
607.474	24402.74
607.67	24466.23
607.866	24038.2
608.062	24431.41
608.257	24716.08
608.453	24249.14
608.649	24378.17
608.845	24124.22
609.041	24204.09
609.236	24515.38
609.432	24165.18
609.628	24189.75
609.824	23997.24
610.019	24150.84
610.215	23909.18
610.411	24032.06
610.606	24245.05
610.802	23929.66
610.998	24062.78
611.193	23935.81
611.389	23847.74
611.584	23847.74
611.78	23774.02
611.976	24017.72
612.171	23745.34
612.367	23765.82
612.562	23644.99
612.758	23032.65
612.953	23227.21
613.149	23939.9
613.344	23364.42
613.539	23577.41
613.735	23634.75
613.93	23556.93
614.126	23544.64
614.321	23704.38
614.517	23573.31
614.712	23292.74
614.907	23302.98
615.103	23335.75
615.298	23079.75
615.493	23395.14
615.688	22991.69
615.884	23362.37
616.079	22852.43
616.274	23077.71
616.47	22768.46
616.665	22854.48
616.86	22793.04
617.055	22707.02
617.25	22448.98
617.445	22854.48
617.641	22516.56
617.836	22715.22
618.031	22258.52
618.226	22821.71
618.421	22442.84
618.616	22831.95
618.811	22317.91
619.006	22651.73
619.201	22047.58
619.396	22123.35
619.591	21769.05
619.786	22176.6
619.981	21556.07
620.176	22070.11
620.371	21621.6
620.566	21998.43
620.761	21515.11
620.956	21412.71
621.151	21437.28
621.346	21373.8
621.541	21070.7
621.735	21111.66
621.93	20958.06
622.125	21160.81
622.32	20388.72
622.515	20614
622.709	20820.84
622.904	20624.24
623.099	20366.2
623.294	20519.79
623.488	20405.11
623.683	20087.67
623.878	19716.99
624.072	19940.22
624.267	19739.52
624.462	20102.01
624.656	19641.21
624.851	19381.12
625.046	19651.45
625.24	19403.65
625.435	19141.51
625.629	19039.11
625.824	19331.97
626.018	19282.82
626.213	18838.41
626.407	18842.51
626.602	18475.92
626.796	18725.77
626.991	18791.31
627.185	18377.62
627.38	18383.76
627.574	18254.74
627.768	18277.27
627.963	17994.65
628.157	18072.47
628.352	18146.2
628.546	17826.71
628.74	17859.48
628.935	17603.49
629.129	17687.45
629.323	17443.74
629.517	17267.62
629.712	17204.13
629.906	17230.76
630.1	17263.52
630.294	17144.74
630.489	16815.02
630.683	17017.77
630.877	16501.68
631.071	16700.33
631.265	16960.42
631.459	16661.42
631.653	16616.37
631.848	16384.94
632.042	16518.06
632.236	16296.88
632.43	16018.36
632.624	16098.23
632.818	15938.49
633.012	15911.86
633.206	16067.51
633.4	15932.34
633.594	15553.47
633.788	15911.86
633.982	15739.83
634.176	15571.9
634.369	15569.85
634.563	15399.87
634.757	15274.95
634.951	15410.11
635.145	15227.84
635.339	15172.55
635.533	14898.12
635.726	15387.58
635.92	14646.22
636.114	14689.23
636.308	14695.37
636.501	14562.25
636.695	14523.34
636.889	14375.89
637.083	14365.65
637.276	14226.39
637.47	14214.1
637.664	13947.86
637.857	14078.93
638.051	13867.99
638.244	13876.18
638.438	13784.02
638.632	13923.29
638.825	13556.7
639.019	13523.93
639.212	13558.75
639.406	13450.21
639.599	13288.42
639.793	13702.11
639.986	13095.91
640.18	13349.85
640.373	13028.32
640.567	13028.32
640.76	13016.04
640.954	12948.45
641.147	12749.8
641.34	12542.96
641.534	12721.13
641.727	12733.42
641.92	12635.11
642.114	12635.11
642.307	12475.37
642.5	12442.6
642.694	12000.24
642.887	12262.38
643.08	12336.11
643.273	12033.01
643.467	12086.26
643.66	12141.55
643.853	12016.63
644.046	11652.09
644.239	11895.8
644.432	11615.23
644.626	11545.59
644.819	11736.06
645.012	11848.69
645.205	11561.98
645.398	11488.25
645.591	11416.57
645.784	11432.96
645.977	11240.45
646.17	11326.46
646.363	11099.14
646.556	11056.13
646.749	11119.62
646.942	11084.8
647.135	11035.65
647.328	10941.44
647.521	10761.22
647.714	10683.4
647.907	10632.2
648.099	10519.56
648.292	10693.64
648.485	10484.75
648.678	10277.9
648.871	10634.25
649.064	10376.2
649.256	10376.2
649.449	10398.73
649.642	10288.14
649.835	9987.09
650.027	10011.67
650.22	10261.52
650.413	9944.08
650.605	10003.47
650.798	9937.94
650.991	9770.01
651.183	9833.49
651.376	9554.97
651.568	9708.57
651.761	9567.26
651.954	9630.74
652.146	9626.65
652.339	9643.03
652.531	9600.02
652.724	9503.77
652.916	9270.3
653.109	9344.03
653.301	9278.49
653.494	9391.13
653.686	9116.7
653.879	9176.09
654.071	9085.98
654.263	9114.66
654.456	8961.06
654.648	8860.71
654.84	8938.53
655.033	8959.01
655.225	8948.77
655.417	8844.32
655.61	8739.88
655.802	8907.81
655.994	8774.69
656.186	8686.63
656.379	8672.29
656.571	8375.34
656.763	8496.17
656.955	8422.44
657.148	8467.5
657.34	8401.96
657.532	8236.08
657.724	8303.66
657.916	8262.7
658.108	8272.94
658.3	8434.73
658.492	8139.82
658.684	8102.96
658.876	7969.84
659.068	7857.2
659.26	7892.02
659.452	7885.87
659.644	7939.12
659.836	7902.26
660.028	7939.12
660.22	7826.48
660.412	7599.16
660.604	7547.96
660.796	7601.21
660.988	7777.33
661.18	7638.07
661.372	7457.85
661.563	7463.99
661.755	7314.49
661.947	7289.92
662.139	7230.52
662.331	7326.78
662.522	7201.85
662.714	7218.24
662.906	7392.31
663.097	7197.76
663.289	7064.64
663.481	7056.45
663.673	7068.73
663.864	7003.2
664.056	6937.66
664.247	7181.37
664.439	6872.13
664.631	7134.27
664.822	7048.26
665.014	6808.64
665.205	6988.86
665.397	6804.55
665.588	6794.31
665.78	6736.96
665.971	6745.16
666.163	6771.78
666.354	6724.68
666.546	6706.24
666.737	6620.23
666.929	6575.17
667.12	6503.5
667.311	6575.17
667.503	6384.71
667.694	6480.97
667.885	6388.81
668.077	6450.25
668.268	6212.68
668.459	6417.48
668.651	6458.44
668.842	6351.95
669.033	6317.13
669.224	6214.73
669.416	6427.72
669.607	6360.14
669.798	6165.58
669.989	6181.96
670.18	6263.88
670.371	6300.75
670.563	5985.36
670.754	6116.43
670.945	6102.09
671.136	6102.09
671.327	6024.27
671.518	6014.03
671.709	5958.74
671.9	6048.85
672.091	6052.94
672.282	5899.34
672.473	5911.63
672.664	5928.02
672.855	5770.32
673.046	5876.82
673.237	5915.73
673.428	5938.26
673.619	5852.24
673.809	5723.22
674	5858.39
674.191	5762.13
674.382	5823.57
674.573	5760.08
674.764	5741.65
674.954	5860.43
675.145	5684.31
675.336	5651.54
675.527	5577.81
675.717	5659.73
675.908	5358.68
676.099	5676.12
676.289	5686.36
676.48	5692.5
676.671	5696.6
676.861	5579.86
677.052	5629.01
677.243	5483.61
677.433	5497.94
677.624	5485.65
677.814	5522.52
678.005	5538.9
678.195	5440.6
678.386	5438.55
678.576	5444.7
678.767	5352.54
678.957	5475.42
679.148	5512.28
679.338	5477.46
679.529	5479.51
679.719	5401.69
679.909	5483.61
680.1	5477.46
680.29	5432.41
680.481	5504.09
680.671	5420.12
680.861	5373.02
681.052	5502.04
681.242	5440.6
681.432	5512.28
681.622	5409.88
681.813	5344.35
682.003	5375.06
682.193	5557.33
682.383	5403.74
682.573	5149.79
682.764	5264.47
682.954	5430.36
683.144	5450.84
683.334	5266.52
683.524	5426.26
683.714	5293.15
683.904	5047.39
684.094	5260.38
684.284	5289.05
684.474	5311.58
684.664	5350.49
684.854	5239.9
685.044	5065.82
685.234	5190.75
685.424	5121.12
685.614	5160.03
685.804	5289.05
685.994	5188.7
686.184	5145.69
686.374	5037.15
686.564	5028.96
686.753	5168.22
686.943	5061.73
687.133	5026.91
687.323	4828.26
687.513	5084.25
687.702	5024.86
687.892	4887.65
688.082	4844.64
688.272	4906.08
688.461	4824.16
688.651	5031.01
688.841	4777.06
689.03	4777.06
689.22	4826.21
689.41	4719.71
689.599	4750.43
689.789	4727.91
689.979	4797.54
690.168	4662.37
690.358	4645.99
690.547	4699.23
690.737	4615.27
690.926	4676.71
691.116	4396.14
691.305	4582.5
691.495	4672.61
691.684	4519.01
691.874	4600.93
692.063	4607.08
692.252	4476.01
692.442	4637.8
692.631	4359.27
692.82	4451.43
693.01	4420.71
693.199	4349.03
693.388	4539.49
693.578	4359.27
693.767	4299.88
693.956	4377.7
694.146	4306.02
694.335	4416.62
694.524	4330.6
694.713	4363.37
694.902	4299.88
695.092	4469.86
695.281	4275.31
695.47	4209.77
695.659	4275.31
695.848	4420.71
696.037	4336.74
696.226	4297.83
696.415	4310.12
696.604	4383.85
696.793	4230.25
696.982	4170.86
697.171	4299.88
697.36	4361.32
697.549	4297.83
697.738	4150.38
697.927	4158.57
698.116	4213.87
698.305	4359.27
698.494	4346.98
698.683	4275.31
698.872	4394.09
699.061	4316.26
699.25	4107.37
699.438	4238.44
699.627	4209.77
699.816	4365.42
700.005	4121.71
700.193	4228.2
700.382	4451.43
700.571	4197.48
700.76	4306.02
700.948	4291.69
701.137	4338.79
701.326	4289.64
701.514	4136.04
701.703	4373.61
701.892	4308.07
702.08	4375.66
702.269	4232.3
702.457	4164.72
702.646	4195.43
702.834	4201.58
703.023	4310.12
703.212	4349.03
703.4	4285.55
703.589	4242.54
703.777	4318.31
703.965	4359.27
704.154	4111.47
704.342	4258.92
704.531	4379.75
704.719	4121.71
704.907	4416.62
705.096	4224.11
705.284	4166.76
705.472	4330.6
705.661	4355.18
705.849	4379.75
706.037	4211.82
706.226	4234.35
706.414	4115.56
706.602	4238.44
706.79	4389.99
706.979	4340.84
707.167	4334.7
707.355	4326.5
707.543	4394.09
707.731	4281.45
707.919	4310.12
708.107	4222.06
708.296	4400.23
708.484	4363.37
708.672	4361.32
708.86	4267.11
709.048	4398.18
709.236	4273.26
709.424	4377.7
709.612	4238.44
709.8	4410.47
709.988	4301.93
710.176	4465.77
710.364	4394.09
710.551	4379.75
710.739	4355.18
710.927	4236.39
711.115	4484.2
711.303	4439.14
711.491	4263.02
711.679	4168.81
711.866	4326.5
712.054	4318.31
712.242	4314.22
712.43	4478.05
712.617	4349.03
712.805	4355.18
712.993	4320.36
713.181	4351.08
713.368	4201.58
713.556	4392.04
713.744	4236.39
713.931	4445.29
714.119	4306.02
714.306	4396.14
714.494	4504.68
714.682	4275.31
714.869	4367.46
715.057	4385.9
715.244	4330.6
715.432	4404.33
715.619	4414.57
715.807	4254.83
715.994	4508.77
716.182	4174.95
716.369	4346.98
716.556	4301.93
716.744	4269.16
716.931	4236.39
717.119	4297.83
717.306	4312.17
717.493	4326.5
717.681	4410.47
717.868	4297.83
718.055	4453.48
718.242	4424.81
718.43	4385.9
718.617	4418.66
718.804	4377.7
718.991	4371.56
719.179	4326.5
719.366	4447.33
719.553	4367.46
719.74	4455.53
719.927	4375.66
720.114	4428.9
720.301	4324.46
720.488	4338.79
720.676	4467.81
720.863	4340.84
721.05	4568.16
721.237	4402.28
721.424	4426.86
721.611	4359.27
721.798	4258.92
721.985	4271.21
722.172	4334.7
722.358	4324.46
722.545	4392.04
722.732	4426.86
722.919	4467.81
723.106	4502.63
723.293	4383.85
723.48	4303.98
723.667	4385.9
723.853	4328.55
724.04	4441.19
724.227	4346.98
724.414	4465.77
724.6	4301.93
724.787	4381.8
724.974	4385.9
725.161	4406.38
725.347	4396.14
725.534	4312.17
725.72	4394.09
725.907	4252.78
726.094	4377.7
726.28	4228.2
726.467	4213.87
726.653	4217.96
726.84	4342.89
727.027	4398.18
727.213	4248.68
727.4	4451.43
727.586	4367.46
727.773	4293.74
727.959	4265.07
728.145	4453.48
728.332	4271.21
728.518	4236.39
728.705	4340.84
728.891	4330.6
729.077	4334.7
729.264	4158.57
729.45	4238.44
729.636	4326.5
729.823	4322.41
730.009	4402.28
730.195	4359.27
730.382	4330.6
730.568	4228.2
730.754	4369.51
730.94	4134
731.126	4271.21
731.313	4191.34
731.499	4230.25
731.685	4138.09
731.871	4125.8
732.057	4287.59
732.243	4303.98
732.429	4123.76
732.615	4267.11
732.801	4289.64
732.987	4041.84
733.173	4236.39
733.359	4224.11
733.545	4154.48
733.731	4142.19
733.917	4148.33
734.103	4117.61
734.289	4191.34
734.475	3996.78
734.661	4160.62
734.847	4217.96
735.033	4078.7
735.219	4097.13
735.404	4125.8
735.59	4146.28
735.776	4050.03
735.962	4140.14
736.148	4027.5
736.333	4097.13
736.519	3951.73
736.705	4064.36
736.89	3925.1
737.076	4045.93
737.262	3916.91
737.447	4021.36
737.633	4197.48
737.819	3935.34
738.004	3972.21
738.19	4009.07
738.375	3957.87
738.561	3925.1
738.747	3826.8
738.932	3873.9
739.118	4007.02
739.303	3830.9
739.489	3875.95
739.674	3896.43
739.859	3914.86
740.045	3951.73
740.23	3841.14
740.416	3806.32
740.601	3847.28
740.786	3742.83
740.972	3791.98
741.157	3863.66
741.342	3763.31
741.528	3769.46
741.713	3847.28
741.898	3675.25
742.084	3738.74
742.269	3789.94
742.454	3665.01
742.639	3734.64
742.824	3783.79
743.01	3669.11
743.195	3822.7
743.38	3677.3
743.565	3691.63
743.75	3634.29
743.935	3486.84
744.12	3660.91
744.305	3548.28
744.49	3535.99
744.675	3484.79
744.86	3454.07
745.045	3460.21
745.23	3507.32
745.415	3499.13
745.6	3490.93
745.785	3435.64
745.97	3509.37
746.155	3363.96
746.34	3495.03
746.525	3314.81
746.71	3441.78
746.895	3226.75
747.079	3505.27
747.264	3312.76
747.449	3316.86
747.634	3327.1
747.819	3239.03
748.003	3222.65
748.188	3226.75
748.373	3187.83
748.557	3128.44
748.742	3224.7
748.927	3159.16
749.111	3013.76
749.296	3032.19
749.481	3228.79
749.665	3054.72
749.85	2886.78
750.034	3130.49
750.219	3013.76
750.404	2894.97
750.588	2864.25
750.773	2892.93
750.957	2811.01
751.141	2882.69
751.326	2765.95
751.51	2720.9
751.695	2849.92
751.879	2739.33
752.064	2890.88
752.248	2735.23
752.432	2772.1
752.617	2747.52
752.801	2616.45
752.985	2698.37
753.17	2534.53
753.354	2643.07
753.538	2538.63
753.722	2628.74
753.907	2499.72
754.091	2589.83
754.275	2528.39
754.459	2524.29
754.643	2528.39
754.828	2360.45
755.012	2485.38
755.196	2415.75
755.38	2354.31
755.564	2313.35
755.748	2430.09
755.932	2288.78
756.116	2444.42
756.3	2380.93
756.484	2307.21
756.668	2399.37
756.852	2247.82
757.036	2399.37
757.22	2299.02
757.404	2219.14
757.588	2256.01
757.772	2344.07
757.956	2157.71
758.14	2294.92
758.323	2086.03
758.507	2194.57
758.691	2157.71
758.875	2241.67
759.059	2204.81
759.242	2174.09
759.426	1993.87
759.61	2120.84
759.794	2067.6
759.977	2020.49
760.161	2135.18
760.345	2077.83
760.528	2002.06
760.712	1887.37
760.895	2008.2
761.079	2038.92
761.263	1954.96
761.446	1963.15
761.63	2053.26
761.813	1961.1
761.997	1840.27
762.18	1877.13
762.364	1924.24
762.547	1791.12
762.731	1914
762.914	1920.14
763.098	1842.32
763.281	1752.21
763.464	1766.54
763.648	1836.17
763.831	1778.83
764.015	1850.51
764.198	1866.89
764.381	1789.07
764.564	1866.89
764.748	1791.12
764.931	1756.3
765.114	1719.44
765.297	1770.64
765.481	1735.82
765.664	1707.15
765.847	1686.67
766.03	1813.65
766.213	1750.16
766.397	1748.11
766.58	1772.69
766.763	1641.62
766.946	1688.72
767.129	1727.63
767.312	1602.71
767.495	1588.37
767.678	1641.62
767.861	1627.28
768.044	1598.61
768.227	1580.18
768.41	1692.82
768.593	1723.54
768.776	1690.77
768.959	1592.47
769.142	1633.43
769.324	1637.52
769.507	1631.38
769.69	1504.4
769.873	1502.36
770.056	1629.33
770.239	1574.03
770.421	1580.18
770.604	1485.97
770.787	1483.92
770.97	1559.7
771.152	1541.27
771.335	1553.55
771.518	1434.77
771.7	1514.64
771.883	1541.27
772.066	1455.25
772.248	1418.39
772.431	1506.45
772.613	1385.62
772.796	1449.11
772.978	1438.87
773.161	1475.73
773.343	1389.72
773.526	1408.15
773.708	1402.01
773.891	1291.41
774.073	1455.25
774.256	1238.17
774.438	1465.49
774.621	1318.04
774.803	1354.9
774.985	1217.69
775.168	1305.75
775.35	1252.5
775.532	1289.37
775.715	1248.41
775.897	1379.48
776.079	1238.17
776.261	1315.99
776.444	1250.46
776.626	1287.32
776.808	1232.02
776.99	1143.96
777.173	1238.17
777.355	1234.07
777.537	1248.41
777.719	1162.39
777.901	1137.82
778.083	1137.82
778.265	1193.11
778.447	1176.73
778.629	1078.43
778.811	1105.05
778.993	1172.63
779.175	1207.45
779.357	1178.78
779.539	1002.65
779.721	1115.29
779.903	1109.15
780.085	1033.37
780.267	1078.43
780.449	1084.57
780.631	1082.52
780.812	1246.36
780.994	1049.75
781.176	1062.04
781.358	906.4
781.54	1072.28
781.721	1041.56
781.903	1064.09
782.085	961.69
782.267	980.12
782.448	978.08
782.63	1053.85
782.812	980.12
782.993	904.35
783.175	963.74
783.357	939.16
783.538	900.25
783.72	900.25
783.901	898.2
784.083	847.01
784.264	885.92
784.446	873.63
784.627	847.01
784.809	865.44
784.99	847.01
785.172	851.1
785.353	785.57
785.535	793.76
785.716	732.32
785.897	767.13
786.079	750.75
786.26	775.33
786.441	834.72
786.623	703.65
786.804	783.52
786.985	752.8
787.167	814.24
787.348	736.42
787.529	754.85
787.71	832.67
787.891	742.56
788.073	672.93
788.254	646.3
788.435	767.13
788.616	775.33
788.797	691.36
788.978	732.32
789.159	691.36
789.34	720.03
789.522	736.42
789.703	629.92
789.884	648.35
790.065	742.56
790.246	715.94
790.427	664.74
790.607	695.46
790.788	683.17
790.969	644.26
791.15	660.64
791.331	627.87
791.512	699.55
791.693	629.92
791.874	650.4
792.054	736.42
792.235	634.02
792.416	545.95
792.597	498.85
792.778	558.24
792.958	552.1
793.139	541.86
793.32	627.87
793.5	613.54
793.681	666.78
793.862	568.48
794.042	599.2
794.223	566.43
794.404	539.81
794.584	527.52
794.765	548
794.945	533.67
795.126	552.1
795.306	523.43
795.487	470.18
795.667	562.34
795.848	545.95
796.028	545.95
796.209	486.56
796.389	564.39
796.57	498.85
796.75	443.56
796.93	490.66
797.111	457.89
797.291	560.29
797.471	492.71
797.652	439.46
797.832	504.99
798.012	531.62
798.192	414.88
798.373	416.93
798.553	394.4
798.733	439.46
798.913	388.26
799.093	457.89
799.274	410.79
799.454	537.76
799.634	478.37
799.814	568.48
799.994	609.44
800.174	421.03
800.354	423.08
800.534	398.5
800.714	533.67
800.894	361.64
801.074	466.08
801.254	414.88
801.434	461.99
801.614	369.83
801.794	343.21
801.974	1363.09
802.154	412.84
802.334	445.6
802.514	378.02
802.693	396.45
802.873	398.5
803.053	427.17
803.233	476.32
803.413	404.64
803.592	367.78
803.772	316.58
803.952	402.6
804.131	388.26
804.311	468.13
804.491	418.98
804.67	302.25
804.85	363.69
805.03	480.42
805.209	445.6
805.389	347.3
805.568	351.4
805.748	369.83
805.928	285.86
806.107	351.4
806.287	427.17
806.466	365.73
806.646	324.77
806.825	355.49
807.004	312.49
807.184	427.17
807.363	457.89
807.543	400.55
807.722	353.45
807.901	371.88
808.081	281.77
808.26	257.19
808.439	279.72
808.619	318.63
808.798	310.44
808.977	357.54
809.156	380.07
809.336	347.3
809.515	349.35
809.694	289.96
809.873	279.72
810.052	310.44
810.231	402.6
810.411	249
810.59	380.07
810.769	306.34
810.948	341.16
811.127	271.53
811.306	263.33
811.485	283.81
811.664	357.54
811.843	300.2
812.022	339.11
812.201	242.85
812.38	253.09
812.559	337.06
812.737	310.44
812.916	275.62
813.095	230.57
813.274	244.9
813.453	335.01
813.632	324.77
813.811	322.73
813.989	210.09
814.168	228.52
814.347	195.75
814.526	244.9
814.704	302.25
814.883	326.82
815.062	218.28
815.24	330.92
815.419	224.42
815.598	191.66
815.776	236.71
815.955	181.42
816.133	169.13
816.312	193.7
816.49	156.84
816.669	224.42
816.847	265.38
817.026	234.66
817.204	230.57
817.383	220.33
817.561	220.33
817.74	216.23
817.918	183.46
818.097	191.66
818.275	191.66
818.453	251.05
818.632	214.18
818.81	195.75
818.988	165.03
819.167	185.51
819.345	240.81
819.523	154.79
819.701	214.18
819.879	253.09
820.058	191.66
820.236	162.98
820.414	220.33
820.592	175.27
820.77	119.98
820.948	87.21
821.127	179.37
821.305	218.28
821.483	119.98
821.661	230.57
821.839	113.83
822.017	175.27
822.195	216.23
822.373	251.05
822.551	189.61
822.729	124.07
822.907	177.32
823.085	265.38
823.262	103.59
823.44	119.98
823.618	148.65
823.796	177.32
823.974	208.04
824.152	68.78
824.329	91.31
824.507	136.36
824.685	222.38
824.863	197.8
825.04	232.62
825.218	224.42
825.396	152.74
825.574	193.7
825.751	144.55
825.929	216.23
826.107	119.98
826.284	152.74
826.462	193.7
826.639	124.07
826.817	62.63
826.994	289.96
827.172	136.36
827.349	146.6
827.527	158.89
827.704	226.47
827.882	185.51
828.059	251.05
828.237	212.14
828.414	191.66
828.591	54.44
828.769	185.51
828.946	31.91
829.124	201.9
829.301	177.32
829.478	158.89
829.655	99.5
829.833	208.04
830.01	70.83
830.187	175.27
830.364	87.21
830.542	162.98
830.719	160.94
830.896	181.42
831.073	169.13
831.25	150.7
831.427	218.28
831.604	167.08
831.782	93.35
831.959	136.36
832.136	68.78
832.313	128.17
832.49	167.08
832.667	60.59
832.844	60.59
833.021	152.74
833.198	87.21
833.374	85.16
833.551	111.78
833.728	36.01
833.905	122.02
834.082	52.39
834.259	111.78
834.436	152.74
834.612	101.55
834.789	177.32
834.966	154.79
835.143	146.6
835.319	52.39
835.496	201.9
835.673	109.74
835.85	134.31
836.026	91.31
836.203	210.09
836.38	103.59
836.556	52.39
836.733	27.82
836.909	128.17
837.086	-7
837.262	66.73
837.439	52.39
837.616	152.74
837.792	97.45
837.968	201.9
838.145	38.06
838.321	117.93
838.498	175.27
838.674	138.41
838.851	93.35
839.027	68.78
839.203	138.41
839.38	113.83
839.556	105.64
839.732	85.16
839.909	132.26
840.085	128.17
840.261	17.58
840.437	85.16
840.614	122.02
840.79	167.08
840.966	197.8
841.142	101.55
841.318	64.68
841.494	150.7
841.671	146.6
841.847	162.98
842.023	83.11
842.199	95.4
842.375	130.22
842.551	31.91
842.727	44.2
842.903	130.22
843.079	89.26
843.255	97.45
843.431	126.12
843.607	68.78
843.783	-33.62
843.959	58.54
844.134	23.72
844.31	113.83
844.486	50.35
844.662	56.49
844.838	154.79
845.013	87.21
845.189	60.59
845.365	171.18
845.541	89.26
845.716	74.92
845.892	130.22
846.068	15.53
846.244	3.24
846.419	122.02
846.595	85.16
846.77	33.96
846.946	70.83
847.122	15.53
847.297	97.45
847.473	95.4
847.648	9.39
847.824	74.92
847.999	42.15
848.175	21.67
848.35	56.49
848.526	54.44
848.701	74.92
848.876	122.02
849.052	60.59
849.227	134.31
849.403	60.59
849.578	13.48
849.753	130.22
849.929	33.96
850.104	70.83
850.279	76.97
850.454	19.63
850.63	117.93
850.805	15.53
850.98	136.36
851.155	5.29
851.33	124.07
851.505	5.29
851.681	158.89
851.856	54.44
852.031	142.5
852.206	74.92
852.381	23.72
852.556	76.97
852.731	13.48
852.906	111.78
853.081	167.08
853.256	119.98
853.431	38.06
853.606	70.83
853.781	31.91
853.956	-84.82
854.131	68.78
854.305	7.34
854.48	68.78
854.655	42.15
854.83	64.68
855.005	54.44
855.18	113.83
855.354	68.78
855.529	128.17
855.704	-9.05
855.879	54.44
856.053	-23.38
856.228	66.73
856.403	-33.62
856.577	128.17
856.752	-41.81
856.926	48.3
857.101	38.06
857.276	29.87
857.45	50.35
857.625	101.55
857.799	60.59
857.974	33.96
858.148	-35.67
858.323	27.82
858.497	31.91
858.672	38.06
858.846	25.77
859.02	101.55
859.195	-2.9
859.369	11.43
859.543	85.16
859.718	-33.62
859.892	74.92
860.066	46.25
860.241	89.26
860.415	38.06
860.589	48.3
860.763	29.87
860.938	40.11
861.112	99.5
861.286	89.26
861.46	27.82
861.634	-31.57
861.808	93.35
861.982	7.34
862.157	31.91
862.331	-2.9
862.505	-7
862.679	-47.96
862.853	-35.67
863.027	-23.38
863.201	103.59
863.375	9.39
863.549	23.72
863.722	97.45
863.896	93.35
864.07	27.82
864.244	76.97
864.418	93.35
864.592	11.43
864.766	42.15
864.939	42.15
865.113	58.54
865.287	83.11
865.461	-21.33
865.634	-43.86
865.808	-21.33
865.982	40.11
866.156	3.24
866.329	-15.19
866.503	31.91
866.676	115.88
866.85	58.54
867.024	23.72
867.197	128.17
867.371	93.35
867.544	87.21
867.718	3.24
867.891	42.15
868.065	17.58
868.238	-7
868.412	87.21
868.585	27.82
868.759	-78.68
868.932	46.25
869.105	-4.95
869.279	36.01
869.452	-17.24
869.625	9.39
869.799	44.2
869.972	-54.1
870.145	36.01
870.319	111.78
870.492	17.58
870.665	103.59
870.838	5.29
871.011	-107.35
871.185	11.43
871.358	25.77
871.531	-4.95
871.704	15.53
871.877	97.45
872.05	-52.05
872.223	-60.24
872.396	48.3
872.569	15.53
872.742	25.77
872.915	5.29
873.088	-60.24
873.261	5.29
873.434	93.35
873.607	-33.62
873.78	21.67
873.953	9.39
874.126	64.68
874.299	25.77
874.471	-9.05
874.644	81.07
874.817	13.48
874.99	124.07
875.163	17.58
875.335	117.93
875.508	-21.33
875.681	52.39
875.853	-50
876.026	5.29
876.199	13.48
876.371	44.2
876.544	-4.95
876.717	-4.95
876.889	79.02
877.062	-25.43
877.234	-4.95
877.407	38.06
877.579	-43.86
877.752	-31.57
877.924	31.91
878.097	66.73
878.269	62.63
878.442	15.53
878.614	50.35
878.786	-33.62
878.959	13.48
879.131	29.87
879.303	-29.52
879.476	-41.81
879.648	-7
879.82	-21.33
879.993	-9.05
880.165	29.87
880.337	1.19
880.509	19.63
880.681	-54.1
880.854	36.01
881.026	64.68
881.198	70.83
881.37	19.63
881.542	-9.05
881.714	60.59
881.886	-13.14
882.058	64.68
882.23	-62.29
882.402	-25.43
882.574	46.25
882.746	27.82
882.918	76.97
883.09	-9.05
883.262	-17.24
883.434	-54.1
883.606	-11.09
883.778	-21.33
883.95	17.58
884.122	-58.2
884.293	-4.95
884.465	79.02
884.637	44.2
884.809	-2.9
884.98	66.73
885.152	-27.48
885.324	50.35
885.496	-47.96
885.667	-29.52
885.839	-60.24
886.011	140.46
886.182	1.19
886.354	9.39
886.525	7.34
886.697	79.02
886.869	3.24
887.04	-15.19
887.212	95.4
887.383	105.64
887.555	15.53
887.726	-23.38
887.897	-21.33
888.069	1.19
888.24	25.77
888.412	31.91
888.583	54.44
888.754	11.43
888.926	-29.52
889.097	3.24
889.268	15.53
889.44	-52.05
889.611	-64.34
889.782	-23.38
889.953	-35.67
890.125	44.2
890.296	-27.48
890.467	-21.33
890.638	-21.33
890.809	17.58
890.98	48.3
891.151	17.58
891.323	60.59
891.494	50.35
891.665	7.34
891.836	17.58
892.007	-11.09
892.178	-2.9
892.349	50.35
892.52	-62.29
892.691	44.2
892.862	-2.9
893.032	-90.96
893.203	1.19
893.374	58.54
893.545	-21.33
893.716	-62.29
893.887	115.88
894.057	23.72
894.228	-2.9
894.399	-101.2
894.57	-4.95
894.74	70.83
894.911	11.43
895.082	17.58
895.253	-41.81
895.423	27.82
895.594	54.44
895.764	5.29
895.935	-86.87
896.106	38.06
896.276	-33.62
896.447	-7
896.617	64.68
896.788	-13.14
896.958	-21.33
897.129	36.01
897.299	-13.14
897.47	93.35
897.64	29.87
897.81	7.34
897.981	-31.57
898.151	-54.1
898.322	23.72
898.492	111.78
898.662	19.63
898.832	-13.14
899.003	-39.76
899.173	70.83
899.343	-58.2
899.513	-117.59
