Data from USB4F104151__11__12-11-30-511.txt Node

Date: Fri Mar 14 12:11:30 EDT 2025
User: louis
Spectrometer: USB4F10415
Trigger mode: 4
Integration Time (sec): 5.000000E-2
Scans to average: 1
Electric dark correction enabled: true
Nonlinearity correction enabled: false
Boxcar width: 0
XAxis mode: Wavelengths
Number of Pixels in Spectrum: 3648
>>>>>Begin Spectral Data<<<<<
178.204	-147.45
178.424	-147.45
178.644	-147.45
178.864	-235.52
179.084	-266.24
179.304	-34.82
179.524	6.14
179.744	51.2
179.964	8.19
180.184	20.48
180.404	40.96
180.624	-8.19
180.844	-45.06
181.064	-96.25
181.283	14.34
181.503	18.43
181.723	24.58
181.943	-6.14
182.163	49.15
182.383	20.48
182.602	73.73
182.822	77.82
183.042	32.77
183.262	-16.38
183.482	-12.29
183.701	-12.29
183.921	10.24
184.141	-8.19
184.361	18.43
184.58	24.58
184.8	18.43
185.02	24.58
185.239	30.72
185.459	16.38
185.679	59.39
185.898	-45.06
186.118	57.34
186.338	-6.14
186.557	61.44
186.777	-49.15
186.997	10.24
187.216	45.06
187.436	106.49
187.655	6.14
187.875	59.39
188.095	-22.53
188.314	65.53
188.534	57.34
188.753	-28.67
188.973	10.24
189.192	102.4
189.412	16.38
189.631	53.25
189.851	-43.01
190.07	155.65
190.29	-59.39
190.509	57.34
190.729	45.06
190.948	28.67
191.168	192.51
191.387	59.39
191.607	-22.53
191.826	100.35
192.045	18.43
192.265	71.68
192.484	-2.05
192.704	8.19
192.923	-43.01
193.142	79.87
193.362	30.72
193.581	43.01
193.8	16.38
194.02	90.11
194.239	26.62
194.458	2.05
194.678	4.1
194.897	18.43
195.116	-18.43
195.335	59.39
195.555	40.96
195.774	43.01
195.993	57.34
196.212	30.72
196.432	-12.29
196.651	43.01
196.87	-65.54
197.089	139.26
197.308	71.68
197.528	24.58
197.747	92.16
197.966	36.86
198.185	77.82
198.404	34.82
198.623	86.01
198.842	30.72
199.062	32.77
199.281	55.3
199.5	38.91
199.719	69.63
199.938	126.97
200.157	65.53
200.376	20.48
200.595	133.12
200.814	28.67
201.033	-18.43
201.252	65.53
201.471	-18.43
201.69	55.3
201.909	18.43
202.128	53.25
202.347	6.14
202.566	63.49
202.785	-61.44
203.004	-61.44
203.223	65.53
203.442	77.82
203.661	6.14
203.879	-24.58
204.098	65.53
204.317	-24.58
204.536	-8.19
204.755	36.86
204.974	32.77
205.193	36.86
205.411	147.45
205.63	6.14
205.849	71.68
206.068	18.43
206.287	61.44
206.505	118.78
206.724	81.92
206.943	-32.77
207.162	57.34
207.381	-24.58
207.599	-2.05
207.818	49.15
208.037	69.63
208.255	63.49
208.474	43.01
208.693	108.54
208.911	59.39
209.13	90.11
209.349	122.88
209.567	88.06
209.786	88.06
210.005	-6.14
210.223	90.11
210.442	-81.92
210.661	-30.72
210.879	75.77
211.098	51.2
211.316	49.15
211.535	151.55
211.753	65.53
211.972	47.1
212.191	-26.62
212.409	-8.19
212.628	116.73
212.846	-38.91
213.065	90.11
213.283	77.82
213.502	14.34
213.72	51.2
213.938	14.34
214.157	-55.3
214.375	57.34
214.594	6.14
214.812	53.25
215.031	92.16
215.249	-20.48
215.467	51.2
215.686	67.58
215.904	94.21
216.122	8.19
216.341	75.77
216.559	32.77
216.778	69.63
216.996	96.25
217.214	14.34
217.432	22.53
217.651	4.1
217.869	18.43
218.087	43.01
218.306	38.91
218.524	45.06
218.742	-18.43
218.96	10.24
219.179	-2.05
219.397	61.44
219.615	169.98
219.833	10.24
220.051	20.48
220.27	63.49
220.488	16.38
220.706	-8.19
220.924	-4.1
221.142	0
221.36	51.2
221.578	43.01
221.796	47.1
222.015	53.25
222.233	-32.77
222.451	73.73
222.669	69.63
222.887	43.01
223.105	79.87
223.323	67.58
223.541	0
223.759	51.2
223.977	14.34
224.195	131.07
224.413	53.25
224.631	51.2
224.849	36.86
225.067	122.88
225.285	16.38
225.503	-24.58
225.721	0
225.939	63.49
226.157	40.96
226.375	135.17
226.592	26.62
226.81	20.48
227.028	83.97
227.246	104.45
227.464	38.91
227.682	-24.58
227.9	57.34
228.117	71.68
228.335	-34.82
228.553	-55.3
228.771	49.15
228.989	53.25
229.206	-12.29
229.424	4.1
229.642	49.15
229.86	-14.34
230.077	69.63
230.295	38.91
230.513	20.48
230.731	59.39
230.948	112.64
231.166	73.73
231.384	10.24
231.601	36.86
231.819	135.17
232.037	-63.49
232.254	0
232.472	8.19
232.689	0
232.907	122.88
233.125	8.19
233.342	43.01
233.56	4.1
233.777	-6.14
233.995	32.77
234.213	92.16
234.43	20.48
234.648	45.06
234.865	34.82
235.083	0
235.3	-51.2
235.518	49.15
235.735	55.3
235.953	118.78
236.17	40.96
236.388	6.14
236.605	36.86
236.822	86.01
237.04	30.72
237.257	4.1
237.475	-2.05
237.692	-4.1
237.909	49.15
238.127	-8.19
238.344	-12.29
238.562	2.05
238.779	-34.82
238.996	-57.34
239.214	30.72
239.431	65.53
239.648	67.58
239.865	38.91
240.083	-10.24
240.3	-18.43
240.517	57.34
240.735	51.2
240.952	90.11
241.169	53.25
241.386	-59.39
241.603	49.15
241.821	8.19
242.038	51.2
242.255	67.58
242.472	0
242.689	43.01
242.907	81.92
243.124	45.06
243.341	-8.19
243.558	40.96
243.775	30.72
243.992	-73.73
244.209	114.69
244.426	137.21
244.643	10.24
244.86	34.82
245.078	61.44
245.295	77.82
245.512	36.86
245.729	-12.29
245.946	49.15
246.163	28.67
246.38	-61.44
246.597	-49.15
246.814	94.21
247.031	81.92
247.248	20.48
247.464	-12.29
247.681	36.86
247.898	-24.58
248.115	38.91
248.332	-18.43
248.549	92.16
248.766	94.21
248.983	59.39
249.2	36.86
249.417	0
249.633	-14.34
249.85	53.25
250.067	8.19
250.284	32.77
250.501	65.53
250.717	71.68
250.934	10.24
251.151	16.38
251.368	73.73
251.585	63.49
251.801	51.2
252.018	26.62
252.235	143.36
252.451	61.44
252.668	-2.05
252.885	67.58
253.102	36.86
253.318	83.97
253.535	28.67
253.752	59.39
253.968	-47.1
254.185	-26.62
254.401	30.72
254.618	-8.19
254.835	12.29
255.051	159.74
255.268	26.62
255.484	-18.43
255.701	28.67
255.917	174.08
256.134	51.2
256.351	0
256.567	-53.25
256.784	83.97
257	-40.96
257.217	6.14
257.433	8.19
257.65	67.58
257.866	49.15
258.082	22.53
258.299	12.29
258.515	-16.38
258.732	-92.16
258.948	59.39
259.165	59.39
259.381	-47.1
259.597	-36.86
259.814	-14.34
260.03	63.49
260.246	90.11
260.463	83.97
260.679	34.82
260.895	-8.19
261.112	92.16
261.328	-32.77
261.544	22.53
261.761	165.89
261.977	45.06
262.193	-32.77
262.409	34.82
262.626	45.06
262.842	6.14
263.058	10.24
263.274	106.49
263.49	49.15
263.707	63.49
263.923	59.39
264.139	-32.77
264.355	-34.82
264.571	98.3
264.787	-4.1
265.004	135.17
265.22	0
265.436	-53.25
265.652	-12.29
265.868	69.63
266.084	-110.59
266.3	-63.49
266.516	-18.43
266.732	57.34
266.948	26.62
267.164	59.39
267.38	-26.62
267.596	24.58
267.812	161.79
268.028	-2.05
268.244	-30.72
268.46	65.53
268.676	26.62
268.892	53.25
269.108	-30.72
269.324	-20.48
269.54	28.67
269.756	77.82
269.972	0
270.188	43.01
270.403	-51.2
270.619	20.48
270.835	38.91
271.051	51.2
271.267	36.86
271.483	10.24
271.698	26.62
271.914	-36.86
272.13	108.54
272.346	4.1
272.562	16.38
272.777	96.25
272.993	59.39
273.209	55.3
273.425	63.49
273.64	-6.14
273.856	6.14
274.072	30.72
274.287	-22.53
274.503	32.77
274.719	20.48
274.934	0
275.15	-30.72
275.366	-6.14
275.581	10.24
275.797	0
276.012	4.1
276.228	-38.91
276.444	18.43
276.659	124.93
276.875	10.24
277.09	18.43
277.306	-8.19
277.521	38.91
277.737	83.97
277.952	-45.06
278.168	73.73
278.383	49.15
278.599	-2.05
278.814	43.01
279.03	-32.77
279.245	73.73
279.461	14.34
279.676	51.2
279.892	12.29
280.107	-30.72
280.322	-16.38
280.538	-14.34
280.753	-18.43
280.969	0
281.184	14.34
281.399	155.65
281.615	65.53
281.83	36.86
282.045	14.34
282.26	30.72
282.476	92.16
282.691	-8.19
282.906	75.77
283.122	-63.49
283.337	18.43
283.552	10.24
283.767	-47.1
283.983	51.2
284.198	63.49
284.413	-6.14
284.628	-30.72
284.843	12.29
285.058	77.82
285.274	49.15
285.489	-4.1
285.704	100.35
285.919	16.38
286.134	-14.34
286.349	-53.25
286.564	-4.1
286.779	176.13
286.995	-18.43
287.21	59.39
287.425	47.1
287.64	32.77
287.855	16.38
288.07	-24.58
288.285	118.78
288.5	65.53
288.715	51.2
288.93	43.01
289.145	-63.49
289.36	22.53
289.575	-45.06
289.79	22.53
290.004	83.97
290.219	57.34
290.434	-53.25
290.649	2.05
290.864	-4.1
291.079	16.38
291.294	36.86
291.509	63.49
291.724	0
291.938	65.53
292.153	18.43
292.368	12.29
292.583	18.43
292.798	49.15
293.012	-8.19
293.227	59.39
293.442	22.53
293.657	49.15
293.871	83.97
294.086	0
294.301	122.88
294.516	28.67
294.73	36.86
294.945	47.1
295.16	49.15
295.374	120.83
295.589	61.44
295.804	-12.29
296.018	-6.14
296.233	141.31
296.447	73.73
296.662	4.1
296.877	88.06
297.091	69.63
297.306	79.87
297.52	-49.15
297.735	8.19
297.949	116.73
298.164	-12.29
298.378	-4.1
298.593	-16.38
298.807	8.19
299.022	-18.43
299.236	81.92
299.451	20.48
299.665	86.01
299.88	-4.1
300.094	-6.14
300.309	57.34
300.523	47.1
300.737	36.86
300.952	75.77
301.166	67.58
301.381	100.35
301.595	75.77
301.809	30.72
302.024	28.67
302.238	30.72
302.452	47.1
302.667	40.96
302.881	30.72
303.095	-6.14
303.309	18.43
303.524	-14.34
303.738	2.05
303.952	-16.38
304.166	47.1
304.381	-73.73
304.595	43.01
304.809	-28.67
305.023	32.77
305.237	-18.43
305.452	32.77
305.666	79.87
305.88	45.06
306.094	36.86
306.308	174.08
306.522	96.25
306.736	22.53
306.95	126.97
307.164	-10.24
307.379	20.48
307.593	106.49
307.807	114.69
308.021	12.29
308.235	73.73
308.449	65.53
308.663	-53.25
308.877	110.59
309.091	77.82
309.305	83.97
309.519	4.1
309.733	73.73
309.947	-2.05
310.161	79.87
310.374	20.48
310.588	24.58
310.802	24.58
311.016	-36.86
311.23	-47.1
311.444	-14.34
311.658	-22.53
311.872	40.96
312.085	108.54
312.299	67.58
312.513	75.77
312.727	36.86
312.941	20.48
313.154	34.82
313.368	73.73
313.582	81.92
313.796	110.59
314.009	24.58
314.223	75.77
314.437	38.91
314.651	-20.48
314.864	28.67
315.078	22.53
315.292	-14.34
315.505	49.15
315.719	75.77
315.933	22.53
316.146	-18.43
316.36	-67.58
316.573	34.82
316.787	55.3
317.001	18.43
317.214	-47.1
317.428	59.39
317.641	-36.86
317.855	51.2
318.068	14.34
318.282	57.34
318.495	77.82
318.709	83.97
318.922	-12.29
319.136	28.67
319.349	32.77
319.563	-14.34
319.776	129.02
319.99	34.82
320.203	88.06
320.417	-24.58
320.63	67.58
320.843	100.35
321.057	43.01
321.27	59.39
321.483	75.77
321.697	100.35
321.91	32.77
322.124	63.49
322.337	83.97
322.55	67.58
322.763	-16.38
322.977	0
323.19	30.72
323.403	38.91
323.617	40.96
323.83	51.2
324.043	81.92
324.256	69.63
324.469	59.39
324.683	67.58
324.896	-71.68
325.109	100.35
325.322	-83.97
325.535	79.87
325.748	94.21
325.962	2.05
326.175	8.19
326.388	102.4
326.601	47.1
326.814	8.19
327.027	92.16
327.24	57.34
327.453	-59.39
327.666	98.3
327.879	36.86
328.092	30.72
328.305	59.39
328.518	0
328.731	-4.1
328.944	-26.62
329.157	57.34
329.37	28.67
329.583	112.64
329.796	49.15
330.009	-32.77
330.222	65.53
330.435	69.63
330.648	-10.24
330.861	61.44
331.073	2.05
331.286	8.19
331.499	43.01
331.712	-6.14
331.925	63.49
332.138	-10.24
332.35	83.97
332.563	10.24
332.776	94.21
332.989	-59.39
333.202	26.62
333.414	45.06
333.627	18.43
333.84	-24.58
334.053	18.43
334.265	6.14
334.478	20.48
334.691	22.53
334.903	36.86
335.116	-43.01
335.329	26.62
335.541	2.05
335.754	94.21
335.966	-26.62
336.179	18.43
336.392	43.01
336.604	4.1
336.817	63.49
337.029	45.06
337.242	75.77
337.454	12.29
337.667	59.39
337.88	120.83
338.092	30.72
338.305	-40.96
338.517	57.34
338.729	98.3
338.942	40.96
339.154	6.14
339.367	14.34
339.579	51.2
339.792	-26.62
340.004	36.86
340.217	-34.82
340.429	16.38
340.641	26.62
340.854	-45.06
341.066	-32.77
341.278	38.91
341.491	98.3
341.703	6.14
341.915	-55.3
342.128	145.41
342.34	43.01
342.552	28.67
342.764	34.82
342.977	18.43
343.189	40.96
343.401	16.38
343.613	-61.44
343.826	14.34
344.038	-10.24
344.25	79.87
344.462	67.58
344.674	65.53
344.886	61.44
345.099	45.06
345.311	38.91
345.523	40.96
345.735	18.43
345.947	88.06
346.159	108.54
346.371	69.63
346.583	-16.38
346.795	131.07
347.007	-32.77
347.219	-2.05
347.431	49.15
347.643	51.2
347.855	-14.34
348.067	108.54
348.279	-102.4
348.491	63.49
348.703	16.38
348.915	51.2
349.127	6.14
349.339	2.05
349.551	32.77
349.763	102.4
349.975	10.24
350.187	51.2
350.399	57.34
350.61	2.05
350.822	61.44
351.034	51.2
351.246	71.68
351.458	124.93
351.669	81.92
351.881	53.25
352.093	135.17
352.305	63.49
352.517	-8.19
352.728	139.26
352.94	-20.48
353.152	59.39
353.363	-75.77
353.575	34.82
353.787	65.53
353.999	32.77
354.21	30.72
354.422	-18.43
354.633	43.01
354.845	-30.72
355.057	-51.2
355.268	4.1
355.48	67.58
355.692	-6.14
355.903	67.58
356.115	-2.05
356.326	-88.06
356.538	88.06
356.749	49.15
356.961	141.31
357.172	14.34
357.384	-92.16
357.595	63.49
357.807	4.1
358.018	4.1
358.23	-16.38
358.441	77.82
358.653	73.73
358.864	20.48
359.075	4.1
359.287	14.34
359.498	116.73
359.709	104.45
359.921	43.01
360.132	75.77
360.344	-18.43
360.555	36.86
360.766	67.58
360.977	6.14
361.189	63.49
361.4	20.48
361.611	104.45
361.823	40.96
362.034	98.3
362.245	-14.34
362.456	53.25
362.667	16.38
362.879	-26.62
363.09	110.59
363.301	73.73
363.512	24.58
363.723	86.01
363.935	-24.58
364.146	63.49
364.357	-36.86
364.568	47.1
364.779	-24.58
364.99	53.25
365.201	24.58
365.412	86.01
365.623	-4.1
365.834	106.49
366.045	0
366.256	98.3
366.467	34.82
366.678	-22.53
366.889	32.77
367.1	20.48
367.311	88.06
367.522	0
367.733	47.1
367.944	40.96
368.155	51.2
368.366	18.43
368.577	98.3
368.788	63.49
368.999	2.05
369.209	90.11
369.42	102.4
369.631	100.35
369.842	79.87
370.053	90.11
370.264	94.21
370.474	32.77
370.685	75.77
370.896	38.91
371.107	88.06
371.317	98.3
371.528	-36.86
371.739	73.73
371.95	79.87
372.16	133.12
372.371	-55.3
372.582	65.53
372.792	55.3
373.003	14.34
373.214	-16.38
373.424	129.02
373.635	-116.73
373.846	106.49
374.056	90.11
374.267	40.96
374.477	61.44
374.688	8.19
374.898	86.01
375.109	40.96
375.319	51.2
375.53	-16.38
375.74	57.34
375.951	20.48
376.161	51.2
376.372	65.53
376.582	79.87
376.793	67.58
377.003	10.24
377.214	-16.38
377.424	8.19
377.635	26.62
377.845	32.77
378.055	143.36
378.266	14.34
378.476	51.2
378.686	112.64
378.897	38.91
379.107	40.96
379.317	104.45
379.528	0
379.738	92.16
379.948	-28.67
380.158	55.3
380.369	71.68
380.579	69.63
380.789	106.49
380.999	8.19
381.21	57.34
381.42	145.41
381.63	18.43
381.84	26.62
382.05	14.34
382.261	18.43
382.471	51.2
382.681	16.38
382.891	102.4
383.101	100.35
383.311	-22.53
383.521	-51.2
383.731	14.34
383.941	114.69
384.151	0
384.361	61.44
384.571	10.24
384.781	129.02
384.991	126.97
385.201	217.08
385.411	28.67
385.621	8.19
385.831	67.58
386.041	51.2
386.251	28.67
386.461	77.82
386.671	47.1
386.881	59.39
387.091	40.96
387.301	83.97
387.511	51.2
387.72	59.39
387.93	90.11
388.14	18.43
388.35	61.44
388.56	92.16
388.769	55.3
388.979	4.1
389.189	-10.24
389.399	2.05
389.609	28.67
389.818	94.21
390.028	-20.48
390.238	18.43
390.447	32.77
390.657	98.3
390.867	-24.58
391.076	-6.14
391.286	139.26
391.496	22.53
391.705	65.53
391.915	57.34
392.125	73.73
392.334	73.73
392.544	75.77
392.753	4.1
392.963	40.96
393.172	92.16
393.382	73.73
393.591	167.93
393.801	-8.19
394.01	149.5
394.22	96.25
394.429	-4.1
394.639	51.2
394.848	88.06
395.058	-57.34
395.267	90.11
395.477	51.2
395.686	118.78
395.895	145.41
396.105	126.97
396.314	96.25
396.524	106.49
396.733	88.06
396.942	165.89
397.152	75.77
397.361	131.07
397.57	79.87
397.78	10.24
397.989	118.78
398.198	200.7
398.407	45.06
398.617	149.5
398.826	77.82
399.035	167.93
399.244	73.73
399.453	51.2
399.663	40.96
399.872	112.64
400.081	94.21
400.29	137.21
400.499	88.06
400.708	172.03
400.917	47.1
401.127	24.58
401.336	36.86
401.545	186.37
401.754	141.31
401.963	57.34
402.172	34.82
402.381	59.39
402.59	86.01
402.799	163.84
403.008	118.78
403.217	30.72
403.426	147.45
403.635	49.15
403.844	81.92
404.053	4.1
404.262	67.58
404.471	147.45
404.68	135.17
404.888	75.77
405.097	112.64
405.306	102.4
405.515	122.88
405.724	94.21
405.933	112.64
406.142	182.27
406.35	176.13
406.559	83.97
406.768	137.21
406.977	165.89
407.185	124.93
407.394	110.59
407.603	77.82
407.812	159.74
408.02	227.32
408.229	81.92
408.438	229.37
408.646	49.15
408.855	147.45
409.064	184.32
409.272	143.36
409.481	129.02
409.69	219.13
409.898	96.25
410.107	303.1
410.315	282.62
410.524	225.28
410.733	296.96
410.941	229.37
411.15	292.86
411.358	294.91
411.567	339.96
411.775	335.87
411.984	286.72
412.192	305.15
412.401	303.1
412.609	358.39
412.818	413.69
413.026	389.11
413.234	284.67
413.443	370.68
413.651	364.54
413.86	346.11
414.068	466.94
414.276	501.75
414.485	350.2
414.693	604.15
414.901	548.86
415.11	403.45
415.318	444.41
415.526	577.53
415.734	559.1
415.943	540.66
416.151	602.1
416.359	530.42
416.567	589.81
416.776	612.34
416.984	681.97
417.192	665.59
417.4	620.53
417.608	641.01
417.817	638.97
418.025	747.51
418.233	772.08
418.441	704.5
418.649	673.78
418.857	800.76
419.065	917.49
419.273	749.56
419.481	819.19
419.689	880.63
419.897	913.39
420.105	962.55
420.313	1122.29
420.521	1042.42
420.729	1163.25
420.937	1114.1
421.145	1171.44
421.353	1257.45
421.561	1337.32
421.769	1320.94
421.977	1351.66
422.185	1423.34
422.393	1423.34
422.601	1609.7
422.809	1505.26
423.017	1611.75
423.224	1548.26
423.432	1583.08
423.64	1624.04
423.848	1759.21
424.056	1751.01
424.263	1925.09
424.471	1888.23
424.679	1884.13
424.887	1910.75
425.094	2068.45
425.302	2056.16
425.51	2166.75
425.718	2179.04
425.925	2275.29
426.133	2400.22
426.341	2469.85
426.548	2533.34
426.756	2543.58
426.964	2660.31
427.171	2754.52
427.379	2834.39
427.586	2883.54
427.794	2897.88
428.001	3016.66
428.209	3026.9
428.417	3151.82
428.624	3309.52
428.832	3325.9
429.039	3407.82
429.247	3397.58
429.454	3667.91
429.662	3893.19
429.869	3594.19
430.076	3940.29
430.284	3733.45
430.491	3991.49
430.699	4218.82
430.906	4048.83
431.114	4147.14
431.321	4235.2
431.528	4544.44
431.736	4636.6
431.943	4947.89
432.15	4679.61
432.358	4747.19
432.565	5017.52
432.772	4859.83
432.979	5502.89
433.187	5234.61
433.394	5398.45
433.601	5705.64
433.808	5863.33
434.016	5742.5
434.223	5941.16
434.43	6287.26
434.637	6023.08
434.844	6573.98
435.052	6696.86
435.259	6651.8
435.466	6508.44
435.673	6578.08
435.88	7116.69
436.087	7462.8
436.294	7409.55
436.501	7296.91
436.708	7329.68
436.915	7659.4
437.122	7993.22
437.329	7985.03
437.537	8236.93
437.743	8531.84
437.95	8324.99
438.157	8652.67
438.364	9168.76
438.571	9009.01
438.778	9013.11
438.985	9817.96
439.192	9686.89
439.399	9754.48
439.606	9750.38
439.813	9963.37
440.02	10790.75
440.227	10596.19
440.433	10342.24
440.64	10936.15
440.847	10684.25
441.054	11005.78
441.261	11708.24
441.467	11329.36
441.674	11710.29
441.881	12140.36
442.088	12123.98
442.294	12031.82
442.501	12363.59
442.708	12650.3
442.914	12826.43
443.121	13760.3
443.328	13154.1
443.534	13967.15
443.741	13774.64
443.948	13485.87
444.154	14659.36
444.361	14296.87
444.568	14497.57
444.774	14542.63
444.981	14649.12
445.187	15093.53
445.394	15845.13
445.6	15318.81
445.807	16908.03
446.013	16105.23
446.22	16279.3
446.426	17129.21
446.633	17372.92
446.839	17747.7
447.046	17004.28
447.252	18013.93
447.459	18046.7
447.665	17901.29
447.871	18712.29
448.078	19326.68
448.284	18626.28
448.491	19076.83
448.697	19922.64
448.903	20055.76
449.11	20268.75
449.316	19664.6
449.522	20408.01
449.728	21057.21
449.935	20872.9
450.141	20993.73
450.347	21239.48
450.553	20709.06
450.76	20889.28
450.966	21931.7
451.172	21386.94
451.378	21862.07
451.584	21458.62
451.791	22021.81
451.997	21851.83
452.203	22286
452.409	22146.73
452.615	22066.86
452.821	21358.27
453.027	20778.69
453.233	22005.42
453.44	21262.01
453.646	21577.4
453.852	21769.91
454.058	21855.92
454.264	21024.45
454.47	21608.12
454.676	21221.05
454.882	21757.62
455.088	20000.46
455.294	20317.9
455.5	20453.06
455.705	20719.3
455.911	19904.21
456.117	19336.92
456.323	19271.39
456.529	17829.62
456.735	18956
456.941	18425.57
457.147	17909.49
457.352	17532.66
457.558	17213.18
457.764	17395.45
457.97	16854.78
458.176	16586.5
458.381	16656.13
458.587	15656.72
458.793	15838.99
458.999	14843.68
459.204	16097.03
459.41	15755.02
459.616	14552.87
459.821	14700.32
460.027	14397.22
460.233	14059.31
460.438	13336.37
460.644	13551.41
460.85	12748.61
461.055	12666.69
461.261	12785.47
461.466	11984.71
461.672	11450.19
461.878	12093.26
462.083	11355.99
462.289	11036.5
462.494	10932.06
462.7	10424.16
462.905	10235.75
463.111	10641.25
463.316	10334.05
463.522	10407.78
463.727	10450.78
463.932	10188.64
464.138	10471.26
464.343	10329.95
464.549	9795.43
464.754	10315.62
464.959	10051.43
465.165	10088.29
465.37	9709.42
465.575	9486.19
465.781	9834.35
465.986	9781.1
466.191	9482.1
466.397	9473.9
466.602	8703.87
466.807	9181.04
467.012	9297.78
467.218	9068.41
467.423	8945.53
467.628	8978.3
467.833	9299.83
468.038	8984.44
468.244	9015.16
468.449	9168.76
468.654	8714.11
468.859	8671.1
469.064	8658.81
469.269	8337.28
469.474	8521.6
469.679	8669.05
469.885	8380.29
470.09	8601.47
470.295	8394.62
470.5	8263.55
470.705	8193.92
470.91	8064.9
471.115	8048.52
471.32	8152.96
471.525	7974.79
471.73	8095.62
471.935	7845.77
472.139	7522.19
472.344	7479.18
472.549	7554.96
472.754	7495.57
472.959	7409.55
473.164	7221.14
473.369	7100.31
473.574	7462.8
473.778	7149.46
473.983	7110.55
474.188	7145.36
474.393	6844.31
474.598	6768.54
474.802	6815.64
475.007	6782.87
475.212	6784.92
475.417	6399.9
475.621	6444.96
475.826	6582.17
476.031	6371.23
476.235	6315.94
476.44	6453.15
476.645	6215.59
476.849	6231.97
477.054	6164.39
477.259	6029.22
477.463	6078.37
477.668	5924.77
477.872	6006.69
478.077	5844.9
478.282	5656.49
478.486	5906.34
478.691	5580.71
478.895	5484.46
479.1	5617.58
479.304	5762.98
479.509	5322.67
479.713	5453.74
479.918	5377.97
480.122	5253.04
480.326	5459.88
480.531	5302.19
480.735	5390.25
480.94	5298.1
481.144	5398.45
481.348	5128.11
481.553	5246.9
481.757	5044.15
481.961	5095.35
482.166	5371.82
482.37	5310.38
482.574	5248.94
482.778	5113.78
482.983	5164.98
483.187	5111.73
483.391	5093.3
483.595	5220.27
483.8	5095.35
484.004	5259.18
484.208	5169.07
484.412	5154.74
484.616	5087.15
484.821	5193.65
485.025	4933.56
485.229	5189.55
485.433	5074.87
485.637	4933.56
485.841	5005.24
486.045	5167.03
486.249	5169.07
486.453	5048.24
486.657	5017.52
486.861	5003.19
487.065	5005.24
487.269	4968.37
487.473	5015.48
487.677	5050.29
487.881	5322.67
488.085	5140.4
488.289	5367.73
488.493	4956.08
488.697	5179.31
488.901	5347.25
489.105	5089.2
489.309	5248.94
489.512	5095.35
489.716	5261.23
489.92	5218.22
490.124	5187.5
490.328	5388.21
490.531	5095.35
490.735	5261.23
490.939	5349.29
491.143	5281.71
491.346	5226.42
491.55	5250.99
491.754	5261.23
491.958	5291.95
492.161	5242.8
492.365	5506.99
492.569	5154.74
492.772	5296.05
492.976	5279.66
493.18	5447.6
493.383	5427.12
493.587	5535.66
493.79	5427.12
493.994	5447.6
494.197	5578.67
494.401	5832.61
494.605	5599.15
494.808	5705.64
495.012	5488.56
495.215	5844.9
495.419	5881.77
495.622	5586.86
495.825	5928.87
496.029	5883.81
496.232	5957.54
496.436	5914.53
496.639	6180.77
496.843	5924.77
497.046	6217.63
497.249	6307.74
497.453	6270.88
497.656	6430.62
497.859	6211.49
498.063	6551.45
498.266	6436.77
498.469	6434.72
498.673	6602.65
498.876	6723.48
499.079	6590.36
499.282	6805.4
499.485	7034.77
499.689	6997.91
499.892	7147.41
500.095	6977.43
500.298	7202.71
500.501	7141.27
500.705	7219.09
500.908	7391.12
501.111	7251.86
501.314	7452.56
501.517	7696.27
501.72	7583.63
501.923	7657.36
502.126	7753.61
502.329	8038.28
502.532	7878.54
502.735	8107.91
502.938	8173.44
503.141	8118.15
503.344	8331.14
503.547	8507.26
503.75	8439.68
503.953	8466.3
504.156	8664.96
504.359	8798.07
504.562	8757.11
504.765	8882.04
504.968	8992.63
505.17	9107.32
505.373	9162.61
505.576	9199.48
505.779	9488.24
505.982	9488.24
506.185	9510.77
506.387	9613.17
506.59	9901.93
506.793	9912.17
506.996	9748.33
507.198	10211.17
507.401	9858.92
507.604	10258.28
507.807	10358.63
508.009	10217.32
508.212	10426.21
508.415	10592.09
508.617	10485.6
508.82	10686.3
509.022	10776.41
509.225	10997.59
509.428	10966.87
509.63	11181.91
509.833	11192.15
510.035	11476.82
510.238	11558.74
510.44	11654.99
510.643	11929.42
510.845	11810.64
511.048	11949.9
511.25	11958.09
511.453	12027.72
511.655	12568.38
511.858	12439.36
512.06	12384.07
512.262	12764.99
512.465	12535.62
512.667	12826.43
512.87	12973.88
513.072	12836.67
513.274	13152.06
513.477	13156.15
513.679	13276.98
513.881	13319.99
514.084	13602.61
514.286	13541.17
514.488	13520.69
514.69	14022.44
514.893	14047.02
515.095	13891.37
515.297	14133.03
515.499	14241.57
515.701	14229.29
515.904	14311.21
516.106	14493.47
516.308	14673.7
516.51	14878.49
516.712	14841.63
516.914	15216.41
517.116	15152.92
517.318	15267.61
517.52	15410.96
517.722	15353.62
517.925	15519.51
518.127	15609.62
518.329	15742.74
518.531	15689.49
518.733	15974.16
518.935	15914.77
519.136	16064.27
519.338	16101.13
519.54	16426.76
519.742	16199.43
519.944	16541.44
520.146	16686.85
520.348	16434.95
520.55	16576.26
520.752	16750.34
520.954	17204.99
521.155	17114.87
521.357	17190.65
521.559	17047.29
521.761	17454.84
521.963	17426.17
522.164	17561.33
522.366	17712.88
522.568	17759.98
522.77	17762.03
522.971	17970.93
523.173	17889.01
523.375	18071.28
523.576	17942.25
523.778	18122.48
523.98	18448.1
524.181	18398.95
524.383	18177.77
524.584	18781.92
524.786	18550.5
524.988	18165.48
525.189	18994.91
525.391	18788.07
525.592	18839.26
525.794	18693.86
525.995	18820.83
526.197	18962.14
526.398	18906.85
526.6	19093.21
526.801	19179.23
527.003	19218.14
527.204	19381.98
527.406	19146.46
527.607	19390.17
527.808	19353.3
528.01	19023.58
528.211	19343.06
528.412	19476.18
528.614	19388.12
528.815	19361.5
529.016	19867.34
529.218	19611.35
529.419	19341.02
529.62	19545.81
529.822	19199.71
530.023	19693.27
530.224	19594.96
530.425	19699.41
530.626	19429.08
530.828	19578.58
531.029	19793.62
531.23	19576.53
531.431	19519.19
531.632	20025.04
531.833	19656.4
532.035	19531.48
532.236	19885.78
532.437	19742.42
532.638	19683.03
532.839	19826.39
533.04	19750.61
533.241	19660.5
533.442	19906.26
533.643	19746.51
533.844	19664.6
534.045	19556.05
534.246	19582.68
534.447	19625.68
534.648	19642.07
534.849	19875.54
535.05	19703.51
535.251	19703.51
535.451	19631.83
535.652	19697.36
535.853	19691.22
536.054	19533.53
536.255	19666.64
536.456	19328.73
536.657	19625.68
536.857	19576.53
537.058	19531.48
537.259	19635.92
537.46	19513.05
537.66	19449.56
537.861	19652.31
538.062	19412.7
538.263	19414.74
538.463	19529.43
538.664	19474.13
538.865	19674.84
539.065	19549.91
539.266	19463.89
539.466	19764.95
539.667	19394.26
539.868	19629.78
540.068	19506.9
540.269	19554.01
540.469	19637.97
540.67	19631.83
540.87	19709.65
541.071	19496.66
541.271	19525.33
541.472	19398.36
541.672	19580.63
541.873	19064.54
542.073	19308.25
542.274	19801.81
542.474	19439.32
542.675	19535.57
542.875	19478.23
543.075	19441.37
543.276	19209.95
543.476	19371.74
543.676	19195.61
543.877	19318.49
544.077	19447.51
544.277	19283.67
544.478	18927.33
544.678	19396.31
544.878	19279.58
545.078	19324.63
545.279	19044.06
545.479	19082.97
545.679	19175.13
545.879	19125.98
546.079	19177.18
546.28	19168.99
546.48	19173.08
546.68	19326.68
546.88	19168.99
547.08	19160.8
547.28	19009.25
547.48	19277.53
547.68	19173.08
547.88	18984.67
548.081	19070.68
548.281	19148.51
548.481	18841.31
548.681	19060.45
548.881	19240.67
549.081	19160.8
549.28	19082.97
549.48	19150.56
549.68	19021.53
549.88	19162.84
550.08	18974.43
550.28	18999.01
550.48	18863.84
550.68	19224.28
550.88	18806.5
551.08	19037.92
551.279	19037.92
551.479	19050.21
551.679	18904.8
551.879	18978.53
552.079	19140.32
552.278	18783.97
552.478	18884.32
552.678	18990.81
552.878	18972.38
553.077	18912.99
553.277	18646.76
553.477	19164.89
553.676	18962.14
553.876	18863.84
554.076	18900.7
554.275	18808.54
554.475	18515.69
554.674	19058.4
554.874	19017.44
555.074	18613.99
555.273	19076.83
555.473	19021.53
555.672	18669.28
555.872	18568.93
556.071	18974.43
556.271	18986.72
556.47	18765.54
556.67	18695.91
556.869	18796.26
557.068	18818.78
557.268	18806.5
557.467	18853.6
557.667	18857.7
557.866	18845.41
558.065	18683.62
558.265	18704.1
558.464	18626.28
558.663	18890.46
558.863	18431.72
559.062	19101.4
559.261	18593.51
559.461	18587.36
559.66	18376.42
559.859	18542.31
560.058	18575.08
560.258	18591.46
560.457	18503.4
560.656	18771.68
560.855	18351.85
561.054	18544.36
561.253	18448.1
561.453	18452.2
561.652	18495.21
561.851	18761.44
562.05	18210.54
562.249	18437.86
562.448	18550.5
562.647	18274.03
562.846	18749.15
563.045	18155.24
563.244	18362.09
563.443	18818.78
563.642	18026.22
563.841	18292.46
564.04	18239.21
564.239	18206.44
564.438	18095.85
564.637	18380.52
564.836	18362.09
565.035	18097.9
565.234	18300.65
565.432	18032.36
565.631	18087.66
565.83	18142.96
566.029	18198.25
566.228	18282.22
566.427	18173.67
566.625	17977.07
566.824	18063.08
567.023	18007.79
567.222	18036.46
567.42	18140.91
567.619	18302.7
567.818	18118.38
568.016	18177.77
568.215	18257.64
568.414	17936.11
568.612	18093.8
568.811	18065.13
569.01	18061.04
569.208	17889.01
569.407	17907.44
569.605	17622.77
569.804	17938.16
570.002	17702.64
570.201	17901.29
570.4	17692.4
570.598	17868.53
570.797	18054.89
570.995	17682.16
571.193	17661.68
571.392	17944.3
571.59	17567.48
571.789	17495.8
571.987	17759.98
572.186	17661.68
572.384	17788.66
572.582	17940.21
572.781	17792.75
572.979	17268.47
573.177	17610.48
573.376	17825.52
573.574	17444.6
573.772	17598.2
573.971	17336.06
574.169	17403.64
574.367	17393.4
574.565	17538.8
574.763	17628.91
574.962	17383.16
575.16	17405.69
575.358	17585.91
575.556	17274.62
575.754	17673.97
575.952	17366.77
576.151	17215.23
576.349	17006.33
576.547	17254.14
576.745	17364.73
576.943	17481.46
577.141	17192.7
577.339	17043.2
577.537	17004.28
577.735	16942.85
577.933	16754.43
578.131	17178.36
578.329	17080.06
578.527	16891.65
578.725	16998.14
578.923	17080.06
579.121	16834.3
579.319	16801.54
579.516	17129.21
579.714	16975.61
579.912	16834.3
580.11	17075.96
580.308	16881.41
580.506	16768.77
580.704	16453.38
580.901	16652.03
581.099	17024.76
581.297	16652.03
581.495	16791.3
581.692	16596.74
581.89	16572.16
582.088	16817.92
582.285	16631.55
582.483	16418.57
582.681	16699.14
582.878	16703.23
583.076	16391.94
583.274	16834.3
583.471	16637.7
583.669	16457.48
583.866	16494.34
584.064	16312.07
584.262	16207.62
584.459	16576.26
584.657	16353.03
584.854	16422.66
585.052	16078.6
585.249	16135.95
585.447	16295.69
585.644	16183.05
585.841	16375.56
586.039	16004.88
586.236	16201.48
586.434	15978.25
586.631	16092.94
586.828	16181
587.026	16140.04
587.223	15896.33
587.42	16025.36
587.618	16236.3
587.815	16295.69
588.012	15943.44
588.21	15904.53
588.407	16037.64
588.604	15722.26
588.801	15808.27
588.999	15695.63
589.196	15904.53
589.393	15888.14
589.59	15871.76
589.787	15920.91
589.984	15859.47
590.182	15628.05
590.379	15769.36
590.576	15640.34
590.773	15705.87
590.97	15451.92
591.167	15638.29
591.364	15562.51
591.561	15568.66
591.758	15406.87
591.955	15603.47
592.152	15683.34
592.349	15550.23
592.546	15691.54
592.743	15605.52
592.94	15472.4
593.137	15466.26
593.334	15419.16
593.531	15421.2
593.727	15501.08
593.924	15329.05
594.121	15249.18
594.318	15335.19
594.515	15470.36
594.712	15550.23
594.908	15490.84
595.105	15482.64
595.302	15087.39
595.499	15095.58
595.696	15482.64
595.892	15210.26
596.089	15499.03
596.286	15152.92
596.482	15197.98
596.679	15283.99
596.876	15283.99
597.072	15392.53
597.269	15329.05
597.466	14976.8
597.662	15154.97
597.859	15339.29
598.055	15202.07
598.252	15015.71
598.448	15212.31
598.645	15281.94
598.841	15191.83
599.038	15286.04
599.234	15273.75
599.431	15226.65
599.627	14761.76
599.824	15427.35
600.02	15050.52
600.217	15294.23
600.413	15058.71
600.609	15134.49
600.806	15222.55
601.002	15437.59
601.198	15255.32
601.395	15089.43
601.591	15054.62
601.787	15210.26
601.984	15054.62
602.18	15181.59
602.376	15142.68
602.572	15118.11
602.769	15142.68
602.965	14956.32
603.161	15054.62
603.357	15007.52
603.553	15179.54
603.75	14847.77
603.946	15032.09
604.142	15357.72
604.338	15154.97
604.534	15167.26
604.73	15071
604.926	15025.95
605.122	15177.5
605.318	15103.77
605.514	14954.27
605.71	15019.8
605.906	15208.22
606.102	15269.66
606.298	15220.5
606.494	15343.38
606.69	15214.36
606.886	15144.73
607.082	14968.6
607.278	15243.03
607.474	14833.44
607.67	15281.94
607.866	15105.82
608.062	15376.15
608.257	15214.36
608.453	15171.35
608.649	15343.38
608.845	15410.96
609.041	15482.64
609.236	15367.96
609.432	15509.27
609.628	15419.16
609.824	15474.45
610.019	15410.96
610.215	15453.97
610.411	15496.98
610.606	15378.2
610.802	15582.99
610.998	15564.56
611.193	15652.63
611.389	15494.93
611.584	15423.25
611.78	15525.65
611.976	15456.02
612.171	15714.06
612.367	15765.26
612.562	15802.13
612.758	15470.36
612.953	15507.22
613.149	15892.24
613.344	15611.67
613.539	15888.14
613.735	15980.3
613.93	15777.55
614.126	15666.96
614.321	16039.69
614.517	15955.72
614.712	16131.85
614.907	15984.4
615.103	15951.63
615.298	15877.9
615.493	16174.86
615.688	16090.89
615.884	16162.57
616.079	15974.16
616.274	16307.98
616.47	15920.91
616.665	16084.75
616.86	16097.03
617.055	16084.75
617.25	15978.25
617.445	16076.55
617.641	15632.15
617.836	16258.82
618.031	16025.36
618.226	16199.43
618.421	15834.89
618.616	16248.58
618.811	15996.68
619.006	16219.91
619.201	15916.81
619.396	15912.72
619.591	15836.94
619.786	16129.8
619.981	15775.5
620.176	15814.41
620.371	15957.77
620.566	15818.51
620.761	15859.47
620.956	15933.2
621.151	15757.07
621.346	16047.88
621.541	15666.96
621.735	16080.65
621.93	15671.06
622.125	15736.59
622.32	15421.2
622.515	15562.51
622.709	15423.25
622.904	15781.65
623.099	15525.65
623.294	15468.31
623.488	15324.95
623.683	15529.75
623.878	15290.13
624.072	15370.01
624.267	15200.02
624.462	15095.58
624.656	14958.36
624.851	15238.94
625.046	15019.8
625.24	14825.25
625.435	14860.06
625.629	15050.52
625.824	15032.09
626.018	14919.45
626.213	14403.36
626.407	14835.49
626.602	14466.85
626.796	14728.99
626.991	14581.54
627.185	14544.67
627.38	14423.84
627.574	14419.75
627.768	14487.33
627.963	14214.95
628.157	14081.83
628.352	14327.59
628.546	14133.03
628.74	14184.23
628.935	14270.25
629.129	14063.4
629.323	14108.46
629.517	13774.64
629.712	13911.85
629.906	13918
630.1	13647.66
630.294	13709.1
630.489	13553.46
630.683	13786.93
630.877	13494.07
631.071	13635.38
631.265	13565.74
631.459	13334.32
631.653	13500.21
631.848	13387.57
632.042	13287.22
632.236	13532.98
632.43	13233.97
632.624	13205.3
632.818	13145.91
633.012	12932.92
633.206	12994.36
633.4	13143.86
633.594	12635.97
633.788	12937.02
633.982	12855.1
634.176	12764.99
634.369	12861.24
634.563	12701.5
634.757	12539.71
634.951	12775.23
635.145	12689.21
635.339	12613.44
635.533	12535.62
635.726	12721.98
635.92	12468.03
636.114	12629.82
636.308	12277.57
636.501	12205.89
636.695	12234.57
636.889	11892.55
637.083	11808.59
637.276	12058.44
637.47	11886.41
637.664	11990.86
637.857	11894.6
638.051	11902.79
638.244	11589.46
638.438	11573.07
638.632	11814.73
638.825	11482.96
639.019	11444.05
639.212	11431.76
639.406	11581.26
639.599	11573.07
639.793	11417.43
639.986	11253.59
640.18	11280.21
640.373	11122.52
640.567	11018.07
640.76	11056.98
640.954	10899.29
641.147	10911.58
641.34	10823.51
641.534	10794.84
641.727	10864.47
641.92	10725.21
642.114	10747.74
642.307	10585.95
642.5	10422.11
642.694	10434.4
642.887	10305.38
643.08	10536.8
643.273	10424.16
643.467	10217.32
643.66	10207.08
643.853	10090.34
644.046	9949.03
644.239	10008.42
644.432	9910.12
644.626	9946.98
644.819	9723.76
645.012	9854.83
645.205	9903.98
645.398	9754.48
645.591	9531.25
645.784	9529.2
645.977	9406.32
646.17	9613.17
646.363	9451.38
646.556	9240.43
646.749	9244.53
646.942	9080.69
647.135	9072.5
647.328	9183.09
647.521	9246.58
647.714	8914.81
647.907	9164.66
648.099	8871.8
648.292	8728.44
648.485	8879.99
648.678	8734.59
648.871	8603.52
649.064	8603.52
649.256	8679.29
649.449	8523.65
649.642	8456.06
649.835	8441.73
650.027	8286.08
650.22	8404.86
650.413	8298.37
650.605	8185.73
650.798	8126.34
650.991	7878.54
651.183	8136.58
651.376	8167.3
651.568	8069
651.761	8167.3
651.954	7821.19
652.146	7720.84
652.339	7827.34
652.531	7653.26
652.724	7751.56
652.916	7587.72
653.109	7524.24
653.301	7659.4
653.494	7608.2
653.686	7448.46
653.879	7559.05
654.071	7405.45
654.263	7352.21
654.456	7401.36
654.648	7446.41
654.84	7194.51
655.033	7331.73
655.225	7065.49
655.417	7110.55
655.61	7282.58
655.802	7186.32
655.994	7004.05
656.186	6946.71
656.379	6891.41
656.571	6918.04
656.763	6827.93
656.955	6875.03
657.148	6770.58
657.34	6877.08
657.532	6668.19
657.724	6541.21
657.916	6647.71
658.108	6606.75
658.3	6510.49
658.492	6520.73
658.684	6473.63
658.876	6299.55
659.068	6479.77
659.26	6307.74
659.452	6397.85
659.644	6283.17
659.836	6137.76
660.028	6102.95
660.22	6176.67
660.412	6125.47
660.604	5828.52
660.796	5937.06
660.988	5773.22
661.18	5924.77
661.372	5873.57
661.563	5816.23
661.755	5687.21
661.947	5771.18
662.139	5547.95
662.331	5533.61
662.522	5509.04
662.714	5453.74
662.906	5494.7
663.097	5287.86
663.289	5367.73
663.481	5496.75
663.673	5470.12
663.864	5316.53
664.056	5404.59
664.247	5281.71
664.439	5197.74
664.631	5269.42
664.822	5199.79
665.014	5294
665.205	5117.87
665.397	4868.02
665.588	5060.53
665.78	4929.46
665.971	4980.66
666.163	5050.29
666.354	4863.93
666.546	4747.19
666.737	4845.49
666.929	4888.5
667.12	4810.68
667.311	4859.83
667.503	4753.34
667.694	4706.23
667.885	4616.12
668.077	4730.81
668.268	4556.73
668.459	4628.41
668.651	4659.13
668.842	4521.91
669.033	4458.43
669.224	4347.84
669.416	4706.23
669.607	4335.55
669.798	4509.63
669.989	4521.91
670.18	4411.32
670.371	4417.47
670.563	4382.65
670.754	4313.02
670.945	4425.66
671.136	4376.51
671.327	4405.18
671.518	4302.78
671.709	4351.93
671.9	4313.02
672.091	4339.65
672.282	4233.15
672.473	4196.29
672.664	4147.14
672.855	4173.76
673.046	4186.05
673.237	4196.29
673.428	4124.61
673.619	4102.08
673.809	4112.32
674	4106.18
674.191	4118.47
674.382	3960.77
674.573	3985.35
674.764	4022.21
674.954	4057.03
675.145	3860.42
675.336	3981.25
675.527	4079.55
675.717	3907.52
675.908	3772.36
676.099	3917.76
676.289	3934.15
676.48	3938.24
676.671	3809.22
676.861	3803.08
677.052	3854.28
677.243	3915.72
677.433	3897.28
677.624	3917.76
677.814	3805.13
678.005	3874.76
678.195	3891.14
678.386	3760.07
678.576	3770.31
678.767	3723.21
678.957	3887.04
679.148	3772.36
679.338	3821.51
679.529	3801.03
679.719	3588.04
679.909	3809.22
680.1	3622.86
680.29	3909.57
680.481	3569.61
680.671	3669.96
680.861	3770.31
681.052	3770.31
681.242	3704.78
681.432	3737.54
681.622	3803.08
681.813	3758.02
682.003	3678.15
682.193	3743.69
682.383	3624.9
682.573	3665.86
682.764	3704.78
682.954	3567.56
683.144	3704.78
683.334	3643.34
683.524	3581.9
683.714	3739.59
683.904	3735.49
684.094	3674.06
684.284	3596.23
684.474	3653.58
684.664	3645.38
684.854	3690.44
685.044	3588.04
685.234	3612.62
685.424	3600.33
685.614	3583.95
685.804	3626.95
685.994	3594.19
686.184	3583.95
686.374	3575.75
686.564	3569.61
686.753	3645.38
686.943	3545.03
687.133	3684.3
687.323	3551.18
687.513	3510.22
687.702	3592.14
687.892	3483.59
688.082	3536.84
688.272	3575.75
688.461	3612.62
688.651	3528.65
688.841	3645.38
689.03	3590.09
689.22	3551.18
689.41	3585.99
689.599	3577.8
689.789	3633.1
689.979	3547.08
690.168	3581.9
690.358	3583.95
690.547	3473.35
690.737	3506.12
690.926	3522.51
691.116	3465.16
691.305	3508.17
691.495	3590.09
691.684	3493.83
691.874	3399.63
692.063	3428.3
692.252	3553.23
692.442	3387.34
692.631	3391.44
692.82	3459.02
693.01	3397.58
693.199	3434.44
693.388	3463.12
693.578	3432.4
693.767	3633.1
693.956	3440.59
694.146	3448.78
694.335	3604.42
694.524	3420.11
694.713	3485.64
694.902	3442.64
695.092	3495.88
695.281	3526.6
695.47	3418.06
695.659	3397.58
695.848	3508.17
696.037	3424.2
696.226	3401.68
696.415	3426.25
696.604	3585.99
696.793	3547.08
696.982	3487.69
697.171	3506.12
697.36	3522.51
697.549	3561.42
697.738	3411.92
697.927	3450.83
698.116	3577.8
698.305	3741.64
698.494	3563.47
698.683	3497.93
698.872	3626.95
699.061	3577.8
699.25	3518.41
699.438	3534.79
699.627	3454.92
699.816	3706.82
700.005	3436.49
700.193	3604.42
700.382	3626.95
700.571	3549.13
700.76	3717.06
700.948	3657.67
701.137	3690.44
701.326	3618.76
701.514	3512.27
701.703	3598.28
701.892	3643.34
702.08	3659.72
702.269	3518.41
702.457	3581.9
702.646	3647.43
702.834	3528.65
703.023	3669.96
703.212	3538.89
703.4	3727.3
703.589	3563.47
703.777	3672.01
703.965	3596.23
704.154	3637.19
704.342	3659.72
704.531	3452.88
704.719	3465.16
704.907	3715.02
705.096	3573.71
705.284	3596.23
705.472	3581.9
705.661	3622.86
705.849	3663.82
706.037	3475.4
706.226	3555.27
706.414	3633.1
706.602	3585.99
706.79	3579.85
706.979	3575.75
707.167	3557.32
707.355	3581.9
707.543	3526.6
707.731	3555.27
707.919	3520.46
708.107	3489.74
708.296	3592.14
708.484	3516.36
708.672	3665.86
708.86	3588.04
709.048	3637.19
709.236	3461.07
709.424	3657.67
709.612	3604.42
709.8	3493.83
709.988	3502.03
710.176	3655.62
710.364	3653.58
710.551	3530.7
710.739	3608.52
710.927	3538.89
711.115	3520.46
711.303	3530.7
711.491	3467.21
711.679	3465.16
711.866	3682.25
712.054	3534.79
712.242	3547.08
712.43	3530.7
712.617	3508.17
712.805	3571.66
712.993	3481.55
713.181	3512.27
713.368	3502.03
713.556	3512.27
713.744	3430.35
713.931	3647.43
714.119	3506.12
714.306	3594.19
714.494	3581.9
714.682	3522.51
714.869	3434.44
715.057	3444.68
715.244	3497.93
715.432	3616.71
715.619	3540.94
715.807	3483.59
715.994	3315.66
716.182	3446.73
716.369	3538.89
716.556	3385.29
716.744	3336.14
716.931	3332.05
717.119	3489.74
717.306	3528.65
717.493	3278.8
717.681	3448.78
717.868	3395.53
718.055	3446.73
718.242	3403.72
718.43	3456.97
718.617	3379.15
718.804	3440.59
718.991	3381.2
719.179	3350.48
719.366	3465.16
719.553	3391.44
719.74	3319.76
719.927	3397.58
720.114	3282.89
720.301	3409.87
720.488	3104.72
720.676	3358.67
720.863	3522.51
721.05	3387.34
721.237	3336.14
721.424	3303.37
721.611	3352.52
721.798	3362.76
721.985	3307.47
722.172	3184.59
722.358	3248.08
722.545	3397.58
722.732	3373
722.919	3364.81
723.106	3252.17
723.293	3282.89
723.48	3272.65
723.667	3162.06
723.853	3411.92
724.04	3254.22
724.227	3323.85
724.414	3180.5
724.6	3164.11
724.787	3346.38
724.974	3334.09
725.161	3233.74
725.347	3100.62
725.534	3180.5
725.72	3133.39
725.907	3078.1
726.094	3215.31
726.28	3149.78
726.467	3192.78
726.653	3309.52
726.84	3332.05
727.027	3117.01
727.213	3248.08
727.4	3137.49
727.586	3172.3
727.773	3164.11
727.959	3180.5
728.145	3151.82
728.332	3057.62
728.518	3088.34
728.705	3125.2
728.891	3121.1
729.077	3157.97
729.264	3055.57
729.45	3090.38
729.636	3198.93
729.823	3121.1
730.009	3086.29
730.195	3090.38
730.382	3119.06
730.568	3020.75
730.754	3112.91
730.94	3055.57
731.126	3147.73
731.313	2996.18
731.499	2881.49
731.685	2987.99
731.871	3080.14
732.057	2922.45
732.243	3053.52
732.429	3069.91
732.615	2969.55
732.801	3043.28
732.987	2969.55
733.173	2854.87
733.359	3088.34
733.545	2959.31
733.731	2969.55
733.917	2922.45
734.103	2955.22
734.289	2949.07
734.475	2904.02
734.661	3051.47
734.847	2891.73
735.033	2838.48
735.219	2949.07
735.404	2899.92
735.59	2863.06
735.776	2891.73
735.962	2883.54
736.148	2828.24
736.333	2906.07
736.519	2781.14
736.705	2764.76
736.89	2760.66
737.076	2877.4
737.262	2906.07
737.447	2766.81
737.633	2807.77
737.819	2719.7
738.004	2731.99
738.19	2717.65
738.375	2813.91
738.561	2826.2
738.747	2686.93
738.932	2713.56
739.118	2791.38
739.303	2744.28
739.489	2711.51
739.674	2660.31
739.859	2686.93
740.045	2615.26
740.23	2654.17
740.416	2580.44
740.601	2678.74
740.786	2584.54
740.972	2508.76
741.157	2445.27
741.342	2539.48
741.528	2533.34
741.713	2607.06
741.898	2596.82
742.084	2516.95
742.269	2605.02
742.454	2613.21
742.639	2609.11
742.824	2633.69
743.01	2549.72
743.195	2648.02
743.38	2543.58
743.565	2469.85
743.75	2484.19
743.935	2336.73
744.12	2437.08
744.305	2248.67
744.49	2430.94
744.675	2408.41
744.86	2314.2
745.045	2424.8
745.23	2342.88
745.415	2332.64
745.6	2289.63
745.785	2256.86
745.97	2310.11
746.155	2246.62
746.34	2287.58
746.525	2293.72
746.71	2291.68
746.895	2392.03
747.079	2136.03
747.264	2252.77
747.449	2258.91
747.634	2133.98
747.819	2193.37
748.003	2189.28
748.188	2064.35
748.373	2207.71
748.557	2070.5
748.742	2168.8
748.927	2146.27
749.111	2144.22
749.296	2103.26
749.481	2150.37
749.665	2086.88
749.85	2013.15
750.034	2103.26
750.219	2072.54
750.404	1955.81
750.588	1904.61
750.773	2002.91
750.957	1961.95
751.141	1900.51
751.326	1927.14
751.51	1914.85
751.695	1947.62
751.879	1902.56
752.064	1898.47
752.248	1896.42
752.432	2013.15
752.617	1912.8
752.801	1882.08
752.985	1781.73
753.17	1902.56
753.354	1773.54
753.538	1851.36
753.722	1748.97
753.907	1638.37
754.091	1732.58
754.275	1638.37
754.459	1701.86
754.643	1773.54
754.828	1724.39
755.012	1742.82
755.196	1611.75
755.38	1669.09
755.564	1648.61
755.748	1685.48
755.932	1605.61
756.116	1650.66
756.3	1710.05
756.484	1566.7
756.668	1724.39
756.852	1566.7
757.036	1505.26
757.22	1517.54
757.404	1560.55
757.588	1538.02
757.772	1581.03
757.956	1394.67
758.14	1490.92
758.323	1497.07
758.507	1574.89
758.691	1476.59
758.875	1503.21
759.059	1486.83
759.242	1474.54
759.426	1437.67
759.61	1411.05
759.794	1370.09
759.977	1437.67
760.161	1460.2
760.345	1406.95
760.528	1419.24
760.712	1333.23
760.895	1322.99
761.079	1349.61
761.263	1366
761.446	1335.28
761.63	1298.41
761.813	1445.87
761.997	1345.52
762.18	1325.04
762.364	1370.09
762.547	1298.41
762.731	1368.04
762.914	1255.4
763.098	1148.91
763.281	1245.16
763.464	1214.45
763.648	1271.79
763.831	1198.06
764.015	1271.79
764.198	1261.55
764.381	1282.03
764.564	1198.06
764.748	1296.36
764.931	1343.47
765.114	1202.16
765.297	1183.73
765.481	1122.29
765.664	1124.33
765.847	1249.26
766.03	1325.04
766.213	1171.44
766.397	1222.64
766.58	1079.28
766.763	1157.1
766.946	1167.34
767.129	1181.68
767.312	1146.86
767.495	1136.62
767.678	1114.1
767.861	1116.14
768.044	1128.43
768.227	1079.28
768.41	1212.4
768.593	1165.29
768.776	1150.96
768.959	1056.75
769.142	1136.62
769.324	1103.86
769.507	1153.01
769.69	1081.33
769.873	1073.14
770.056	1206.25
770.239	1193.97
770.421	1165.29
770.604	1142.77
770.787	1007.6
770.97	1183.73
771.152	1042.42
771.335	1087.47
771.518	1038.32
771.7	1107.95
771.883	1056.75
772.066	1091.57
772.248	1077.23
772.431	1120.24
772.613	1081.33
772.796	1023.98
772.978	993.26
773.161	1013.74
773.343	1040.37
773.526	1005.55
773.708	964.59
773.891	935.92
774.073	991.22
774.256	1050.61
774.438	1013.74
774.621	911.35
774.803	1034.22
774.985	929.78
775.168	909.3
775.35	1017.84
775.532	1011.7
775.715	917.49
775.897	823.28
776.079	880.63
776.261	880.63
776.444	882.67
776.626	972.79
776.808	821.24
776.99	884.72
777.173	870.39
777.355	878.58
777.537	892.91
777.719	878.58
777.901	804.85
778.083	782.32
778.265	829.43
778.447	917.49
778.629	681.97
778.811	843.76
778.993	858.1
779.175	782.32
779.357	813.04
779.539	663.54
779.721	776.18
779.903	854
780.085	745.46
780.267	784.37
780.449	714.74
780.631	688.12
780.812	671.73
780.994	722.93
781.176	757.75
781.358	780.28
781.54	780.28
781.721	841.72
781.903	700.41
782.085	708.6
782.267	722.93
782.448	655.35
782.63	649.21
782.812	671.73
782.993	684.02
783.175	729.08
783.357	690.17
783.538	688.12
783.72	624.63
783.901	645.11
784.083	671.73
784.264	663.54
784.446	616.44
784.627	612.34
784.809	585.72
784.99	653.3
785.172	604.15
785.353	659.45
785.535	653.3
785.716	575.48
785.897	514.04
786.079	579.58
786.26	581.62
786.441	636.92
786.623	542.71
786.804	577.53
786.985	514.04
787.167	598.01
787.348	483.32
787.529	534.52
787.71	636.92
787.891	518.14
788.073	573.43
788.254	417.79
788.435	692.21
788.616	489.46
788.797	495.61
788.978	538.62
789.159	540.66
789.34	520.18
789.522	495.61
789.703	491.51
789.884	466.94
790.065	483.32
790.246	585.72
790.427	452.6
790.607	577.53
790.788	458.74
790.969	456.7
791.15	419.83
791.331	419.83
791.512	391.16
791.693	481.27
791.874	393.21
792.054	487.42
792.235	579.58
792.416	399.35
792.597	372.73
792.778	417.79
792.958	473.08
793.139	417.79
793.32	454.65
793.5	401.4
793.681	520.18
793.862	358.39
794.042	376.83
794.223	417.79
794.404	366.59
794.584	366.59
794.765	329.72
794.945	346.11
795.126	440.31
795.306	413.69
795.487	323.58
795.667	385.02
795.848	419.83
796.028	366.59
796.209	403.45
796.389	434.17
796.57	444.41
796.75	307.2
796.93	421.88
797.111	346.11
797.291	456.7
797.471	387.07
797.652	321.53
797.832	282.62
798.012	397.31
798.192	362.49
798.373	217.08
798.553	272.38
798.733	331.77
798.913	331.77
799.093	227.32
799.274	327.67
799.454	368.63
799.634	395.26
799.814	299
799.994	288.76
800.174	354.3
800.354	352.25
800.534	301.05
800.714	350.2
800.894	280.57
801.074	307.2
801.254	317.44
801.434	421.88
801.614	311.29
801.794	231.42
801.974	1341.42
802.154	229.37
802.334	335.87
802.514	276.48
802.693	286.72
802.873	305.15
803.053	378.87
803.233	339.96
803.413	294.91
803.592	309.24
803.772	280.57
803.952	272.38
804.131	114.69
804.311	315.39
804.491	301.05
804.67	256
804.85	253.95
805.03	256
805.209	323.58
805.389	256
805.568	221.18
805.748	180.22
805.928	212.99
806.107	215.04
806.287	268.28
806.466	262.14
806.646	233.47
806.825	294.91
807.004	206.84
807.184	251.9
807.363	169.98
807.543	202.75
807.722	286.72
807.901	290.81
808.081	239.61
808.26	167.93
808.439	231.42
808.619	241.66
808.798	270.33
808.977	239.61
809.156	276.48
809.336	206.84
809.515	251.9
809.694	163.84
809.873	274.43
810.052	251.9
810.231	276.48
810.411	155.65
810.59	227.32
810.769	159.74
810.948	188.41
811.127	145.41
811.306	141.31
811.485	182.27
811.664	296.96
811.843	157.69
812.022	165.89
812.201	227.32
812.38	215.04
812.559	176.13
812.737	243.71
812.916	210.94
813.095	135.17
813.274	202.75
813.453	116.73
813.632	184.32
813.811	258.04
813.989	114.69
814.168	157.69
814.347	147.45
814.526	174.08
814.704	268.28
814.883	243.71
815.062	167.93
815.24	272.38
815.419	53.25
815.598	182.27
815.776	174.08
815.955	167.93
816.133	79.87
816.312	186.37
816.49	174.08
816.669	143.36
816.847	110.59
817.026	151.55
817.204	180.22
817.383	137.21
817.561	96.25
817.74	167.93
817.918	155.65
818.097	90.11
818.275	77.82
818.453	223.23
818.632	192.51
818.81	163.84
818.988	155.65
819.167	120.83
819.345	204.8
819.523	53.25
819.701	124.93
819.879	206.84
820.058	145.41
820.236	176.13
820.414	157.69
820.592	165.89
820.77	176.13
820.948	174.08
821.127	163.84
821.305	180.22
821.483	90.11
821.661	233.47
821.839	96.25
822.017	100.35
822.195	139.26
822.373	274.43
822.551	114.69
822.729	260.09
822.907	126.97
823.085	167.93
823.262	182.27
823.44	49.15
823.618	126.97
823.796	114.69
823.974	92.16
824.152	141.31
824.329	110.59
824.507	151.55
824.685	176.13
824.863	182.27
825.04	223.23
825.218	108.54
825.396	53.25
825.574	155.65
825.751	141.31
825.929	192.51
826.107	47.1
826.284	137.21
826.462	81.92
826.639	108.54
826.817	90.11
826.994	108.54
827.172	94.21
827.349	90.11
827.527	182.27
827.704	110.59
827.882	153.6
828.059	94.21
828.237	69.63
828.414	167.93
828.591	55.3
828.769	200.7
828.946	79.87
829.124	94.21
829.301	133.12
829.478	63.49
829.655	139.26
829.833	16.38
830.01	34.82
830.187	12.29
830.364	122.88
830.542	67.58
830.719	151.55
830.896	182.27
831.073	106.49
831.25	161.79
831.427	100.35
831.604	57.34
831.782	129.02
831.959	83.97
832.136	2.05
832.313	131.07
832.49	24.58
832.667	65.53
832.844	2.05
833.021	133.12
833.198	2.05
833.374	120.83
833.551	10.24
833.728	86.01
833.905	129.02
834.082	20.48
834.259	120.83
834.436	86.01
834.612	77.82
834.789	139.26
834.966	116.73
835.143	98.3
835.319	69.63
835.496	94.21
835.673	98.3
835.85	174.08
836.026	143.36
836.203	131.07
836.38	67.58
836.556	-2.05
836.733	40.96
836.909	163.84
837.086	96.25
837.262	92.16
837.439	69.63
837.616	-10.24
837.792	47.1
837.968	157.69
838.145	-16.38
838.321	40.96
838.498	0
838.674	135.17
838.851	88.06
839.027	16.38
839.203	86.01
839.38	196.6
839.556	36.86
839.732	106.49
839.909	81.92
840.085	135.17
840.261	67.58
840.437	83.97
840.614	24.58
840.79	94.21
840.966	120.83
841.142	53.25
841.318	26.62
841.494	129.02
841.671	69.63
841.847	110.59
842.023	98.3
842.199	118.78
842.375	49.15
842.551	59.39
842.727	-55.3
842.903	92.16
843.079	32.77
843.255	129.02
843.431	49.15
843.607	10.24
843.783	-36.86
843.959	59.39
844.134	-8.19
844.31	102.4
844.486	24.58
844.662	83.97
844.838	67.58
845.013	108.54
845.189	83.97
845.365	73.73
845.541	81.92
845.716	63.49
845.892	81.92
846.068	30.72
846.244	110.59
846.419	53.25
846.595	34.82
846.77	8.19
846.946	98.3
847.122	75.77
847.297	43.01
847.473	47.1
847.648	4.1
847.824	47.1
847.999	-69.63
848.175	71.68
848.35	16.38
848.526	65.53
848.701	6.14
848.876	61.44
849.052	32.77
849.227	32.77
849.403	73.73
849.578	30.72
849.753	120.83
849.929	-10.24
850.104	-16.38
850.279	79.87
850.454	0
850.63	106.49
850.805	106.49
850.98	96.25
851.155	57.34
851.33	83.97
851.505	-32.77
851.681	51.2
851.856	26.62
852.031	67.58
852.206	26.62
852.381	-22.53
852.556	28.67
852.731	57.34
852.906	83.97
853.081	92.16
853.256	108.54
853.431	-4.1
853.606	-4.1
853.781	-12.29
853.956	-40.96
854.131	34.82
854.305	4.1
854.48	57.34
854.655	53.25
854.83	10.24
855.005	14.34
855.18	47.1
855.354	47.1
855.529	71.68
855.704	16.38
855.879	96.25
856.053	24.58
856.228	51.2
856.403	-38.91
856.577	-2.05
856.752	-4.1
856.926	36.86
857.101	63.49
857.276	-22.53
857.45	96.25
857.625	94.21
857.799	38.91
857.974	83.97
858.148	10.24
858.323	77.82
858.497	-47.1
858.672	16.38
858.846	43.01
859.02	18.43
859.195	-67.58
859.369	-2.05
859.543	-2.05
859.718	-59.39
859.892	86.01
860.066	22.53
860.241	-4.1
860.415	16.38
860.589	18.43
860.763	112.64
860.938	10.24
861.112	88.06
861.286	14.34
861.46	24.58
861.634	-28.67
861.808	6.14
861.982	0
862.157	-8.19
862.331	32.77
862.505	10.24
862.679	-59.39
862.853	34.82
863.027	38.91
863.201	40.96
863.375	2.05
863.549	59.39
863.722	38.91
863.896	141.31
864.07	16.38
864.244	65.53
864.418	83.97
864.592	47.1
864.766	12.29
864.939	4.1
865.113	-38.91
865.287	86.01
865.461	-2.05
865.634	65.53
865.808	0
865.982	-10.24
866.156	63.49
866.329	-40.96
866.503	63.49
866.676	28.67
866.85	28.67
867.024	38.91
867.197	90.11
867.371	-16.38
867.544	86.01
867.718	-24.58
867.891	108.54
868.065	-2.05
868.238	18.43
868.412	135.17
868.585	45.06
868.759	-26.62
868.932	-12.29
869.105	10.24
869.279	-12.29
869.452	-18.43
869.625	16.38
869.799	4.1
869.972	-34.82
870.145	22.53
870.319	22.53
870.492	16.38
870.665	59.39
870.838	28.67
871.011	-63.49
871.185	-71.68
871.358	-51.2
871.531	18.43
871.704	-14.34
871.877	116.73
872.05	-43.01
872.223	36.86
872.396	61.44
872.569	-30.72
872.742	-40.96
872.915	61.44
873.088	90.11
873.261	-45.06
873.434	53.25
873.607	16.38
873.78	88.06
873.953	-30.72
874.126	-26.62
874.299	-14.34
874.471	20.48
874.644	-57.34
874.817	28.67
874.99	126.97
875.163	-6.14
875.335	63.49
875.508	40.96
875.681	-81.92
875.853	38.91
876.026	40.96
876.199	-4.1
876.371	59.39
876.544	65.53
876.717	92.16
876.889	-28.67
877.062	100.35
877.234	-40.96
877.407	-18.43
877.579	-26.62
877.752	92.16
877.924	-8.19
878.097	43.01
878.269	-16.38
878.442	-6.14
878.614	38.91
878.786	59.39
878.959	-47.1
879.131	34.82
879.303	-32.77
879.476	2.05
879.648	43.01
879.82	71.68
879.993	-30.72
880.165	43.01
880.337	-106.49
880.509	77.82
880.681	-43.01
880.854	-61.44
881.026	-14.34
881.198	155.65
881.37	10.24
881.542	-10.24
881.714	67.58
881.886	-28.67
882.058	-24.58
882.23	-49.15
882.402	-49.15
882.574	-22.53
882.746	-10.24
882.918	43.01
883.09	32.77
883.262	-16.38
883.434	-26.62
883.606	-57.34
883.778	-10.24
883.95	133.12
884.122	-36.86
884.293	124.93
884.465	36.86
884.637	65.53
884.809	-47.1
884.98	4.1
885.152	51.2
885.324	-6.14
885.496	-20.48
885.667	-16.38
885.839	-34.82
886.011	75.77
886.182	43.01
886.354	53.25
886.525	47.1
886.697	16.38
886.869	2.05
887.04	8.19
887.212	36.86
887.383	49.15
887.555	-40.96
887.726	57.34
887.897	8.19
888.069	-6.14
888.24	53.25
888.412	-32.77
888.583	38.91
888.754	18.43
888.926	-59.39
889.097	4.1
889.268	-24.58
889.44	-14.34
889.611	43.01
889.782	-26.62
889.953	-49.15
890.125	188.41
890.296	-47.1
890.467	-8.19
890.638	10.24
890.809	16.38
890.98	-26.62
891.151	47.1
891.323	104.45
891.494	43.01
891.665	-32.77
891.836	4.1
892.007	6.14
892.178	59.39
892.349	57.34
892.52	-65.54
892.691	-8.19
892.862	26.62
893.032	-81.92
893.203	-26.62
893.374	8.19
893.545	57.34
893.716	-32.77
893.887	51.2
894.057	8.19
894.228	34.82
894.399	26.62
894.57	69.63
894.74	6.14
894.911	-24.58
895.082	-77.82
895.253	-43.01
895.423	24.58
895.594	43.01
895.764	24.58
895.935	0
896.106	10.24
896.276	-6.14
896.447	47.1
896.617	32.77
896.788	-22.53
896.958	-88.06
897.129	-6.14
897.299	-16.38
897.47	53.25
897.64	22.53
897.81	-2.05
897.981	-2.05
898.151	36.86
898.322	16.38
898.492	-38.91
898.662	-10.24
898.832	28.67
899.003	-43.01
899.173	28.67
899.343	-16.38
899.513	-30.72
