Data from USB4F104151__49__12-12-14-706.txt Node

Date: Fri Mar 14 12:12:14 EDT 2025
User: louis
Spectrometer: USB4F10415
Trigger mode: 4
Integration Time (sec): 5.000000E-2
Scans to average: 1
Electric dark correction enabled: true
Nonlinearity correction enabled: false
Boxcar width: 0
XAxis mode: Wavelengths
Number of Pixels in Spectrum: 3648
>>>>>Begin Spectral Data<<<<<
178.204	-187.05
178.424	-187.05
178.644	-187.05
178.864	-244.39
179.084	-137.9
179.304	-2.73
179.524	1.37
179.744	34.13
179.964	7.51
180.184	-8.87
180.404	62.8
180.624	-31.4
180.844	27.99
181.064	-43.69
181.283	15.7
181.503	-55.98
181.723	-6.83
181.943	-17.07
182.163	77.14
182.383	-2.73
182.602	68.95
182.822	19.8
183.042	25.94
183.262	7.51
183.482	52.56
183.701	75.09
183.921	34.13
184.141	-2.73
184.361	99.67
184.58	11.61
184.8	77.14
185.02	11.61
185.239	193.87
185.459	13.65
185.679	152.91
185.898	15.7
186.118	48.47
186.338	46.42
186.557	27.99
186.777	-35.5
186.997	54.61
187.216	68.95
187.436	111.96
187.655	130.39
187.875	75.09
188.095	34.13
188.314	130.39
188.534	89.43
188.753	-8.87
188.973	25.94
189.192	146.77
189.412	27.99
189.631	107.86
189.851	79.19
190.07	58.71
190.29	-58.03
190.509	-31.4
190.729	-19.11
190.948	114
191.168	214.35
191.387	118.1
191.607	19.8
191.826	83.28
192.045	46.42
192.265	15.7
192.484	93.52
192.704	17.75
192.923	-35.5
193.142	124.24
193.362	71
193.581	81.24
193.8	89.43
194.02	126.29
194.239	54.61
194.458	54.61
194.678	23.89
194.897	77.14
195.116	50.52
195.335	52.56
195.555	101.72
195.774	27.99
195.993	140.63
196.212	21.85
196.432	-12.97
196.651	-8.87
196.87	60.76
197.089	208.21
197.308	75.09
197.528	38.23
197.747	3.41
197.966	15.7
198.185	81.24
198.404	1.37
198.623	79.19
198.842	181.59
199.062	68.95
199.281	75.09
199.5	32.08
199.719	85.33
199.938	60.76
200.157	107.86
200.376	62.8
200.595	42.32
200.814	52.56
201.033	-0.68
201.252	122.2
201.471	48.47
201.69	68.95
201.909	32.08
202.128	107.86
202.347	66.9
202.566	40.28
202.785	66.9
203.004	9.56
203.223	163.15
203.442	118.1
203.661	1.37
203.879	89.43
204.098	118.1
204.317	25.94
204.536	23.89
204.755	79.19
204.974	114
205.193	21.85
205.411	132.44
205.63	75.09
205.849	-19.11
206.068	56.66
206.287	97.62
206.505	77.14
206.724	-21.16
206.943	3.41
207.162	21.85
207.381	64.85
207.599	7.51
207.818	9.56
208.037	-4.78
208.255	-37.55
208.474	17.75
208.693	77.14
208.911	50.52
209.13	42.32
209.349	62.8
209.567	48.47
209.786	64.85
210.005	89.43
210.223	64.85
210.442	-47.79
210.661	-15.02
210.879	77.14
211.098	-10.92
211.316	130.39
211.535	30.04
211.753	68.95
211.972	103.76
212.191	-6.83
212.409	19.8
212.628	62.8
212.846	30.04
213.065	226.64
213.283	140.63
213.502	54.61
213.72	32.08
213.938	81.24
214.157	42.32
214.375	83.28
214.594	27.99
214.812	101.72
215.031	66.9
215.249	3.41
215.467	40.28
215.686	1.37
215.904	138.58
216.122	109.91
216.341	71
216.559	50.52
216.778	116.05
216.996	38.23
217.214	25.94
217.432	52.56
217.651	-10.92
217.869	-19.11
218.087	-19.11
218.306	44.37
218.524	97.62
218.742	-4.78
218.96	99.67
219.179	-37.55
219.397	97.62
219.615	150.87
219.833	79.19
220.051	27.99
220.27	7.51
220.488	48.47
220.706	118.1
220.924	46.42
221.142	-55.98
221.36	71
221.578	42.32
221.796	-6.83
222.015	52.56
222.233	77.14
222.451	116.05
222.669	9.56
222.887	83.28
223.105	30.04
223.323	62.8
223.541	-8.87
223.759	66.9
223.977	50.52
224.195	193.87
224.413	122.2
224.631	77.14
224.849	25.94
225.067	150.87
225.285	48.47
225.503	48.47
225.721	9.56
225.939	-47.79
226.157	36.18
226.375	226.64
226.592	46.42
226.81	71
227.028	136.53
227.246	146.77
227.464	83.28
227.682	25.94
227.9	3.41
228.117	48.47
228.335	23.89
228.553	3.41
228.771	87.38
228.989	111.96
229.206	136.53
229.424	-15.02
229.642	44.37
229.86	1.37
230.077	81.24
230.295	58.71
230.513	42.32
230.731	85.33
230.948	116.05
231.166	58.71
231.384	62.8
231.601	79.19
231.819	181.59
232.037	1.37
232.254	9.56
232.472	52.56
232.689	23.89
232.907	124.24
233.125	62.8
233.342	58.71
233.56	17.75
233.777	-6.83
233.995	60.76
234.213	97.62
234.43	-10.92
234.648	71
234.865	34.13
235.083	40.28
235.3	58.71
235.518	89.43
235.735	126.29
235.953	21.85
236.17	13.65
236.388	34.13
236.605	30.04
236.822	85.33
237.04	122.2
237.257	103.76
237.475	9.56
237.692	56.66
237.909	58.71
238.127	54.61
238.344	50.52
238.562	23.89
238.779	-8.87
238.996	23.89
239.214	54.61
239.431	1.37
239.648	54.61
239.865	91.48
240.083	58.71
240.3	48.47
240.517	23.89
240.735	68.95
240.952	62.8
241.169	93.52
241.386	9.56
241.603	77.14
241.821	-31.4
242.038	71
242.255	77.14
242.472	-6.83
242.689	68.95
242.907	157.01
243.124	56.66
243.341	81.24
243.558	52.56
243.775	5.46
243.992	11.61
244.209	105.81
244.426	138.58
244.643	32.08
244.86	36.18
245.078	75.09
245.295	87.38
245.512	142.68
245.729	52.56
245.946	30.04
246.163	52.56
246.38	-6.83
246.597	42.32
246.814	105.81
247.031	46.42
247.248	116.05
247.464	81.24
247.681	50.52
247.898	93.52
248.115	66.9
248.332	103.76
248.549	56.66
248.766	173.39
248.983	91.48
249.2	103.76
249.417	85.33
249.633	11.61
249.85	25.94
250.067	48.47
250.284	58.71
250.501	159.06
250.717	38.23
250.934	64.85
251.151	40.28
251.368	25.94
251.585	30.04
251.801	38.23
252.018	-6.83
252.235	148.82
252.451	-19.11
252.668	1.37
252.885	48.47
253.102	27.99
253.318	17.75
253.535	15.7
253.752	116.05
253.968	75.09
254.185	-41.64
254.401	54.61
254.618	62.8
254.835	44.37
255.051	150.87
255.268	122.2
255.484	9.56
255.701	21.85
255.917	79.19
256.134	60.76
256.351	50.52
256.567	-6.83
256.784	58.71
257	1.37
257.217	64.85
257.433	134.48
257.65	62.8
257.866	93.52
258.082	-55.98
258.299	56.66
258.515	62.8
258.732	19.8
258.948	-6.83
259.165	118.1
259.381	32.08
259.597	89.43
259.814	91.48
260.03	75.09
260.246	36.18
260.463	79.19
260.679	116.05
260.895	62.8
261.112	128.34
261.328	52.56
261.544	-41.64
261.761	120.15
261.977	54.61
262.193	50.52
262.409	87.38
262.626	79.19
262.842	56.66
263.058	-31.4
263.274	132.44
263.49	87.38
263.707	85.33
263.923	140.63
264.139	-33.45
264.355	124.24
264.571	118.1
264.787	105.81
265.004	58.71
265.22	44.37
265.436	-4.78
265.652	1.37
265.868	9.56
266.084	-0.68
266.3	128.34
266.516	34.13
266.732	44.37
266.948	56.66
267.164	7.51
267.38	83.28
267.596	181.59
267.812	58.71
268.028	66.9
268.244	-27.31
268.46	75.09
268.676	15.7
268.892	95.57
269.108	-4.78
269.324	50.52
269.54	-19.11
269.756	126.29
269.972	13.65
270.188	38.23
270.403	64.85
270.619	5.46
270.835	-39.59
271.051	13.65
271.267	15.7
271.483	73.04
271.698	50.52
271.914	95.57
272.13	73.04
272.346	40.28
272.562	109.91
272.777	34.13
272.993	7.51
273.209	48.47
273.425	68.95
273.64	25.94
273.856	99.67
274.072	91.48
274.287	-4.78
274.503	83.28
274.719	66.9
274.934	81.24
275.15	38.23
275.366	111.96
275.581	-6.83
275.797	44.37
276.012	75.09
276.228	95.57
276.444	54.61
276.659	73.04
276.875	17.75
277.09	85.33
277.306	44.37
277.521	99.67
277.737	58.71
277.952	68.95
278.168	64.85
278.383	-2.73
278.599	62.8
278.814	62.8
279.03	62.8
279.245	187.73
279.461	52.56
279.676	132.44
279.892	32.08
280.107	34.13
280.322	44.37
280.538	44.37
280.753	-4.78
280.969	75.09
281.184	81.24
281.399	195.92
281.615	34.13
281.83	40.28
282.045	3.41
282.26	-31.4
282.476	36.18
282.691	171.35
282.906	71
283.122	93.52
283.337	120.15
283.552	89.43
283.767	44.37
283.983	79.19
284.198	116.05
284.413	93.52
284.628	13.65
284.843	128.34
285.058	62.8
285.274	11.61
285.489	30.04
285.704	105.81
285.919	114
286.134	42.32
286.349	38.23
286.564	-39.59
286.779	99.67
286.995	-29.35
287.21	-41.64
287.425	118.1
287.64	17.75
287.855	58.71
288.07	-12.97
288.285	77.14
288.5	66.9
288.715	83.28
288.93	87.38
289.145	79.19
289.36	25.94
289.575	27.99
289.79	103.76
290.004	50.52
290.219	77.14
290.434	48.47
290.649	23.89
290.864	19.8
291.079	44.37
291.294	-37.55
291.509	36.18
291.724	111.96
291.938	36.18
292.153	9.56
292.368	21.85
292.583	128.34
292.798	144.72
293.012	56.66
293.227	30.04
293.442	-0.68
293.657	140.63
293.871	52.56
294.086	64.85
294.301	81.24
294.516	197.97
294.73	68.95
294.945	-41.64
295.16	50.52
295.374	77.14
295.589	97.62
295.804	36.18
296.018	44.37
296.233	208.21
296.447	36.18
296.662	17.75
296.877	169.3
297.091	25.94
297.306	68.95
297.52	81.24
297.735	17.75
297.949	107.86
298.164	95.57
298.378	56.66
298.593	81.24
298.807	-0.68
299.022	56.66
299.236	122.2
299.451	-12.97
299.665	58.71
299.88	77.14
300.094	56.66
300.309	38.23
300.523	52.56
300.737	48.47
300.952	111.96
301.166	134.48
301.381	27.99
301.595	48.47
301.809	50.52
302.024	-2.73
302.238	-10.92
302.452	136.53
302.667	40.28
302.881	138.58
303.095	144.72
303.309	62.8
303.524	105.81
303.738	-4.78
303.952	66.9
304.166	111.96
304.381	30.04
304.595	91.48
304.809	32.08
305.023	93.52
305.237	73.04
305.452	105.81
305.666	46.42
305.88	50.52
306.094	-10.92
306.308	5.46
306.522	124.24
306.736	-6.83
306.95	34.13
307.164	17.75
307.379	-0.68
307.593	134.48
307.807	38.23
308.021	91.48
308.235	79.19
308.449	71
308.663	30.04
308.877	208.21
309.091	25.94
309.305	101.72
309.519	44.37
309.733	85.33
309.947	11.61
310.161	111.96
310.374	111.96
310.588	77.14
310.802	-17.07
311.016	32.08
311.23	60.76
311.444	25.94
311.658	62.8
311.872	81.24
312.085	73.04
312.299	169.3
312.513	130.39
312.727	46.42
312.941	-41.64
313.154	17.75
313.368	34.13
313.582	68.95
313.796	13.65
314.009	38.23
314.223	144.72
314.437	27.99
314.651	52.56
314.864	3.41
315.078	52.56
315.292	30.04
315.505	15.7
315.719	30.04
315.933	34.13
316.146	60.76
316.36	-84.65
316.573	85.33
316.787	68.95
317.001	150.87
317.214	1.37
317.428	50.52
317.641	56.66
317.855	30.04
318.068	44.37
318.282	79.19
318.495	150.87
318.709	144.72
318.922	23.89
319.136	175.44
319.349	66.9
319.563	60.76
319.776	46.42
319.99	-31.4
320.203	111.96
320.417	114
320.63	83.28
320.843	111.96
321.057	30.04
321.27	71
321.483	71
321.697	144.72
321.91	62.8
322.124	118.1
322.337	124.24
322.55	50.52
322.763	124.24
322.977	17.75
323.19	52.56
323.403	71
323.617	66.9
323.83	77.14
324.043	32.08
324.256	13.65
324.469	-51.88
324.683	126.29
324.896	-21.16
325.109	97.62
325.322	-37.55
325.535	148.82
325.748	87.38
325.962	79.19
326.175	68.95
326.388	-2.73
326.601	118.1
326.814	44.37
327.027	46.42
327.24	52.56
327.453	11.61
327.666	34.13
327.879	101.72
328.092	89.43
328.305	66.9
328.518	7.51
328.731	13.65
328.944	73.04
329.157	17.75
329.37	93.52
329.583	150.87
329.796	46.42
330.009	48.47
330.222	58.71
330.435	167.25
330.648	75.09
330.861	17.75
331.073	140.63
331.286	138.58
331.499	32.08
331.712	105.81
331.925	157.01
332.138	64.85
332.35	-21.16
332.563	75.09
332.776	126.29
332.989	105.81
333.202	73.04
333.414	27.99
333.627	93.52
333.84	-12.97
334.053	56.66
334.265	66.9
334.478	46.42
334.691	17.75
334.903	101.72
335.116	73.04
335.329	-6.83
335.541	81.24
335.754	140.63
335.966	38.23
336.179	66.9
336.392	89.43
336.604	42.32
336.817	42.32
337.029	128.34
337.242	5.46
337.454	46.42
337.667	109.91
337.88	93.52
338.092	50.52
338.305	111.96
338.517	128.34
338.729	71
338.942	122.2
339.154	5.46
339.367	-21.16
339.579	93.52
339.792	13.65
340.004	118.1
340.217	13.65
340.429	-27.31
340.641	30.04
340.854	17.75
341.066	32.08
341.278	56.66
341.491	120.15
341.703	93.52
341.915	79.19
342.128	124.24
342.34	87.38
342.552	-8.87
342.764	13.65
342.977	62.8
343.189	87.38
343.401	134.48
343.613	38.23
343.826	77.14
344.038	-51.88
344.25	11.61
344.462	32.08
344.674	128.34
344.886	73.04
345.099	91.48
345.311	54.61
345.523	79.19
345.735	-4.78
345.947	42.32
346.159	120.15
346.371	73.04
346.583	15.7
346.795	136.53
347.007	-2.73
347.219	173.39
347.431	62.8
347.643	136.53
347.855	3.41
348.067	111.96
348.279	17.75
348.491	68.95
348.703	50.52
348.915	154.96
349.127	89.43
349.339	15.7
349.551	19.8
349.763	30.04
349.975	25.94
350.187	85.33
350.399	71
350.61	142.68
350.822	93.52
351.034	134.48
351.246	111.96
351.458	130.39
351.669	79.19
351.881	105.81
352.093	99.67
352.305	56.66
352.517	146.77
352.728	111.96
352.94	138.58
353.152	87.38
353.363	34.13
353.575	148.82
353.787	171.35
353.999	97.62
354.21	66.9
354.422	21.85
354.633	46.42
354.845	179.54
355.057	11.61
355.268	118.1
355.48	179.54
355.692	30.04
355.903	85.33
356.115	-6.83
356.326	-8.87
356.538	148.82
356.749	13.65
356.961	146.77
357.172	77.14
357.384	21.85
357.595	232.79
357.807	103.76
358.018	1.37
358.23	36.18
358.441	126.29
358.653	81.24
358.864	97.62
359.075	32.08
359.287	89.43
359.498	58.71
359.709	122.2
359.921	77.14
360.132	21.85
360.344	93.52
360.555	95.57
360.766	122.2
360.977	68.95
361.189	50.52
361.4	23.89
361.611	30.04
361.823	177.49
362.034	128.34
362.245	42.32
362.456	71
362.667	83.28
362.879	1.37
363.09	27.99
363.301	105.81
363.512	73.04
363.723	34.13
363.935	52.56
364.146	107.86
364.357	46.42
364.568	85.33
364.779	66.9
364.99	146.77
365.201	130.39
365.412	103.76
365.623	-47.79
365.834	87.38
366.045	68.95
366.256	46.42
366.467	21.85
366.678	79.19
366.889	167.25
367.1	7.51
367.311	120.15
367.522	64.85
367.733	58.71
367.944	54.61
368.155	101.72
368.366	89.43
368.577	171.35
368.788	109.91
368.999	11.61
369.209	71
369.42	171.35
369.631	175.44
369.842	60.76
370.053	17.75
370.264	134.48
370.474	3.41
370.685	120.15
370.896	81.24
371.107	128.34
371.317	126.29
371.528	81.24
371.739	114
371.95	109.91
372.16	58.71
372.371	38.23
372.582	1.37
372.792	163.15
373.003	95.57
373.214	103.76
373.424	140.63
373.635	5.46
373.846	114
374.056	124.24
374.267	97.62
374.477	138.58
374.688	44.37
374.898	54.61
375.109	134.48
375.319	142.68
375.53	154.96
375.74	66.9
375.951	89.43
376.161	91.48
376.372	107.86
376.582	40.28
376.793	114
377.003	-8.87
377.214	17.75
377.424	71
377.635	36.18
377.845	-4.78
378.055	77.14
378.266	44.37
378.476	138.58
378.686	132.44
378.897	124.24
379.107	183.63
379.317	71
379.528	71
379.738	79.19
379.948	68.95
380.158	114
380.369	93.52
380.579	128.34
380.789	54.61
380.999	56.66
381.21	142.68
381.42	154.96
381.63	75.09
381.84	150.87
382.05	83.28
382.261	73.04
382.471	87.38
382.681	60.76
382.891	114
383.101	52.56
383.311	103.76
383.521	118.1
383.731	105.81
383.941	167.25
384.151	64.85
384.361	89.43
384.571	15.7
384.781	150.87
384.991	187.73
385.201	165.2
385.411	118.1
385.621	95.57
385.831	136.53
386.041	116.05
386.251	154.96
386.461	144.72
386.671	60.76
386.881	3.41
387.091	99.67
387.301	107.86
387.511	46.42
387.72	62.8
387.93	89.43
388.14	56.66
388.35	114
388.56	111.96
388.769	159.06
388.979	75.09
389.189	99.67
389.399	56.66
389.609	136.53
389.818	154.96
390.028	167.25
390.238	183.63
390.447	-33.45
390.657	97.62
390.867	83.28
391.076	66.9
391.286	144.72
391.496	107.86
391.705	17.75
391.915	97.62
392.125	177.49
392.334	146.77
392.544	177.49
392.753	38.23
392.963	44.37
393.172	105.81
393.382	73.04
393.591	259.41
393.801	116.05
394.01	212.31
394.22	152.91
394.429	111.96
394.639	111.96
394.848	101.72
395.058	187.73
395.267	62.8
395.477	159.06
395.686	120.15
395.895	249.17
396.105	191.83
396.314	261.46
396.524	187.73
396.733	130.39
396.942	171.35
397.152	140.63
397.361	144.72
397.57	206.16
397.78	118.1
397.989	177.49
398.198	224.59
398.407	163.15
398.617	167.25
398.826	140.63
399.035	154.96
399.244	210.26
399.453	171.35
399.663	157.01
399.872	195.92
400.081	118.1
400.29	216.4
400.499	107.86
400.708	159.06
400.917	175.44
401.127	71
401.336	179.54
401.545	298.32
401.754	204.11
401.963	212.31
402.172	171.35
402.381	81.24
402.59	124.24
402.799	210.26
403.008	212.31
403.217	161.11
403.426	257.36
403.635	195.92
403.844	146.77
404.053	191.83
404.262	230.74
404.471	296.27
404.68	210.26
404.888	234.83
405.097	234.83
405.306	224.59
405.515	245.07
405.724	230.74
405.933	275.79
406.142	277.84
406.35	279.89
406.559	169.3
406.768	308.56
406.977	370
407.185	275.79
407.394	357.71
407.603	326.99
407.812	304.46
408.02	384.34
408.229	294.22
408.438	370
408.646	286.03
408.855	423.25
409.064	435.53
409.272	331.09
409.481	363.86
409.69	380.24
409.898	351.57
410.107	453.97
410.315	474.45
410.524	431.44
410.733	576.84
410.941	386.38
411.15	681.29
411.358	589.13
411.567	650.57
411.775	687.43
411.984	648.52
412.192	613.71
412.401	576.84
412.609	806.22
412.818	752.97
413.026	683.34
413.234	712.01
413.443	752.97
413.651	787.79
413.86	816.46
414.068	963.91
414.276	906.57
414.485	890.18
414.693	986.44
414.901	1103.17
415.11	1103.17
415.318	1017.16
415.526	1035.59
415.734	1162.56
415.943	1150.28
416.151	1293.63
416.359	1154.37
416.567	1291.59
416.776	1373.5
416.984	1457.47
417.192	1420.61
417.4	1457.47
417.608	1439.04
417.817	1512.77
418.025	1713.47
418.233	1817.91
418.441	1772.86
418.649	1770.81
418.857	1819.96
419.065	1936.7
419.273	1850.68
419.481	1946.94
419.689	2090.29
419.897	2192.69
420.105	2258.23
420.313	2383.15
420.521	2422.06
420.729	2374.96
420.937	2557.23
421.145	2714.92
421.353	2731.31
421.561	2921.77
421.769	3007.78
421.977	3079.46
422.185	2979.11
422.393	3052.84
422.601	3392.8
422.809	3237.16
423.017	3376.42
423.224	3497.25
423.432	3611.93
423.64	3632.41
423.848	3990.81
424.056	4019.48
424.263	4230.42
424.471	4171.03
424.679	4250.9
424.887	4558.1
425.094	4621.58
425.302	4572.43
425.51	4748.56
425.718	4982.03
425.925	5080.33
426.133	5082.38
426.341	5430.53
426.548	5704.96
426.756	5598.46
426.964	5946.62
427.171	5958.91
427.379	6296.82
427.586	6483.19
427.794	6669.55
428.001	6829.29
428.209	7310.57
428.417	7195.88
428.624	7404.77
428.832	7621.86
429.039	7312.61
429.247	7783.65
429.454	8334.55
429.662	8924.37
429.869	8164.57
430.076	8756.43
430.284	8682.7
430.491	8975.56
430.699	9608.39
430.906	9485.51
431.114	9723.07
431.321	9854.14
431.528	10071.23
431.736	10460.34
431.943	11154.6
432.15	10958
432.358	11031.72
432.565	11646.12
432.772	11601.06
432.979	12291.23
433.187	12364.95
433.394	12416.15
433.601	13296.78
433.808	13323.4
434.016	13194.38
434.223	13640.84
434.43	14500.98
434.637	14216.32
434.844	15283.31
435.052	15422.57
435.259	15441
435.466	15367.27
435.673	15387.75
435.88	16254.05
436.087	17009.75
436.294	16974.93
436.501	16571.48
436.708	17153.1
436.915	17493.07
437.122	18510.91
437.329	18351.17
437.537	18842.68
437.743	19375.15
437.95	18900.02
438.157	19713.06
438.364	20509.72
438.571	20507.68
438.778	20765.72
438.985	22825.98
439.192	21924.87
439.399	22393.86
439.606	21998.6
439.813	23120.88
440.02	24497.12
440.227	24161.25
440.433	23557.1
440.64	24536.03
440.847	24110.05
441.054	25027.54
441.261	26692.54
441.467	26401.73
441.674	27325.36
441.881	27814.83
442.088	27745.2
442.294	27685.81
442.501	28230.57
442.708	28892.06
442.914	30100.36
443.121	31101.82
443.328	30196.62
443.534	32512.87
443.741	31124.35
443.948	30823.29
444.154	33366.87
444.361	33026.91
444.568	33289.05
444.774	32883.55
444.981	33557.33
445.187	34523.97
445.394	35822.39
445.6	35459.9
445.807	38843.14
446.013	37223.2
446.22	37872.4
446.426	39428.86
446.633	39639.8
446.839	40950.5
447.046	38787.85
447.252	41302.75
447.459	41476.83
447.665	40870.63
447.871	42951.37
448.078	44716.71
448.284	42404.56
448.491	44051.13
448.697	45083.3
448.903	46121.62
449.11	45712.03
449.316	44909.22
449.522	46084.76
449.728	47448.71
449.935	47536.77
450.141	47323.78
450.347	48466.55
450.553	47157.89
450.76	47514.24
450.966	48702.06
451.172	48284.28
451.378	50025.05
451.584	49001.07
451.791	49660.51
451.997	49871.45
452.203	50272.85
452.409	50532.95
452.615	49932.89
452.821	48206.45
453.027	47946.36
453.233	50537.04
453.44	48226.93
453.646	48829.04
453.852	48982.63
454.058	50127.45
454.264	48130.68
454.47	49132.14
454.676	47975.03
454.882	49177.19
455.088	44960.42
455.294	45683.36
455.5	46346.9
455.705	47075.97
455.911	45468.32
456.117	44133.04
456.323	43348.67
456.529	41321.18
456.735	43086.53
456.941	41738.97
457.147	41235.17
457.352	40243.95
457.558	39568.12
457.764	39883.51
457.97	38888.2
458.176	37847.83
458.381	37579.54
458.587	36168.49
458.793	36074.29
458.999	34235.21
459.204	36399.91
459.41	35470.14
459.616	33727.31
459.821	33278.81
460.027	33026.91
460.233	32789.35
460.438	30606.21
460.644	31196.03
460.85	29391.76
461.055	29375.38
461.261	29072.28
461.466	26762.17
461.672	26266.56
461.878	27855.79
462.083	26090.44
462.289	25529.3
462.494	25314.26
462.7	23987.18
462.905	23716.84
463.111	24204.26
463.316	24216.55
463.522	23935.98
463.727	24077.29
463.932	23978.98
464.138	23290.87
464.343	23538.67
464.549	22762.49
464.754	23542.77
464.959	23294.96
465.165	23143.41
465.37	22135.81
465.575	21675.02
465.781	22406.14
465.986	22277.12
466.191	21750.79
466.397	21412.88
466.602	20159.52
466.807	20993.04
467.012	20986.9
467.218	20847.64
467.423	20804.63
467.628	20909.08
467.833	21433.36
468.038	20583.45
468.244	20145.19
468.449	21214.23
468.654	20042.79
468.859	20106.27
469.064	19971.11
469.269	18990.13
469.474	19516.46
469.679	19711.02
469.885	19131.44
470.09	19414.06
470.295	19108.91
470.5	18756.66
470.705	18916.4
470.91	18519.1
471.115	18203.71
471.32	18363.45
471.525	18412.6
471.73	17843.27
471.935	17775.69
472.139	17132.62
472.344	17294.41
472.549	17138.77
472.754	17167.44
472.959	16788.57
473.164	16311.39
473.369	15957.09
473.574	16761.94
473.778	16383.07
473.983	16469.08
474.188	16204.89
474.393	15545.45
474.598	15432.81
474.802	15273.07
475.007	15357.03
475.212	15492.2
475.417	14431.35
475.621	14691.45
475.826	14785.65
476.031	14085.25
476.235	14429.31
476.44	14402.68
476.645	13909.12
476.849	14247.04
477.054	13902.98
477.259	13632.65
477.463	13722.76
477.668	13378.7
477.872	13743.24
478.077	13130.89
478.282	12876.94
478.486	12950.67
478.691	12782.74
478.895	12840.08
479.1	12657.81
479.304	12598.42
479.509	12354.71
479.713	12510.36
479.918	12225.69
480.122	12053.66
480.326	12180.64
480.531	12225.69
480.735	12119.2
480.94	12004.51
481.144	12248.22
481.348	11869.34
481.553	11945.12
481.757	11685.03
481.961	11859.1
482.166	11795.62
482.37	11904.16
482.574	11635.88
482.778	11844.77
482.983	11678.88
483.187	11574.44
483.391	11695.27
483.595	11750.56
483.8	11324.58
484.004	11918.5
484.208	11711.65
484.412	11523.24
484.616	11576.48
484.821	11672.74
485.025	11392.17
485.229	11619.49
485.433	11500.71
485.637	11580.58
485.841	11521.19
486.045	11398.31
486.249	11631.78
486.453	11492.52
486.657	11353.26
486.861	11406.5
487.065	11439.27
487.269	11486.37
487.473	11113.64
487.677	11709.6
487.881	11668.64
488.085	11355.3
488.289	11412.65
488.493	11173.03
488.697	11664.55
488.901	11558.05
489.105	11381.93
489.309	11525.29
489.512	11672.74
489.716	11469.99
489.92	11531.43
490.124	11584.68
490.328	11752.61
490.531	11646.12
490.735	11513
490.939	11652.26
491.143	11746.47
491.346	11443.37
491.55	11924.64
491.754	11826.34
491.958	11633.83
492.161	11891.87
492.365	12024.99
492.569	11986.08
492.772	11986.08
492.976	11930.78
493.18	12158.11
493.383	12317.85
493.587	12297.37
493.79	12410.01
493.994	12174.49
494.197	12321.95
494.401	12493.97
494.605	12371.1
494.808	12700.82
495.012	12784.79
495.215	12835.99
495.419	12762.26
495.622	12844.18
495.825	12936.34
496.029	13022.35
496.232	13309.07
496.436	13200.52
496.639	13640.84
496.843	13718.66
497.046	13694.08
497.249	13855.87
497.453	13929.6
497.656	14013.57
497.859	13956.22
498.063	14120.06
498.266	14632.05
498.469	14537.85
498.673	14902.39
498.876	14951.54
499.079	14974.06
499.282	15248.49
499.485	15264.88
499.689	15189.1
499.892	15602.79
500.095	15649.89
500.298	16165.98
500.501	15621.22
500.705	16264.29
500.908	16606.3
501.111	16411.74
501.314	16942.16
501.517	16856.15
501.72	17167.44
501.923	16997.46
502.126	17349.71
502.329	17822.79
502.532	17935.43
502.735	18091.07
502.938	18310.21
503.141	18439.23
503.344	18324.54
503.547	18297.92
503.75	18572.35
503.953	19473.45
504.156	19401.77
504.359	19633.19
504.562	19622.95
504.765	19729.45
504.968	19870.76
505.17	20337.69
505.373	20206.62
505.576	20474.91
505.779	20767.77
505.982	20921.37
506.185	21373.97
506.387	21273.62
506.59	21783.56
506.793	21791.75
506.996	21951.49
507.198	22359.04
507.401	22305.79
507.604	22481.92
507.807	22993.91
508.009	22934.52
508.212	23258.1
508.415	23325.68
508.617	23430.13
508.82	23663.6
509.022	23774.19
509.225	24259.56
509.428	24454.11
509.63	24759.26
509.833	24542.17
510.035	25594.83
510.238	25170.9
510.44	25258.96
510.643	25805.77
510.845	26051.53
511.048	26000.33
511.25	26168.26
511.453	26436.55
511.655	27349.94
511.858	27245.49
512.06	27110.33
512.262	27343.8
512.465	27384.76
512.667	27837.36
512.87	28158.89
513.072	28203.94
513.274	28963.74
513.477	28918.68
513.679	29137.82
513.881	29242.26
514.084	29512.6
514.286	29590.42
514.488	29836.17
514.69	30688.13
514.893	30591.87
515.095	30522.24
515.297	30796.67
515.499	30968.7
515.701	31335.29
515.904	31464.31
516.106	31939.44
516.308	31974.25
516.51	32484.2
516.712	32557.92
516.914	32891.74
517.116	33313.62
517.318	32648.04
517.52	33375.06
517.722	33370.97
517.925	33936.21
518.127	34327.37
518.329	34237.26
518.531	34425.67
518.733	35003.2
518.935	34995.01
519.136	34988.86
519.338	35334.97
519.54	35494.71
519.742	36041.52
519.944	36004.66
520.146	36088.62
520.348	36238.12
520.55	36332.33
520.752	37012.26
520.954	37241.63
521.155	36705.06
521.357	37782.29
521.559	37692.18
521.761	38200.08
521.963	37759.77
522.164	37950.23
522.366	38236.94
522.568	38830.85
522.77	38540.04
522.971	39265.02
523.173	38902.53
523.375	39316.22
523.576	39234.3
523.778	39265.02
523.98	39439.1
524.181	39811.83
524.383	39684.86
524.584	40233.71
524.786	40002.29
524.988	39967.48
525.189	40495.85
525.391	40530.67
525.592	40831.72
525.794	40837.86
525.995	40770.28
526.197	40733.42
526.398	41220.83
526.6	41460.44
526.801	41415.39
527.003	41284.32
527.204	41149.15
527.406	41601.75
527.607	41702.1
527.808	41763.54
528.01	41065.19
528.211	41454.3
528.412	42173.14
528.614	42259.15
528.815	42240.72
529.016	42549.96
529.218	42132.18
529.419	42144.47
529.62	42173.14
529.822	41911
530.023	42001.11
530.224	42136.27
530.425	42293.97
530.626	42134.23
530.828	41601.75
531.029	42547.92
531.23	42160.85
531.431	42429.13
531.632	41843.41
531.833	42388.17
532.035	42087.12
532.236	42345.17
532.437	42418.89
532.638	42130.13
532.839	42762.95
533.04	42222.29
533.241	42093.27
533.442	42961.61
533.643	42072.79
533.844	42451.66
534.045	42427.09
534.246	41992.92
534.447	42574.54
534.648	42144.47
534.849	42132.18
535.05	42207.95
535.251	41929.43
535.451	41716.44
535.652	42386.13
535.853	42300.11
536.054	42496.72
536.255	42263.25
536.456	41927.38
536.657	42795.72
536.857	42289.87
537.058	42021.59
537.259	42244.82
537.46	41954.01
537.66	41790.17
537.861	42377.93
538.062	42154.71
538.263	42422.99
538.463	41196.26
538.664	42130.13
538.865	41759.45
539.065	42031.83
539.266	41702.1
539.466	42160.85
539.667	41587.42
539.868	42574.54
540.068	41618.14
540.269	41900.76
540.469	41792.22
540.67	41706.2
540.87	41495.26
541.071	41741.02
541.271	41413.34
541.472	41616.09
541.672	41564.89
541.873	41611.99
542.073	41194.21
542.274	42390.22
542.474	41405.15
542.675	41444.06
542.875	41960.15
543.075	41245.41
543.276	41188.06
543.476	41407.2
543.676	40796.9
543.877	41493.21
544.077	41319.13
544.277	41255.65
544.478	41022.18
544.678	41689.82
544.878	41009.89
545.078	41128.67
545.279	41128.67
545.479	40884.97
545.679	41173.73
545.879	40934.12
546.079	41194.21
546.28	41151.2
546.48	40710.89
546.68	41140.96
546.88	41067.23
547.08	41140.96
547.28	41235.17
547.48	40555.24
547.68	40983.27
547.88	40694.5
548.081	41130.72
548.281	40942.31
548.481	40839.91
548.681	40905.45
548.881	41202.4
549.081	40981.22
549.28	40221.42
549.48	40913.64
549.68	40622.83
549.88	41071.33
550.08	40313.58
550.28	40690.41
550.48	40592.11
550.68	40493.8
550.88	40209.14
551.08	40807.14
551.279	40671.98
551.479	40411.88
551.679	40542.95
551.879	40370.93
552.079	40782.57
552.278	40534.76
552.478	40424.17
552.678	40256.24
552.878	40659.69
553.077	40284.91
553.277	40020.72
553.477	40858.34
553.676	40796.9
553.876	40545
554.076	40258.29
554.275	40153.84
554.475	39682.81
554.674	40598.25
554.874	40409.84
555.074	39766.77
555.273	40151.79
555.473	40381.17
555.672	40055.54
555.872	40090.35
556.071	40209.14
556.271	40028.91
556.47	40018.67
556.67	39944.95
556.869	39944.95
557.068	40076.02
557.268	39768.82
557.467	39842.55
557.667	39719.67
557.866	40108.79
558.065	39625.46
558.265	39793.4
558.464	39637.75
558.663	40002.29
558.863	39367.42
559.062	39963.38
559.261	39461.63
559.461	39932.66
559.66	39207.68
559.859	39604.99
560.058	39185.15
560.258	39588.6
560.457	39097.09
560.656	39703.29
560.855	39238.4
561.054	39338.75
561.253	38994.69
561.453	39332.61
561.652	39373.56
561.851	39379.71
562.05	38978.31
562.249	39025.41
562.448	39207.68
562.647	38939.4
562.846	39047.94
563.045	39234.3
563.244	38818.57
563.443	39717.62
563.642	38828.8
563.841	38753.03
564.04	38648.58
564.239	39217.92
564.438	38544.14
564.637	38939.4
564.836	39344.89
565.035	38271.76
565.234	38687.5
565.432	38720.26
565.631	38347.53
565.83	38753.03
566.029	38568.71
566.228	38494.99
566.427	38679.3
566.625	38734.6
566.824	38001.43
567.023	38437.64
567.222	37835.54
567.42	38793.99
567.619	38120.21
567.818	38032.14
568.016	38443.79
568.215	38480.65
568.414	38355.72
568.612	38372.11
568.811	38372.11
569.01	38177.55
569.208	37944.08
569.407	38423.31
569.605	37761.81
569.804	38028.05
570.002	37575.45
570.201	37774.1
570.4	37274.4
570.598	37706.52
570.797	37511.96
570.995	37733.14
571.193	37290.78
571.392	37532.44
571.59	37487.39
571.789	37255.96
571.987	37901.07
572.186	37303.07
572.384	37184.29
572.582	37552.92
572.781	37452.57
572.979	37325.6
573.177	37649.17
573.376	37307.16
573.574	37221.15
573.772	37409.56
573.971	36872.99
574.169	36555.56
574.367	36860.71
574.565	36975.39
574.763	37016.35
574.962	36889.38
575.16	36459.31
575.358	36674.34
575.556	36092.72
575.754	36981.54
575.952	36717.35
576.151	37067.55
576.349	36352.81
576.547	36299.56
576.745	36877.09
576.943	36412.2
577.141	36143.92
577.339	36236.08
577.537	36373.29
577.735	36526.89
577.933	35865.39
578.131	36397.87
578.329	35967.79
578.527	35758.9
578.725	35883.83
578.923	36016.94
579.121	35664.69
579.319	35621.69
579.516	35787.57
579.714	35529.53
579.912	35816.24
580.11	35382.07
580.308	35726.13
580.506	35633.97
580.704	35167.04
580.901	35504.95
581.099	35466.04
581.297	35115.84
581.495	35306.3
581.692	35263.29
581.89	35048.25
582.088	35386.17
582.285	34599.75
582.483	35193.66
582.681	34741.06
582.878	34847.55
583.076	34288.46
583.274	34702.15
583.471	34609.99
583.669	34835.27
583.866	34274.12
584.064	34802.5
584.262	34243.4
584.459	34736.96
584.657	34194.25
584.854	34538.31
585.052	33835.86
585.249	34257.74
585.447	34245.45
585.644	33674.07
585.841	34186.06
586.039	34534.21
586.236	33862.48
586.434	33866.58
586.631	33917.78
586.828	33987.41
587.026	33950.54
587.223	33864.53
587.42	33631.06
587.618	33555.29
587.815	33174.36
588.012	33579.86
588.21	33125.21
588.407	33897.3
588.604	33213.27
588.801	33026.91
588.999	33076.06
589.196	33287
589.393	33127.26
589.59	33092.44
589.787	32875.36
589.984	32742.24
590.182	32850.78
590.379	33239.9
590.576	32813.92
590.773	32797.54
590.97	32795.49
591.167	32715.62
591.364	32287.59
591.561	32652.13
591.758	32420.71
591.955	32162.67
592.152	32621.41
592.349	32320.36
592.546	32154.47
592.743	32289.64
592.94	32004.97
593.137	32455.53
593.334	31970.16
593.531	31787.89
593.727	32181.1
593.924	32056.17
594.121	31865.71
594.318	32400.23
594.515	31746.93
594.712	31914.86
594.908	32074.6
595.105	31812.46
595.302	31875.95
595.499	31675.25
595.696	31425.4
595.892	31333.24
596.089	31955.82
596.286	31687.54
596.482	31413.11
596.679	31331.19
596.876	31425.4
597.072	31251.32
597.269	31421.3
597.466	31054.72
597.662	31175.55
597.859	31216.5
598.055	31290.23
598.252	31212.41
598.448	31021.95
598.645	30985.08
598.841	30929.79
599.038	31290.23
599.234	30923.65
599.431	30536.58
599.627	30813.06
599.824	30980.99
600.02	30589.83
600.217	30956.41
600.413	30942.08
600.609	30487.43
600.806	30632.83
601.002	30970.75
601.198	30303.11
601.395	30751.62
601.591	30530.44
601.787	30624.64
601.984	30954.36
602.18	30616.45
602.376	30602.11
602.572	30299.01
602.769	30530.44
602.965	30159.75
603.161	30483.33
603.357	30112.65
603.553	30409.61
603.75	30366.6
603.946	30299.01
604.142	30583.68
604.338	29952.91
604.534	30374.79
604.73	29954.96
604.926	30000.01
605.122	30362.5
605.318	30282.63
605.514	30204.81
605.71	29821.84
605.906	30249.86
606.102	30217.1
606.298	30219.14
606.494	30249.86
606.69	30178.18
606.886	30026.64
607.082	29674.38
607.278	30378.89
607.474	30126.99
607.67	30229.38
607.866	29803.41
608.062	30251.91
608.257	30137.23
608.453	30204.81
608.649	30370.69
608.845	30057.35
609.041	30129.03
609.236	30161.8
609.432	30423.94
609.628	30288.78
609.824	30204.81
610.019	29952.91
610.215	30149.51
610.411	30356.36
610.606	30100.36
610.802	30188.42
610.998	30497.67
611.193	30307.21
611.389	30268.3
611.584	30534.53
611.78	30083.98
611.976	30413.7
612.171	30321.54
612.367	30122.89
612.562	30620.55
612.758	30061.45
612.953	30210.95
613.149	30862.21
613.344	30243.72
613.539	31228.79
613.735	30520.2
613.93	30804.86
614.126	30569.35
614.321	31124.35
614.517	30741.38
614.712	30958.46
614.907	30794.62
615.103	31224.7
615.298	30458.76
615.493	30860.16
615.688	30491.52
615.884	31306.62
616.079	30514.05
616.274	30966.65
616.47	30770.05
616.665	31011.71
616.86	30745.47
617.055	31028.09
617.25	30745.47
617.445	31286.14
617.641	30487.43
617.836	31267.7
618.031	31189.88
618.226	30847.87
618.421	30704.51
618.616	31443.83
618.811	30958.46
619.006	31015.8
619.201	30704.51
619.396	30958.46
619.591	30534.53
619.786	30784.38
619.981	30638.98
620.176	31058.81
620.371	30391.17
620.566	30514.05
620.761	30649.22
620.956	30704.51
621.151	30206.86
621.346	30387.08
621.541	30569.35
621.735	30534.53
621.93	30172.04
622.125	30167.94
622.32	29879.18
622.515	29819.79
622.709	29883.28
622.904	29899.66
623.099	29696.91
623.294	29838.22
623.488	29412.24
623.683	29512.6
623.878	29420.44
624.072	29291.41
624.267	29338.52
624.462	29389.72
624.656	29010.84
624.851	29025.18
625.046	28869.53
625.24	29059.99
625.435	28580.77
625.629	28699.55
625.824	28670.88
626.018	28672.93
626.213	28103.59
626.407	28603.3
626.602	28003.24
626.796	28400.55
626.991	28357.54
627.185	28146.6
627.38	27868.08
627.574	27675.57
627.768	27624.37
627.963	27788.21
628.157	27448.24
628.352	27444.15
628.546	27415.47
628.74	27462.58
628.935	26817.47
629.129	27431.86
629.323	27024.31
629.517	26969.02
629.712	26706.88
629.906	26766.27
630.1	26344.39
630.294	26610.62
630.489	26397.63
630.683	26753.98
630.877	26389.44
631.071	26473.41
631.265	26508.22
631.459	25938.89
631.653	25811.92
631.848	25517.01
632.042	25734.09
632.236	25930.7
632.43	25510.86
632.624	25711.56
632.818	25504.72
633.012	25664.46
633.206	25023.45
633.4	25566.16
633.594	25023.45
633.788	25193.43
633.982	25172.95
634.176	25043.93
634.369	24818.65
634.563	24706.01
634.757	24460.26
634.951	24628.19
635.145	24474.59
635.339	24757.21
635.533	24120.29
635.726	24308.71
635.92	24110.05
636.114	24224.74
636.308	23806.95
636.501	23677.93
636.695	23628.78
636.889	23657.45
637.083	23510
637.276	23329.78
637.47	23131.12
637.664	23170.04
637.857	23329.78
638.051	22911.99
638.244	22615.04
638.438	22850.55
638.632	22963.19
638.825	22524.93
639.019	22787.07
639.212	22359.04
639.406	22617.08
639.599	22469.63
639.793	22467.58
639.986	21910.53
640.18	22039.56
640.373	22107.14
640.567	21988.36
640.76	21754.89
640.954	21556.24
641.147	21593.1
641.34	21371.92
641.534	21333.01
641.727	21414.93
641.92	21214.23
642.114	20837.4
642.307	21013.52
642.5	21085.2
642.694	20618.27
642.887	20507.68
643.08	21034
643.273	20710.43
643.467	20161.57
643.66	20313.12
643.853	20227.1
644.046	19960.87
644.239	20102.18
644.432	19952.68
644.626	19790.89
644.819	19708.97
645.012	19842.09
645.205	19608.62
645.398	19506.22
645.591	19362.86
645.784	18969.65
645.977	18764.85
646.17	18883.64
646.363	19045.43
646.556	18482.24
646.749	18705.46
646.942	19051.57
647.135	18727.99
647.328	18680.89
647.521	18388.03
647.714	18377.79
647.907	18390.08
648.099	18035.78
648.292	18162.75
648.485	17822.79
648.678	17753.16
648.871	17716.3
649.064	17568.84
649.256	17685.58
649.449	17425.48
649.642	17321.04
649.835	17005.65
650.027	16913.49
650.22	17087.57
650.413	16698.45
650.605	16870.48
650.798	16950.35
650.991	16460.89
651.183	16561.24
651.376	16252
651.568	16272.48
651.761	16591.96
651.954	16069.73
652.146	15875.17
652.339	16215.13
652.531	16045.15
652.724	15887.46
652.916	15664.23
653.109	15768.68
653.301	15719.53
653.494	15477.87
653.686	15156.33
653.879	15158.38
654.071	15035.5
654.263	15142
654.456	15021.17
654.648	15058.03
654.84	14767.22
655.033	14660.73
655.225	14480.5
655.417	14687.35
655.61	14695.54
655.802	14341.24
655.994	14320.76
656.186	14253.18
656.379	13941.89
656.571	13921.41
656.763	13939.84
656.955	13458.57
657.148	13739.14
657.34	13542.53
657.532	13599.88
657.724	13300.87
657.916	13382.79
658.108	13194.38
658.3	13274.25
658.492	13005.97
658.684	12932.24
658.876	13040.78
659.068	12797.07
659.26	12704.92
659.452	12745.87
659.644	12803.22
659.836	12407.96
660.028	12469.4
660.22	12131.48
660.412	12252.31
660.604	12166.3
660.796	12100.76
660.988	12100.76
661.18	11787.43
661.372	11674.79
661.563	11871.39
661.755	11861.15
661.947	11678.88
662.139	11541.67
662.331	11513
662.522	11201.71
662.714	11111.6
662.906	11068.59
663.097	10947.76
663.289	11064.49
663.481	10849.46
663.673	10945.71
663.864	10788.02
664.056	10820.78
664.247	10587.32
664.439	10529.97
664.631	10618.04
664.822	10472.63
665.014	10368.18
665.205	10271.93
665.397	10097.85
665.588	10104
665.78	10144.95
665.971	9966.78
666.163	9972.93
666.354	10028.22
666.546	9823.42
666.737	9596.1
666.929	9753.79
667.12	9698.5
667.311	9538.76
667.503	9592
667.694	9596.1
667.885	9409.73
668.077	9086.15
668.268	9223.37
668.459	9225.42
668.651	9286.86
668.842	9129.16
669.033	9182.41
669.224	8873.17
669.416	9012.43
669.607	8854.73
669.798	8766.67
669.989	8938.7
670.18	8854.73
670.371	8789.2
670.563	8606.93
670.754	8623.31
670.945	8398.04
671.136	8490.2
671.327	8596.69
671.518	8299.73
671.709	8582.35
671.9	8447.19
672.091	8455.38
672.282	8420.56
672.473	8307.93
672.664	8248.54
672.855	8207.58
673.046	8125.66
673.237	8107.23
673.428	8027.35
673.619	7875.81
673.809	7998.68
674	7871.71
674.191	8099.03
674.382	7656.67
674.573	7734.5
674.764	7808.22
674.954	7673.06
675.145	7767.26
675.336	7769.31
675.527	7650.53
675.717	7707.87
675.908	7560.42
676.099	7265.51
676.289	7642.34
676.48	7625.95
676.671	7529.7
676.861	7533.79
677.052	7433.44
677.243	7329
677.433	7458.02
677.624	7486.69
677.814	7308.52
678.005	7343.33
678.195	7369.96
678.386	7220.46
678.576	6986.99
678.767	7216.36
678.957	7083.24
679.148	7150.82
679.338	7175.4
679.529	7116.01
679.719	7040.23
679.909	7181.54
680.1	6974.7
680.29	6876.4
680.481	7029.99
680.671	7120.1
680.861	7032.04
681.052	7126.25
681.242	7015.66
681.432	6788.33
681.622	6782.19
681.813	6700.27
682.003	6837.48
682.193	6814.96
682.383	6743.28
682.573	6616.3
682.764	6739.18
682.954	6716.65
683.144	6708.46
683.334	6642.93
683.524	6659.31
683.714	6728.94
683.904	6581.49
684.094	6728.94
684.284	6571.25
684.474	6829.29
684.664	6431.99
684.854	6649.07
685.044	6575.35
685.234	6505.71
685.424	6606.06
685.614	6481.14
685.804	6520.05
685.994	6669.55
686.184	6550.77
686.374	6532.34
686.564	6503.67
686.753	6442.23
686.943	6407.41
687.133	6571.25
687.323	6378.74
687.513	6448.37
687.702	6411.51
687.892	6327.54
688.082	6151.42
688.272	6395.12
688.461	6294.77
688.651	6581.49
688.841	6223.09
689.03	6186.23
689.22	6208.76
689.41	6429.94
689.599	6200.57
689.789	6206.71
689.979	6292.73
690.168	6057.21
690.358	6225.14
690.547	6186.23
690.737	6202.61
690.926	6130.94
691.116	6118.65
691.305	6233.33
691.495	6044.92
691.684	6323.44
691.874	6096.12
692.063	6192.37
692.252	6073.59
692.442	6104.31
692.631	6100.22
692.82	6055.16
693.01	6130.94
693.199	6120.7
693.388	5936.38
693.578	6182.14
693.767	6071.54
693.956	5946.62
694.146	5942.52
694.335	5975.29
694.524	5850.36
694.713	5860.6
694.902	5987.58
695.092	6110.46
695.281	6042.87
695.47	6057.21
695.659	5733.63
695.848	5999.87
696.037	5952.76
696.226	5862.65
696.415	5833.98
696.604	5848.32
696.793	5872.89
696.982	6010.11
697.171	5741.82
697.36	5821.69
697.549	5856.51
697.738	5797.12
697.927	5729.53
698.116	5715.2
698.305	5852.41
698.494	5840.12
698.683	5772.54
698.872	5995.77
699.061	5709.05
699.25	5735.68
699.438	5817.6
699.627	5754.11
699.816	5967.1
700.005	5768.45
700.193	5674.24
700.382	5762.3
700.571	5637.38
700.76	5731.58
700.948	5704.96
701.137	5758.21
701.326	5741.82
701.514	5784.83
701.703	5733.63
701.892	5659.9
702.08	5727.49
702.269	5534.98
702.457	5666.05
702.646	5674.24
702.834	5641.47
703.023	5653.76
703.212	5602.56
703.4	5549.31
703.589	5543.17
703.777	5606.66
703.965	5356.8
704.154	5547.26
704.342	5514.5
704.531	5463.3
704.719	5483.78
704.907	5606.66
705.096	5283.08
705.284	5469.44
705.472	5453.06
705.661	5373.19
705.849	5537.02
706.037	5457.15
706.226	5389.57
706.414	5379.33
706.602	5328.13
706.79	5457.15
706.979	5270.79
707.167	5250.31
707.355	5192.97
707.543	5405.95
707.731	5223.69
707.919	5156.1
708.107	5115.14
708.296	5250.31
708.484	5135.62
708.672	5180.68
708.86	5008.65
709.048	5227.78
709.236	5152.01
709.424	5287.17
709.612	5324.04
709.8	5143.81
709.988	5070.09
710.176	5209.35
710.364	5096.71
710.551	5141.77
710.739	5059.85
710.927	5154.05
711.115	5037.32
711.303	5119.24
711.491	5172.49
711.679	4994.31
711.866	4936.97
712.054	5031.18
712.242	5076.23
712.43	5061.9
712.617	5031.18
712.805	4762.89
712.993	4867.34
713.181	4814.09
713.368	4877.58
713.556	4986.12
713.744	4746.51
713.931	5016.84
714.119	4775.18
714.306	4967.69
714.494	4836.62
714.682	4836.62
714.869	4695.31
715.057	4853
715.244	4861.2
715.432	4797.71
715.619	4863.24
715.807	4730.13
715.994	4785.42
716.182	4863.24
716.369	4676.88
716.556	4924.68
716.744	4599.06
716.931	4619.53
717.119	4801.8
717.306	4601.1
717.493	4723.98
717.681	4455.7
717.868	4539.66
718.055	4730.13
718.242	4508.94
718.43	4652.3
718.617	4562.19
718.804	4517.14
718.991	4642.06
719.179	4525.33
719.366	4373.78
719.553	4570.38
719.74	4498.7
719.927	4539.66
720.114	4498.7
720.301	4353.3
720.488	4302.1
720.676	4332.82
720.863	4361.49
721.05	4451.6
721.237	4470.03
721.424	4316.44
721.611	4310.29
721.798	4388.11
721.985	4427.03
722.172	4330.77
722.358	4220.18
722.545	4334.87
722.732	4191.51
722.919	4275.48
723.106	4220.18
723.293	4226.32
723.48	4128.02
723.667	4052.25
723.853	4234.52
724.04	4207.89
724.227	4072.73
724.414	4152.6
724.6	4025.62
724.787	4042.01
724.974	4146.45
725.161	3890.46
725.347	3941.66
725.534	4123.93
725.72	4066.58
725.907	4039.96
726.094	4054.3
726.28	3990.81
726.467	3974.42
726.653	3976.47
726.84	3933.47
727.027	4042.01
727.213	3958.04
727.4	3988.76
727.586	3818.78
727.773	3951.9
727.959	3912.99
728.145	3898.65
728.332	3798.3
728.518	3851.55
728.705	3851.55
728.891	3845.4
729.077	3740.96
729.264	3730.72
729.45	3851.55
729.636	3794.2
729.823	3712.28
730.009	3818.78
730.195	3708.19
730.382	3790.11
730.568	3646.75
730.754	3806.49
730.94	3708.19
731.126	3700
731.313	3605.79
731.499	3912.99
731.685	3632.41
731.871	3644.7
732.057	3656.99
732.243	3634.46
732.429	3536.16
732.615	3702.04
732.801	3593.5
732.987	3413.28
733.173	3638.56
733.359	3542.3
733.545	3421.47
733.731	3552.54
733.917	3577.12
734.103	3560.73
734.289	3532.06
734.475	3468.58
734.661	3609.89
734.847	3431.71
735.033	3480.86
735.219	3423.52
735.404	3478.82
735.59	3441.95
735.776	3435.81
735.962	3341.6
736.148	3521.82
736.333	3605.79
736.519	3536.16
736.705	3319.07
736.89	3292.45
737.076	3243.3
737.262	3251.49
737.447	3329.31
737.633	3188
737.819	3257.64
738.004	3138.85
738.19	3204.39
738.375	3120.42
738.561	3312.93
738.747	3097.89
738.932	3196.2
739.118	3204.39
739.303	3132.71
739.489	3155.24
739.674	3063.08
739.859	2993.45
740.045	3063.08
740.23	3093.8
740.416	2952.49
740.601	3046.69
740.786	3013.93
740.972	3001.64
741.157	2968.87
741.342	2876.71
741.528	2983.21
741.713	3067.17
741.898	2999.59
742.084	3005.74
742.269	3022.12
742.454	2882.86
742.639	2972.97
742.824	2819.37
743.01	2915.62
743.195	2929.96
743.38	2743.6
743.565	2819.37
743.75	2755.88
743.935	2815.27
744.12	2876.71
744.305	2757.93
744.49	2788.65
744.675	2700.59
744.86	2694.44
745.045	2633.01
745.23	2739.5
745.415	2686.25
745.6	2651.44
745.785	2594.09
745.97	2743.6
746.155	2686.25
746.34	2673.96
746.525	2647.34
746.71	2604.33
746.895	2626.86
747.079	2610.48
747.264	2563.37
747.449	2465.07
747.634	2489.65
747.819	2563.37
748.003	2508.08
748.188	2272.56
748.373	2440.5
748.557	2344.24
748.742	2405.68
748.927	2405.68
749.111	2342.19
749.296	2319.67
749.481	2438.45
749.665	2391.34
749.85	2090.29
750.034	2323.76
750.219	2327.86
750.404	2260.27
750.588	2262.32
750.773	2254.13
750.957	2247.99
751.141	2211.12
751.326	2252.08
751.51	2151.73
751.695	2172.21
751.879	2059.57
752.064	2168.12
752.248	2090.29
752.432	2266.42
752.617	2043.19
752.801	2127.16
752.985	2073.91
753.17	2106.68
753.354	2043.19
753.538	2137.4
753.722	2061.62
753.907	1951.03
754.091	2024.76
754.275	1926.46
754.459	2071.86
754.643	1971.51
754.828	1854.78
755.012	1994.04
755.196	1951.03
755.38	1883.45
755.564	1977.66
755.748	1826.11
755.932	1875.26
756.116	1811.77
756.3	1836.35
756.484	1856.83
756.668	1832.25
756.852	1629.5
757.036	1850.68
757.22	1852.73
757.404	1723.71
757.588	1844.54
757.772	1809.72
757.956	1795.39
758.14	1690.94
758.323	1598.78
758.507	1735.99
758.691	1619.26
758.875	1615.16
759.059	1680.7
759.242	1721.66
759.426	1692.99
759.61	1611.07
759.794	1609.02
759.977	1729.85
760.161	1621.31
760.345	1615.16
760.528	1713.47
760.712	1721.66
760.895	1553.73
761.079	1529.15
761.263	1488.19
761.446	1451.33
761.63	1426.75
761.813	1580.35
761.997	1488.19
762.18	1523.01
762.364	1566.01
762.547	1457.47
762.731	1475.9
762.914	1506.62
763.098	1459.52
763.281	1473.85
763.464	1527.1
763.648	1494.33
763.831	1361.22
764.015	1369.41
764.198	1492.29
764.381	1412.42
764.564	1414.46
764.748	1418.56
764.931	1406.27
765.114	1375.55
765.297	1508.67
765.481	1385.79
765.664	1283.39
765.847	1279.3
766.03	1373.5
766.213	1365.31
766.397	1350.98
766.58	1344.83
766.763	1322.31
766.946	1383.74
767.129	1455.42
767.312	1328.45
767.495	1312.07
767.678	1232.19
767.861	1353.02
768.044	1283.39
768.227	1350.98
768.41	1334.59
768.593	1344.83
768.776	1303.87
768.959	1299.78
769.142	1322.31
769.324	1277.25
769.507	1383.74
769.69	1250.63
769.873	1197.38
770.056	1393.98
770.239	1199.43
770.421	1310.02
770.604	1242.43
770.787	1228.1
770.97	1295.68
771.152	1170.76
771.335	1324.35
771.518	1230.15
771.7	1318.21
771.883	1281.35
772.066	1228.1
772.248	1183.04
772.431	1293.63
772.613	1224
772.796	1269.06
772.978	1172.8
773.161	1264.96
773.343	1074.5
773.526	1205.57
773.708	1117.51
773.891	1070.4
774.073	1226.05
774.256	1117.51
774.438	1254.72
774.621	1221.95
774.803	1111.36
774.985	1111.36
775.168	1146.18
775.35	1088.84
775.532	1121.6
775.715	1068.36
775.897	1066.31
776.079	1166.66
776.261	1068.36
776.444	1088.84
776.626	1086.79
776.808	1019.21
776.99	920.9
777.173	1037.64
777.355	1054.02
777.537	1025.35
777.719	986.44
777.901	947.53
778.083	1086.79
778.265	894.28
778.447	1033.54
778.629	943.43
778.811	925
778.993	1025.35
779.175	1066.31
779.357	949.57
779.539	937.29
779.721	984.39
779.903	1015.11
780.085	935.24
780.267	1000.77
780.449	906.57
780.631	931.14
780.812	963.91
780.994	881.99
781.176	931.14
781.358	884.04
781.54	826.7
781.721	986.44
781.903	845.13
782.085	898.38
782.267	849.22
782.448	718.15
782.63	818.5
782.812	716.11
782.993	836.94
783.175	879.94
783.357	804.17
783.538	873.8
783.72	701.77
783.901	804.17
784.083	742.73
784.264	789.83
784.446	769.35
784.627	679.24
784.809	779.59
784.99	771.4
785.172	802.12
785.353	738.63
785.535	716.11
785.716	738.63
785.897	707.91
786.079	675.15
786.26	709.96
786.441	683.34
786.623	709.96
786.804	691.53
786.985	683.34
787.167	636.24
787.348	689.48
787.529	683.34
787.71	726.35
787.891	662.86
788.073	535.89
788.254	664.91
788.435	654.67
788.616	570.7
788.797	521.55
788.978	634.19
789.159	671.05
789.34	642.38
789.522	572.75
789.703	626
789.884	599.37
790.065	697.67
790.246	646.48
790.427	650.57
790.607	615.76
790.788	554.32
790.969	570.7
791.15	527.69
791.331	550.22
791.512	539.98
791.693	533.84
791.874	582.99
792.054	654.67
792.235	572.75
792.416	462.16
792.597	490.83
792.778	552.27
792.958	535.89
793.139	587.08
793.32	511.31
793.5	492.88
793.681	580.94
793.862	578.89
794.042	527.69
794.223	474.45
794.404	505.17
794.584	376.14
794.765	417.1
794.945	556.36
795.126	488.78
795.306	589.13
795.487	488.78
795.667	429.39
795.848	451.92
796.028	441.68
796.209	537.93
796.389	511.31
796.57	449.87
796.75	449.87
796.93	476.49
797.111	425.29
797.291	435.53
797.471	480.59
797.652	494.93
797.832	425.29
798.012	488.78
798.192	341.33
798.373	421.2
798.553	419.15
798.733	419.15
798.913	466.25
799.093	429.39
799.274	345.42
799.454	488.78
799.634	425.29
799.814	390.48
799.994	380.24
800.174	404.82
800.354	402.77
800.534	398.67
800.714	406.86
800.894	277.84
801.074	343.38
801.254	386.38
801.434	521.55
801.614	382.29
801.794	290.13
801.974	1250.63
802.154	370
802.334	410.96
802.514	312.66
802.693	357.71
802.873	277.84
803.053	351.57
803.233	357.71
803.413	367.95
803.592	281.94
803.772	324.94
803.952	341.33
804.131	370
804.311	386.38
804.491	355.66
804.67	343.38
804.85	283.98
805.03	247.12
805.209	318.8
805.389	269.65
805.568	335.18
805.748	281.94
805.928	310.61
806.107	355.66
806.287	286.03
806.466	314.7
806.646	343.38
806.825	306.51
807.004	294.22
807.184	337.23
807.363	281.94
807.543	294.22
807.722	283.98
807.901	326.99
808.081	329.04
808.26	120.15
808.439	347.47
808.619	384.34
808.798	144.72
808.977	247.12
809.156	281.94
809.336	322.9
809.515	320.85
809.694	273.75
809.873	230.74
810.052	298.32
810.231	353.62
810.411	283.98
810.59	329.04
810.769	300.37
810.948	261.46
811.127	187.73
811.306	286.03
811.485	234.83
811.664	333.14
811.843	234.83
812.022	236.88
812.201	273.75
812.38	286.03
812.559	204.11
812.737	288.08
812.916	255.31
813.095	220.5
813.274	292.18
813.453	261.46
813.632	185.68
813.811	208.21
813.989	214.35
814.168	177.49
814.347	240.98
814.526	240.98
814.704	326.99
814.883	312.66
815.062	224.59
815.24	202.07
815.419	154.96
815.598	206.16
815.776	230.74
815.955	271.7
816.133	144.72
816.312	220.5
816.49	167.25
816.669	191.83
816.847	191.83
817.026	183.63
817.204	245.07
817.383	159.06
817.561	175.44
817.74	288.08
817.918	259.41
818.097	154.96
818.275	169.3
818.453	234.83
818.632	249.17
818.81	169.3
818.988	85.33
819.167	134.48
819.345	212.31
819.523	222.55
819.701	212.31
819.879	240.98
820.058	142.68
820.236	134.48
820.414	255.31
820.592	144.72
820.77	210.26
820.948	50.52
821.127	163.15
821.305	144.72
821.483	93.52
821.661	165.2
821.839	169.3
822.017	118.1
822.195	157.01
822.373	271.7
822.551	165.2
822.729	159.06
822.907	118.1
823.085	240.98
823.262	195.92
823.44	140.63
823.618	238.93
823.796	165.2
823.974	210.26
824.152	150.87
824.329	191.83
824.507	157.01
824.685	130.39
824.863	116.05
825.04	169.3
825.218	181.59
825.396	136.53
825.574	144.72
825.751	146.77
825.929	197.97
826.107	126.29
826.284	138.58
826.462	130.39
826.639	144.72
826.817	66.9
826.994	103.76
827.172	144.72
827.349	269.65
827.527	103.76
827.704	152.91
827.882	204.11
828.059	157.01
828.237	183.63
828.414	120.15
828.591	95.57
828.769	146.77
828.946	83.28
829.124	183.63
829.301	240.98
829.478	89.43
829.655	193.87
829.833	144.72
830.01	44.37
830.187	132.44
830.364	202.07
830.542	146.77
830.719	154.96
830.896	173.39
831.073	101.72
831.25	214.35
831.427	175.44
831.604	124.24
831.782	89.43
831.959	109.91
832.136	79.19
832.313	97.62
832.49	91.48
832.667	189.78
832.844	95.57
833.021	179.54
833.198	109.91
833.374	103.76
833.551	146.77
833.728	93.52
833.905	197.97
834.082	-0.68
834.259	46.42
834.436	191.83
834.612	126.29
834.789	212.31
834.966	25.94
835.143	116.05
835.319	38.23
835.496	120.15
835.673	107.86
835.85	140.63
836.026	128.34
836.203	165.2
836.38	105.81
836.556	91.48
836.733	114
836.909	247.12
837.086	54.61
837.262	77.14
837.439	64.85
837.616	58.71
837.792	83.28
837.968	68.95
838.145	54.61
838.321	103.76
838.498	132.44
838.674	169.3
838.851	89.43
839.027	89.43
839.203	85.33
839.38	107.86
839.556	140.63
839.732	122.2
839.909	77.14
840.085	111.96
840.261	81.24
840.437	60.76
840.614	101.72
840.79	214.35
840.966	101.72
841.142	36.18
841.318	122.2
841.494	44.37
841.671	191.83
841.847	56.66
842.023	-12.97
842.199	181.59
842.375	175.44
842.551	19.8
842.727	73.04
842.903	171.35
843.079	-33.45
843.255	105.81
843.431	89.43
843.607	111.96
843.783	-2.73
843.959	130.39
844.134	36.18
844.31	157.01
844.486	-33.45
844.662	81.24
844.838	126.29
845.013	91.48
845.189	173.39
845.365	-0.68
845.541	52.56
845.716	140.63
845.892	138.58
846.068	79.19
846.244	56.66
846.419	89.43
846.595	62.8
846.77	111.96
846.946	126.29
847.122	56.66
847.297	68.95
847.473	134.48
847.648	15.7
847.824	81.24
847.999	-49.83
848.175	21.85
848.35	52.56
848.526	157.01
848.701	95.57
848.876	107.86
849.052	114
849.227	81.24
849.403	48.47
849.578	44.37
849.753	132.44
849.929	85.33
850.104	68.95
850.279	81.24
850.454	136.53
850.63	85.33
850.805	23.89
850.98	38.23
851.155	109.91
851.33	-4.78
851.505	-15.02
851.681	224.59
851.856	54.61
852.031	152.91
852.206	42.32
852.381	27.99
852.556	52.56
852.731	136.53
852.906	62.8
853.081	60.76
853.256	66.9
853.431	122.2
853.606	77.14
853.781	109.91
853.956	13.65
854.131	17.75
854.305	36.18
854.48	73.04
854.655	-15.02
854.83	34.13
855.005	136.53
855.18	165.2
855.354	19.8
855.529	52.56
855.704	17.75
855.879	85.33
856.053	95.57
856.228	95.57
856.403	3.41
856.577	79.19
856.752	-23.21
856.926	-15.02
857.101	21.85
857.276	3.41
857.45	52.56
857.625	-8.87
857.799	75.09
857.974	1.37
858.148	64.85
858.323	75.09
858.497	50.52
858.672	60.76
858.846	-17.07
859.02	79.19
859.195	-51.88
859.369	27.99
859.543	64.85
859.718	136.53
859.892	64.85
860.066	50.52
860.241	50.52
860.415	50.52
860.589	93.52
860.763	50.52
860.938	25.94
861.112	114
861.286	27.99
861.46	101.72
861.634	56.66
861.808	85.33
861.982	13.65
862.157	-6.83
862.331	32.08
862.505	-29.35
862.679	-8.87
862.853	-12.97
863.027	11.61
863.201	87.38
863.375	25.94
863.549	81.24
863.722	36.18
863.896	83.28
864.07	3.41
864.244	-8.87
864.418	56.66
864.592	60.76
864.766	13.65
864.939	1.37
865.113	-2.73
865.287	91.48
865.461	-17.07
865.634	144.72
865.808	56.66
865.982	13.65
866.156	42.32
866.329	36.18
866.503	40.28
866.676	34.13
866.85	71
867.024	9.56
867.197	111.96
867.371	91.48
867.544	-4.78
867.718	54.61
867.891	140.63
868.065	46.42
868.238	27.99
868.412	95.57
868.585	48.47
868.759	15.7
868.932	-2.73
869.105	7.51
869.279	19.8
869.452	-2.73
869.625	64.85
869.799	124.24
869.972	-55.98
870.145	50.52
870.319	73.04
870.492	23.89
870.665	3.41
870.838	68.95
871.011	-23.21
871.185	-23.21
871.358	40.28
871.531	83.28
871.704	-31.4
871.877	52.56
872.05	27.99
872.223	7.51
872.396	-12.97
872.569	64.85
872.742	3.41
872.915	-2.73
873.088	-47.79
873.261	-51.88
873.434	25.94
873.607	32.08
873.78	128.34
873.953	-60.07
874.126	99.67
874.299	136.53
874.471	5.46
874.644	-4.78
874.817	83.28
874.99	173.39
875.163	11.61
875.335	-27.31
875.508	-8.87
875.681	56.66
875.853	34.13
876.026	66.9
876.199	161.11
876.371	-21.16
876.544	46.42
876.717	17.75
876.889	38.23
877.062	62.8
877.234	-31.4
877.407	-6.83
877.579	101.72
877.752	40.28
877.924	1.37
878.097	81.24
878.269	50.52
878.442	58.71
878.614	62.8
878.786	32.08
878.959	-15.02
879.131	81.24
879.303	-62.12
879.476	15.7
879.648	54.61
879.82	95.57
879.993	19.8
880.165	9.56
880.337	-27.31
880.509	48.47
880.681	-17.07
880.854	21.85
881.026	44.37
881.198	85.33
881.37	50.52
881.542	54.61
881.714	27.99
881.886	25.94
882.058	85.33
882.23	44.37
882.402	30.04
882.574	34.13
882.746	30.04
882.918	83.28
883.09	91.48
883.262	7.51
883.434	58.71
883.606	-31.4
883.778	13.65
883.95	64.85
884.122	-35.5
884.293	13.65
884.465	42.32
884.637	-2.73
884.809	-8.87
884.98	38.23
885.152	46.42
885.324	81.24
885.496	3.41
885.667	54.61
885.839	52.56
886.011	109.91
886.182	15.7
886.354	118.1
886.525	34.13
886.697	68.95
886.869	36.18
887.04	17.75
887.212	97.62
887.383	66.9
887.555	52.56
887.726	-6.83
887.897	-10.92
888.069	71
888.24	97.62
888.412	21.85
888.583	-25.26
888.754	34.13
888.926	-29.35
889.097	-17.07
889.268	-45.74
889.44	-58.03
889.611	-47.79
889.782	-53.93
889.953	-19.11
890.125	50.52
890.296	-23.21
890.467	23.89
890.638	-25.26
890.809	83.28
890.98	-25.26
891.151	-2.73
891.323	103.76
891.494	27.99
891.665	17.75
891.836	40.28
892.007	7.51
892.178	21.85
892.349	3.41
892.52	83.28
892.691	21.85
892.862	34.13
893.032	15.7
893.203	-12.97
893.374	-2.73
893.545	79.19
893.716	15.7
893.887	27.99
894.057	-55.98
894.228	56.66
894.399	-4.78
894.57	21.85
894.74	15.7
894.911	3.41
895.082	-35.5
895.253	-8.87
895.423	83.28
895.594	73.04
895.764	9.56
895.935	-37.55
896.106	30.04
896.276	13.65
896.447	-86.7
896.617	-45.74
896.788	-37.55
896.958	-35.5
897.129	71
897.299	1.37
897.47	62.8
897.64	-23.21
897.81	-45.74
897.981	111.96
898.151	13.65
898.322	91.48
898.492	23.89
898.662	-19.11
898.832	-21.16
899.003	-25.26
899.173	-2.73
899.343	7.51
899.513	-17.07
