Data from USB4F104151__86__12-13-00-451.txt Node

Date: Fri Mar 14 12:13:00 EDT 2025
User: louis
Spectrometer: USB4F10415
Trigger mode: 4
Integration Time (sec): 5.000000E-2
Scans to average: 1
Electric dark correction enabled: true
Nonlinearity correction enabled: false
Boxcar width: 0
XAxis mode: Wavelengths
Number of Pixels in Spectrum: 3648
>>>>>Begin Spectral Data<<<<<
178.204	-223.91
178.424	-223.91
178.644	-223.91
178.864	-203.43
179.084	-215.72
179.304	11.61
179.524	-64.17
179.744	46.42
179.964	15.7
180.184	58.71
180.404	21.85
180.624	-62.12
180.844	-66.22
181.064	-41.64
181.283	13.65
181.503	44.37
181.723	21.85
181.943	-141.99
182.163	132.44
182.383	-15.02
182.602	87.38
182.822	71
183.042	7.51
183.262	-53.93
183.482	9.56
183.701	25.94
183.921	30.04
184.141	38.23
184.361	107.86
184.58	32.08
184.8	5.46
185.02	-51.88
185.239	48.47
185.459	13.65
185.679	42.32
185.898	-12.97
186.118	44.37
186.338	-2.73
186.557	130.39
186.777	-45.74
186.997	-72.36
187.216	-15.02
187.436	132.44
187.655	34.13
187.875	19.8
188.095	23.89
188.314	38.23
188.534	71
188.753	75.09
188.973	175.44
189.192	97.62
189.412	46.42
189.631	85.33
189.851	-37.55
190.07	54.61
190.29	7.51
190.509	-2.73
190.729	38.23
190.948	46.42
191.168	226.64
191.387	-12.97
191.607	23.89
191.826	68.95
192.045	48.47
192.265	66.9
192.484	-6.83
192.704	71
192.923	-29.35
193.142	97.62
193.362	79.19
193.581	48.47
193.8	11.61
194.02	114
194.239	46.42
194.458	38.23
194.678	-0.68
194.897	13.65
195.116	50.52
195.335	-2.73
195.555	13.65
195.774	-25.26
195.993	148.82
196.212	68.95
196.432	-4.78
196.651	-25.26
196.87	-55.98
197.089	130.39
197.308	-10.92
197.528	27.99
197.747	-10.92
197.966	9.56
198.185	163.15
198.404	-45.74
198.623	-21.16
198.842	89.43
199.062	60.76
199.281	68.95
199.5	30.04
199.719	-15.02
199.938	89.43
200.157	58.71
200.376	107.86
200.595	83.28
200.814	34.13
201.033	-29.35
201.252	25.94
201.471	-25.26
201.69	60.76
201.909	77.14
202.128	54.61
202.347	3.41
202.566	27.99
202.785	-8.87
203.004	-10.92
203.223	58.71
203.442	13.65
203.661	58.71
203.879	15.7
204.098	36.18
204.317	17.75
204.536	52.56
204.755	30.04
204.974	42.32
205.193	36.18
205.411	157.01
205.63	42.32
205.849	11.61
206.068	-0.68
206.287	-12.97
206.505	42.32
206.724	87.38
206.943	3.41
207.162	79.19
207.381	9.56
207.599	54.61
207.818	44.37
208.037	23.89
208.255	-23.21
208.474	23.89
208.693	71
208.911	107.86
209.13	101.72
209.349	46.42
209.567	97.62
209.786	124.24
210.005	124.24
210.223	-25.26
210.442	-64.17
210.661	-21.16
210.879	-10.92
211.098	42.32
211.316	83.28
211.535	75.09
211.753	-10.92
211.972	99.67
212.191	54.61
212.409	7.51
212.628	34.13
212.846	40.28
213.065	85.33
213.283	68.95
213.502	-4.78
213.72	54.61
213.938	-17.07
214.157	-35.5
214.375	85.33
214.594	15.7
214.812	66.9
215.031	-39.59
215.249	40.28
215.467	91.48
215.686	17.75
215.904	111.96
216.122	52.56
216.341	50.52
216.559	38.23
216.778	15.7
216.996	140.63
217.214	-60.07
217.432	50.52
217.651	-0.68
217.869	21.85
218.087	81.24
218.306	15.7
218.524	62.8
218.742	-17.07
218.96	19.8
219.179	-12.97
219.397	71
219.615	79.19
219.833	77.14
220.051	105.81
220.27	111.96
220.488	105.81
220.706	23.89
220.924	-10.92
221.142	7.51
221.36	58.71
221.578	89.43
221.796	48.47
222.015	68.95
222.233	-6.83
222.451	136.53
222.669	9.56
222.887	87.38
223.105	-60.07
223.323	-0.68
223.541	5.46
223.759	64.85
223.977	5.46
224.195	85.33
224.413	116.05
224.631	91.48
224.849	-0.68
225.067	107.86
225.285	-41.64
225.503	42.32
225.721	-96.94
225.939	19.8
226.157	48.47
226.375	146.77
226.592	-62.12
226.81	-4.78
227.028	146.77
227.246	161.11
227.464	-10.92
227.682	50.52
227.9	101.72
228.117	85.33
228.335	85.33
228.553	-17.07
228.771	79.19
228.989	56.66
229.206	34.13
229.424	5.46
229.642	13.65
229.86	30.04
230.077	32.08
230.295	7.51
230.513	91.48
230.731	-29.35
230.948	-8.87
231.166	34.13
231.384	19.8
231.601	-6.83
231.819	42.32
232.037	42.32
232.254	-19.11
232.472	-92.84
232.689	11.61
232.907	73.04
233.125	62.8
233.342	-33.45
233.56	-4.78
233.777	-29.35
233.995	36.18
234.213	44.37
234.43	36.18
234.648	3.41
234.865	-47.79
235.083	68.95
235.3	77.14
235.518	-23.21
235.735	109.91
235.953	56.66
236.17	13.65
236.388	34.13
236.605	73.04
236.822	1.37
237.04	56.66
237.257	85.33
237.475	-12.97
237.692	-23.21
237.909	40.28
238.127	-49.83
238.344	44.37
238.562	23.89
238.779	5.46
238.996	38.23
239.214	58.71
239.431	87.38
239.648	32.08
239.865	87.38
240.083	17.75
240.3	-31.4
240.517	-47.79
240.735	30.04
240.952	48.47
241.169	79.19
241.386	48.47
241.603	50.52
241.821	-31.4
242.038	87.38
242.255	56.66
242.472	-8.87
242.689	-6.83
242.907	54.61
243.124	19.8
243.341	54.61
243.558	5.46
243.775	-10.92
243.992	-4.78
244.209	83.28
244.426	109.91
244.643	-35.5
244.86	-23.21
245.078	114
245.295	27.99
245.512	75.09
245.729	-12.97
245.946	32.08
246.163	111.96
246.38	48.47
246.597	30.04
246.814	36.18
247.031	46.42
247.248	7.51
247.464	-19.11
247.681	44.37
247.898	81.24
248.115	101.72
248.332	-29.35
248.549	56.66
248.766	132.44
248.983	128.34
249.2	15.7
249.417	118.1
249.633	-23.21
249.85	99.67
250.067	-17.07
250.284	75.09
250.501	7.51
250.717	44.37
250.934	38.23
251.151	19.8
251.368	44.37
251.585	64.85
251.801	44.37
252.018	-49.83
252.235	48.47
252.451	19.8
252.668	54.61
252.885	-17.07
253.102	48.47
253.318	15.7
253.535	103.76
253.752	42.32
253.968	60.76
254.185	-49.83
254.401	68.95
254.618	23.89
254.835	46.42
255.051	40.28
255.268	-35.5
255.484	-2.73
255.701	23.89
255.917	-2.73
256.134	-10.92
256.351	-21.16
256.567	-49.83
256.784	-25.26
257	54.61
257.217	25.94
257.433	36.18
257.65	44.37
257.866	38.23
258.082	-43.69
258.299	-78.51
258.515	-4.78
258.732	-0.68
258.948	9.56
259.165	5.46
259.381	-17.07
259.597	77.14
259.814	-4.78
260.03	30.04
260.246	-6.83
260.463	36.18
260.679	-4.78
260.895	-51.88
261.112	30.04
261.328	-8.87
261.544	-0.68
261.761	85.33
261.977	42.32
262.193	75.09
262.409	13.65
262.626	11.61
262.842	134.48
263.058	13.65
263.274	25.94
263.49	17.75
263.707	46.42
263.923	17.75
264.139	-70.31
264.355	52.56
264.571	50.52
264.787	27.99
265.004	52.56
265.22	-27.31
265.436	7.51
265.652	21.85
265.868	-29.35
266.084	-19.11
266.3	-6.83
266.516	44.37
266.732	50.52
266.948	32.08
267.164	64.85
267.38	54.61
267.596	122.2
267.812	173.39
268.028	44.37
268.244	-39.59
268.46	52.56
268.676	30.04
268.892	64.85
269.108	25.94
269.324	-2.73
269.54	23.89
269.756	81.24
269.972	-39.59
270.188	9.56
270.403	-29.35
270.619	19.8
270.835	71
271.051	50.52
271.267	19.8
271.483	-6.83
271.698	23.89
271.914	13.65
272.13	38.23
272.346	13.65
272.562	25.94
272.777	89.43
272.993	21.85
273.209	91.48
273.425	36.18
273.64	7.51
273.856	5.46
274.072	50.52
274.287	9.56
274.503	87.38
274.719	7.51
274.934	-19.11
275.15	19.8
275.366	17.75
275.581	-31.4
275.797	-6.83
276.012	-4.78
276.228	-21.16
276.444	27.99
276.659	68.95
276.875	-53.93
277.09	13.65
277.306	-35.5
277.521	64.85
277.737	64.85
277.952	52.56
278.168	46.42
278.383	54.61
278.599	23.89
278.814	-19.11
279.03	66.9
279.245	38.23
279.461	36.18
279.676	27.99
279.892	44.37
280.107	-2.73
280.322	17.75
280.538	42.32
280.753	9.56
280.969	27.99
281.184	32.08
281.399	81.24
281.615	91.48
281.83	-2.73
282.045	-94.89
282.26	-27.31
282.476	44.37
282.691	111.96
282.906	23.89
283.122	91.48
283.337	23.89
283.552	15.7
283.767	-84.65
283.983	126.29
284.198	40.28
284.413	40.28
284.628	-41.64
284.843	1.37
285.058	48.47
285.274	85.33
285.489	7.51
285.704	105.81
285.919	-47.79
286.134	3.41
286.349	77.14
286.564	-55.98
286.779	62.8
286.995	9.56
287.21	-35.5
287.425	60.76
287.64	-74.41
287.855	34.13
288.07	-49.83
288.285	40.28
288.5	107.86
288.715	103.76
288.93	19.8
289.145	-27.31
289.36	-8.87
289.575	68.95
289.79	62.8
290.004	21.85
290.219	23.89
290.434	-4.78
290.649	-31.4
290.864	52.56
291.079	30.04
291.294	38.23
291.509	68.95
291.724	34.13
291.938	46.42
292.153	52.56
292.368	79.19
292.583	54.61
292.798	91.48
293.012	-12.97
293.227	62.8
293.442	-21.16
293.657	56.66
293.871	95.57
294.086	-0.68
294.301	142.68
294.516	148.82
294.73	34.13
294.945	-27.31
295.16	46.42
295.374	52.56
295.589	73.04
295.804	11.61
296.018	27.99
296.233	77.14
296.447	140.63
296.662	-4.78
296.877	50.52
297.091	122.2
297.306	34.13
297.52	44.37
297.735	23.89
297.949	-35.5
298.164	38.23
298.378	56.66
298.593	9.56
298.807	-55.98
299.022	83.28
299.236	97.62
299.451	13.65
299.665	64.85
299.88	11.61
300.094	56.66
300.309	58.71
300.523	118.1
300.737	-8.87
300.952	-29.35
301.166	87.38
301.381	36.18
301.595	-31.4
301.809	71
302.024	27.99
302.238	-17.07
302.452	116.05
302.667	85.33
302.881	83.28
303.095	105.81
303.309	34.13
303.524	5.46
303.738	48.47
303.952	-76.46
304.166	99.67
304.381	-47.79
304.595	120.15
304.809	-41.64
305.023	62.8
305.237	-12.97
305.452	17.75
305.666	1.37
305.88	32.08
306.094	91.48
306.308	75.09
306.522	66.9
306.736	27.99
306.95	48.47
307.164	11.61
307.379	79.19
307.593	105.81
307.807	25.94
308.021	75.09
308.235	15.7
308.449	-29.35
308.663	85.33
308.877	83.28
309.091	68.95
309.305	81.24
309.519	27.99
309.733	64.85
309.947	-39.59
310.161	73.04
310.374	58.71
310.588	-2.73
310.802	-66.22
311.016	-21.16
311.23	111.96
311.444	17.75
311.658	-43.69
311.872	81.24
312.085	97.62
312.299	79.19
312.513	-2.73
312.727	30.04
312.941	66.9
313.154	136.53
313.368	107.86
313.582	3.41
313.796	52.56
314.009	54.61
314.223	83.28
314.437	68.95
314.651	89.43
314.864	-70.31
315.078	-41.64
315.292	19.8
315.505	5.46
315.719	48.47
315.933	-6.83
316.146	-12.97
316.36	-45.74
316.573	-29.35
316.787	3.41
317.001	27.99
317.214	15.7
317.428	140.63
317.641	9.56
317.855	-74.41
318.068	25.94
318.282	-6.83
318.495	87.38
318.709	9.56
318.922	5.46
319.136	124.24
319.349	62.8
319.563	73.04
319.776	60.76
319.99	-17.07
320.203	68.95
320.417	21.85
320.63	21.85
320.843	163.15
321.057	56.66
321.27	118.1
321.483	103.76
321.697	40.28
321.91	11.61
322.124	44.37
322.337	21.85
322.55	-4.78
322.763	23.89
322.977	17.75
323.19	-10.92
323.403	77.14
323.617	54.61
323.83	44.37
324.043	-29.35
324.256	68.95
324.469	-53.93
324.683	136.53
324.896	-12.97
325.109	17.75
325.322	-29.35
325.535	68.95
325.748	107.86
325.962	36.18
326.175	89.43
326.388	36.18
326.601	75.09
326.814	46.42
327.027	15.7
327.24	93.52
327.453	-29.35
327.666	11.61
327.879	95.57
328.092	23.89
328.305	13.65
328.518	-15.02
328.731	9.56
328.944	79.19
329.157	19.8
329.37	-47.79
329.583	124.24
329.796	159.06
330.009	-6.83
330.222	32.08
330.435	75.09
330.648	3.41
330.861	-29.35
331.073	50.52
331.286	83.28
331.499	9.56
331.712	-23.21
331.925	105.81
332.138	62.8
332.35	46.42
332.563	-15.02
332.776	52.56
332.989	30.04
333.202	54.61
333.414	21.85
333.627	52.56
333.84	-8.87
334.053	30.04
334.265	-6.83
334.478	62.8
334.691	64.85
334.903	-25.26
335.116	75.09
335.329	-27.31
335.541	64.85
335.754	169.3
335.966	21.85
336.179	23.89
336.392	17.75
336.604	48.47
336.817	11.61
337.029	21.85
337.242	-15.02
337.454	89.43
337.667	-33.45
337.88	-10.92
338.092	48.47
338.305	34.13
338.517	34.13
338.729	79.19
338.942	40.28
339.154	-19.11
339.367	44.37
339.579	81.24
339.792	15.7
340.004	23.89
340.217	-19.11
340.429	-23.21
340.641	23.89
340.854	-49.83
341.066	30.04
341.278	105.81
341.491	109.91
341.703	32.08
341.915	5.46
342.128	38.23
342.34	62.8
342.552	-8.87
342.764	-64.17
342.977	1.37
343.189	62.8
343.401	36.18
343.613	-33.45
343.826	30.04
344.038	-8.87
344.25	54.61
344.462	-8.87
344.674	19.8
344.886	68.95
345.099	44.37
345.311	83.28
345.523	40.28
345.735	-8.87
345.947	89.43
346.159	173.39
346.371	101.72
346.583	7.51
346.795	118.1
347.007	15.7
347.219	9.56
347.431	11.61
347.643	165.2
347.855	27.99
348.067	99.67
348.279	27.99
348.491	9.56
348.703	46.42
348.915	30.04
349.127	17.75
349.339	15.7
349.551	-47.79
349.763	64.85
349.975	11.61
350.187	87.38
350.399	66.9
350.61	73.04
350.822	-19.11
351.034	118.1
351.246	48.47
351.458	40.28
351.669	40.28
351.881	36.18
352.093	77.14
352.305	85.33
352.517	44.37
352.728	105.81
352.94	93.52
353.152	38.23
353.363	-51.88
353.575	3.41
353.787	87.38
353.999	75.09
354.21	124.24
354.422	-21.16
354.633	9.56
354.845	-21.16
355.057	109.91
355.268	79.19
355.48	11.61
355.692	32.08
355.903	97.62
356.115	25.94
356.326	-8.87
356.538	60.76
356.749	9.56
356.961	91.48
357.172	15.7
357.384	40.28
357.595	128.34
357.807	17.75
358.018	27.99
358.23	54.61
358.441	118.1
358.653	56.66
358.864	99.67
359.075	-10.92
359.287	36.18
359.498	46.42
359.709	85.33
359.921	34.13
360.132	17.75
360.344	-41.64
360.555	38.23
360.766	66.9
360.977	15.7
361.189	95.57
361.4	-33.45
361.611	71
361.823	87.38
362.034	64.85
362.245	60.76
362.456	42.32
362.667	101.72
362.879	17.75
363.09	109.91
363.301	42.32
363.512	68.95
363.723	68.95
363.935	-21.16
364.146	30.04
364.357	-17.07
364.568	120.15
364.779	-12.97
364.99	93.52
365.201	-6.83
365.412	27.99
365.623	13.65
365.834	50.52
366.045	64.85
366.256	54.61
366.467	54.61
366.678	75.09
366.889	50.52
367.1	42.32
367.311	68.95
367.522	-17.07
367.733	40.28
367.944	48.47
368.155	32.08
368.366	50.52
368.577	111.96
368.788	130.39
368.999	-17.07
369.209	81.24
369.42	159.06
369.631	148.82
369.842	62.8
370.053	66.9
370.264	71
370.474	-23.21
370.685	-31.4
370.896	34.13
371.107	111.96
371.317	89.43
371.528	-21.16
371.739	152.91
371.95	25.94
372.16	42.32
372.371	-29.35
372.582	17.75
372.792	124.24
373.003	58.71
373.214	109.91
373.424	25.94
373.635	81.24
373.846	136.53
374.056	77.14
374.267	-4.78
374.477	25.94
374.688	17.75
374.898	79.19
375.109	132.44
375.319	13.65
375.53	91.48
375.74	62.8
375.951	-6.83
376.161	83.28
376.372	95.57
376.582	48.47
376.793	9.56
377.003	13.65
377.214	-15.02
377.424	60.76
377.635	46.42
377.845	-43.69
378.055	150.87
378.266	-0.68
378.476	-45.74
378.686	42.32
378.897	44.37
379.107	95.57
379.317	109.91
379.528	79.19
379.738	19.8
379.948	-37.55
380.158	66.9
380.369	66.9
380.579	111.96
380.789	81.24
380.999	38.23
381.21	30.04
381.42	114
381.63	54.61
381.84	-15.02
382.05	66.9
382.261	93.52
382.471	91.48
382.681	30.04
382.891	142.68
383.101	62.8
383.311	-25.26
383.521	68.95
383.731	91.48
383.941	81.24
384.151	-33.45
384.361	23.89
384.571	152.91
384.781	146.77
384.991	101.72
385.201	167.25
385.411	42.32
385.621	62.8
385.831	36.18
386.041	44.37
386.251	44.37
386.461	107.86
386.671	36.18
386.881	3.41
387.091	68.95
387.301	109.91
387.511	56.66
387.72	68.95
387.93	64.85
388.14	1.37
388.35	25.94
388.56	75.09
388.769	50.52
388.979	-2.73
389.189	79.19
389.399	75.09
389.609	144.72
389.818	77.14
390.028	97.62
390.238	130.39
390.447	-12.97
390.657	60.76
390.867	48.47
391.076	-0.68
391.286	68.95
391.496	52.56
391.705	64.85
391.915	87.38
392.125	109.91
392.334	9.56
392.544	91.48
392.753	23.89
392.963	54.61
393.172	25.94
393.382	44.37
393.591	79.19
393.801	50.52
394.01	89.43
394.22	73.04
394.429	50.52
394.639	27.99
394.848	85.33
395.058	83.28
395.267	97.62
395.477	38.23
395.686	50.52
395.895	195.92
396.105	208.21
396.314	71
396.524	114
396.733	71
396.942	120.15
397.152	48.47
397.361	146.77
397.57	95.57
397.78	138.58
397.989	-31.4
398.198	97.62
398.407	71
398.617	71
398.826	3.41
399.035	52.56
399.244	77.14
399.453	79.19
399.663	97.62
399.872	60.76
400.081	52.56
400.29	134.48
400.499	11.61
400.708	105.81
400.917	56.66
401.127	101.72
401.336	1.37
401.545	109.91
401.754	144.72
401.963	146.77
402.172	-8.87
402.381	83.28
402.59	122.2
402.799	103.76
403.008	93.52
403.217	187.73
403.426	101.72
403.635	44.37
403.844	132.44
404.053	138.58
404.262	202.07
404.471	114
404.68	214.35
404.888	228.69
405.097	83.28
405.306	89.43
405.515	183.63
405.724	208.21
405.933	167.25
406.142	148.82
406.35	173.39
406.559	128.34
406.768	93.52
406.977	224.59
407.185	128.34
407.394	161.11
407.603	167.25
407.812	150.87
408.02	283.98
408.229	175.44
408.438	167.25
408.646	146.77
408.855	253.27
409.064	187.73
409.272	189.78
409.481	279.89
409.69	253.27
409.898	218.45
410.107	314.7
410.315	310.61
410.524	224.59
410.733	249.17
410.941	224.59
411.15	329.04
411.358	382.29
411.567	384.34
411.775	253.27
411.984	335.18
412.192	398.67
412.401	341.33
412.609	458.06
412.818	386.38
413.026	458.06
413.234	464.21
413.443	441.68
413.651	472.4
413.86	505.17
414.068	521.55
414.276	646.48
414.485	464.21
414.693	640.33
414.901	607.56
415.11	582.99
415.318	615.76
415.526	529.74
415.734	687.43
415.943	634.19
416.151	632.14
416.359	660.81
416.567	632.14
416.776	734.54
416.984	699.72
417.192	773.45
417.4	814.41
417.608	783.69
417.817	795.98
418.025	970.05
418.233	1011.01
418.441	918.86
418.649	986.44
418.857	1056.07
419.065	1101.12
419.273	1049.93
419.481	1099.08
419.689	1219.91
419.897	1336.64
420.105	1181
420.313	1324.35
420.521	1396.03
420.729	1320.26
420.937	1402.18
421.145	1400.13
421.353	1477.95
421.561	1572.16
421.769	1594.68
421.977	1641.79
422.185	1721.66
422.393	1731.9
422.601	1854.78
422.809	1905.98
423.017	1862.97
423.224	1996.09
423.432	2012.47
423.64	2069.81
423.848	2358.58
424.056	2098.49
424.263	2405.68
424.471	2297.14
424.679	2420.02
424.887	2475.31
425.094	2604.33
425.302	2723.12
425.51	2725.16
425.718	2762.03
425.925	2647.34
426.133	2932.01
426.341	3173.67
426.548	3206.44
426.756	3128.61
426.964	3251.49
427.171	3460.38
427.379	3446.05
427.586	3605.79
427.794	3681.57
428.001	3912.99
428.209	4042.01
428.417	4042.01
428.624	4269.33
428.832	4281.62
429.039	4279.57
429.247	4144.41
429.454	4482.32
429.662	4816.14
429.869	4519.18
430.076	4994.31
430.284	4789.52
430.491	5115.14
430.699	5311.75
430.906	5385.48
431.114	5287.17
431.321	5463.3
431.528	5727.49
431.736	5999.87
431.943	6139.13
432.15	6044.92
432.358	6079.74
432.565	6761.71
432.772	6423.8
432.979	6823.15
433.187	7032.04
433.394	6995.18
433.601	7462.12
433.808	7591.14
434.016	7556.32
434.223	7740.64
434.43	8254.68
434.637	8004.83
434.844	8598.74
435.052	8664.27
435.259	8709.33
435.466	8658.13
435.673	8586.45
435.88	9200.84
436.087	9725.12
436.294	9657.54
436.501	9395.4
436.708	9651.39
436.915	10063.04
437.122	10349.75
437.329	10349.75
437.537	10493.11
437.743	11003.05
437.95	10785.97
438.157	11484.33
438.364	11842.72
438.571	11793.57
438.778	11730.08
438.985	12838.03
439.192	12565.65
439.399	12692.63
439.606	12498.07
439.813	13042.83
440.02	14105.73
440.227	13911.17
440.433	13855.87
440.64	14062.72
440.847	14005.38
441.054	14240.89
441.261	15318.12
441.467	14914.67
441.674	15586.41
441.881	16129.12
442.088	16020.58
442.294	15776.87
442.501	16237.66
442.708	16499.8
442.914	17101.9
443.121	17941.57
443.328	17310.8
443.534	18727.99
443.741	18162.75
443.948	17951.81
444.154	19047.47
444.361	19217.46
444.568	19360.81
444.774	19250.22
444.981	19362.86
445.187	20349.98
445.394	20751.38
445.6	20646.94
445.807	22363.14
446.013	21457.93
446.22	21994.5
446.426	22995.96
446.633	23028.73
446.839	23643.12
447.046	22729.72
447.252	23921.64
447.459	24351.71
447.665	23852.01
447.871	25205.72
448.078	26330.05
448.284	25060.31
448.491	25451.47
448.697	26694.59
448.903	27120.57
449.11	26729.41
449.316	26221.51
449.522	27171.77
449.728	27900.84
449.935	28205.99
450.141	28199.85
450.347	28677.02
450.553	27708.33
450.76	28175.27
450.966	29275.03
451.172	28900.25
451.378	29350.81
451.584	29025.18
451.791	29709.2
451.997	29784.97
452.203	30098.31
452.409	29836.17
452.615	29973.39
452.821	28550.05
453.027	28533.67
453.233	29971.34
453.44	28599.2
453.646	29037.47
453.852	29086.62
454.058	29637.52
454.264	28824.48
454.47	29254.55
454.676	28584.87
454.882	29549.46
455.088	26768.32
455.294	27347.89
455.5	27546.54
455.705	28175.27
455.911	26893.24
456.117	26463.17
456.323	25992.14
456.529	24689.63
456.735	25891.79
456.941	25072.6
457.147	24548.32
457.352	24005.61
457.558	23540.72
457.764	23776.23
457.97	23194.61
458.176	22537.21
458.381	22787.07
458.587	21595.15
458.793	21404.69
458.999	20460.57
459.204	22096.9
459.41	21228.56
459.616	20048.93
459.821	19954.72
460.027	19901.48
460.233	19315.76
460.438	18472
460.644	18617.4
460.85	17749.06
461.055	17306.7
461.261	17595.46
461.466	16217.18
461.672	15686.76
461.878	16751.7
462.083	15570.02
462.289	15250.54
462.494	14959.73
462.7	14331
462.905	14165.12
463.111	14679.16
463.316	14537.85
463.522	14234.75
463.727	14324.86
463.932	14349.43
464.138	14251.13
464.343	14285.95
464.549	14015.62
464.754	14292.09
464.959	14275.71
465.165	14146.69
465.37	13390.98
465.575	13057.17
465.781	13415.56
465.986	13698.18
466.191	13352.07
466.397	13053.07
466.602	12450.97
466.807	12878.99
467.012	12772.5
467.218	12641.43
467.423	12379.29
467.628	12817.55
467.833	12960.91
468.038	12627.09
468.244	12457.11
468.449	12999.82
468.654	12399.77
468.859	12362.9
469.064	12160.16
469.269	11775.14
469.474	11955.36
469.679	12248.22
469.885	11730.08
470.09	11844.77
470.295	11877.54
470.5	11537.57
470.705	11805.86
470.91	11449.51
471.115	11271.34
471.32	11560.1
471.525	11328.68
471.73	11187.37
471.935	11052.2
472.139	10724.53
472.344	10755.25
472.549	10620.08
472.754	10779.82
472.959	10192.06
473.164	10120.38
473.369	9970.88
473.574	10400.95
473.778	10206.39
473.983	10343.61
474.188	10230.97
474.393	9725.12
474.598	9899.2
474.802	9483.46
475.007	9704.64
475.212	9802.94
475.417	9127.11
475.621	9061.58
475.826	9284.81
476.031	9032.91
476.235	8971.47
476.44	9104.59
476.645	8903.89
476.849	9026.76
477.054	8770.77
477.259	8563.92
477.463	8582.35
477.668	8316.12
477.872	8486.1
478.077	8309.97
478.282	8217.82
478.486	7970.01
478.691	8293.59
478.895	8170.71
479.1	8248.54
479.304	7931.1
479.509	7800.03
479.713	7931.1
479.918	7460.07
480.122	7652.58
480.326	7888.09
480.531	7703.78
480.735	7597.28
480.94	7408.87
481.144	7615.71
481.348	7367.91
481.553	7572.71
481.757	7193.83
481.961	7406.82
482.166	7511.27
482.37	7443.68
482.574	7396.58
482.778	7316.71
482.983	7386.34
483.187	7445.73
483.391	7351.53
483.595	7259.37
483.8	7255.27
484.004	7496.93
484.208	7515.36
484.412	7492.83
484.616	7341.29
484.821	7337.19
485.025	7199.98
485.229	7458.02
485.433	7601.38
485.637	7466.21
485.841	7251.17
486.045	7384.29
486.249	7636.19
486.453	7263.46
486.657	7396.58
486.861	7302.37
487.065	7251.17
487.269	7298.28
487.473	7210.22
487.677	7263.46
487.881	7527.65
488.085	7486.69
488.289	7296.23
488.493	7351.53
488.697	7415.01
488.901	7580.9
489.105	7402.72
489.309	7488.74
489.512	7431.4
489.716	7501.03
489.92	7394.53
490.124	7390.44
490.328	7521.51
490.531	7410.92
490.735	7515.36
490.939	7681.25
491.143	7458.02
491.346	7419.11
491.55	7587.04
491.754	7683.3
491.958	7863.52
492.161	7572.71
492.365	7714.02
492.569	7609.57
492.772	7886.05
492.976	7988.44
493.18	7884
493.383	7992.54
493.587	7957.72
493.79	8099.03
493.994	7939.29
494.197	8154.33
494.401	8111.32
494.605	8236.25
494.808	8391.89
495.012	8244.44
495.215	8471.76
495.419	8537.3
495.622	8482
495.825	8563.92
496.029	8506.58
496.232	8627.41
496.436	8756.43
496.639	8897.74
496.843	8801.49
497.046	9106.63
497.249	9030.86
497.453	9110.73
497.656	9118.92
497.859	9135.31
498.063	9303.24
498.266	9653.44
498.469	9487.56
498.673	9706.69
498.876	9708.74
499.079	9616.58
499.282	9923.77
499.485	10013.88
499.689	10011.84
499.892	10386.61
500.095	10251.45
500.298	10554.55
500.501	10304.7
500.705	10882.22
500.908	10896.56
501.111	10990.77
501.314	10933.42
501.517	11195.56
501.72	11287.72
501.923	11361.45
502.126	11541.67
502.329	11748.51
502.532	11865.25
502.735	11850.91
502.938	12045.47
503.141	12106.91
503.344	12184.73
503.547	12426.39
503.75	12504.21
503.953	12659.86
504.156	12637.33
504.359	12809.36
504.562	12868.75
504.765	13427.85
504.968	13171.85
505.17	13456.52
505.373	13436.04
505.576	13786.24
505.779	13806.72
505.982	13999.23
506.185	14081.15
506.387	14171.26
506.59	14244.99
506.793	14908.53
506.996	14515.32
507.198	15062.13
507.401	14875.76
507.604	15002.74
507.807	15436.91
508.009	15455.34
508.212	15510.63
508.415	15631.46
508.617	15877.22
508.82	16233.57
509.022	15895.65
509.225	16442.46
509.428	16338.01
509.63	16641.11
509.833	16471.13
510.035	16985.17
510.238	16962.64
510.44	17067.09
510.643	17513.55
510.845	17671.24
511.048	17445.96
511.25	17785.93
511.453	17714.25
511.655	18525.24
511.858	18195.52
512.06	18584.63
512.262	18789.43
512.465	18822.2
512.667	19207.22
512.87	19166.26
513.072	18986.04
513.274	19837.99
513.477	19520.56
513.679	19749.93
513.881	20020.26
514.084	20206.62
514.286	20046.88
514.488	20261.92
514.69	20577.31
514.893	21173.27
515.095	21224.47
515.297	21060.63
515.499	21482.51
515.701	21400.59
515.904	21675.02
516.106	21953.54
516.308	22004.74
516.51	22201.35
516.712	22119.43
516.914	22168.58
517.116	22684.67
517.318	22365.18
517.52	22623.23
517.722	23055.35
517.925	23165.94
518.127	23485.42
518.329	23606.25
518.531	23565.29
518.733	24077.29
518.935	24079.33
519.136	24159.2
519.338	24327.14
519.54	24374.24
519.742	24675.29
519.944	24847.32
520.146	24953.82
520.348	25408.47
520.55	25076.69
520.752	25381.84
520.954	25910.22
521.155	25527.25
521.357	25861.07
521.559	26119.11
521.761	26540.99
521.963	26741.69
522.164	26479.55
522.366	26434.5
522.568	26489.79
522.77	26960.83
522.971	27079.61
523.173	27231.16
523.375	27192.25
523.576	27009.98
523.778	26864.57
523.98	27673.52
524.181	27364.28
524.383	27909.04
524.584	27931.56
524.786	28072.87
524.988	28373.92
525.189	28361.64
525.391	28529.57
525.592	28621.73
525.794	28480.42
525.995	28677.02
526.197	28681.12
526.398	28441.51
526.6	28933.02
526.801	28664.74
527.003	28840.86
527.204	29113.24
527.406	29303.7
527.607	28869.53
527.808	29545.36
528.01	28894.11
528.211	29365.14
528.412	30215.05
528.614	29836.17
528.815	29541.27
529.016	29649.81
529.218	29655.95
529.419	29473.68
529.62	29711.25
529.822	29574.03
530.023	29619.09
530.224	29571.99
530.425	29778.83
530.626	29395.86
530.828	29279.13
531.029	29965.2
531.23	30012.3
531.431	29735.82
531.632	29862.8
531.833	30186.38
532.035	29942.67
532.236	30022.54
532.437	30186.38
532.638	29823.89
532.839	30106.51
533.04	30235.53
533.241	30133.13
533.442	30278.54
533.643	29918.09
533.844	29959.05
534.045	30057.35
534.246	29778.83
534.447	30018.44
534.648	30040.97
534.849	30520.2
535.05	29793.17
535.251	30045.07
535.451	29977.48
535.652	29744.02
535.853	29801.36
536.054	30194.57
536.255	30118.79
536.456	29608.85
536.657	30536.58
536.857	30006.16
537.058	30016.4
537.259	30307.21
537.46	30059.4
537.66	30002.06
537.861	30059.4
538.062	29979.53
538.263	29805.45
538.463	29709.2
538.664	29901.71
538.865	30290.82
539.065	30086.03
539.266	29709.2
539.466	29838.22
539.667	29780.88
539.868	30008.2
540.068	29899.66
540.269	29866.89
540.469	30002.06
540.67	30020.49
540.87	29987.72
541.071	29977.48
541.271	29985.68
541.472	29854.61
541.672	29582.23
541.873	29494.16
542.073	29293.46
542.274	29926.28
542.474	29784.97
542.675	29641.62
542.875	29789.07
543.075	29694.86
543.276	29383.57
543.476	30045.07
543.676	29557.65
543.877	29748.11
544.077	29588.37
544.277	29641.62
544.478	29787.02
544.678	29531.03
544.878	29502.36
545.078	29571.99
545.279	29426.58
545.479	29373.33
545.679	29643.66
545.879	29463.44
546.079	29873.04
546.28	29270.93
546.48	29557.65
546.68	29633.43
546.88	29758.35
547.08	29442.96
547.28	29608.85
547.48	29217.69
547.68	29680.53
547.88	29227.93
548.081	29612.95
548.281	29143.96
548.481	29399.96
548.681	29545.36
548.881	29557.65
549.081	29258.65
549.28	29250.45
549.48	29682.58
549.68	29127.58
549.88	29541.27
550.08	29621.14
550.28	29295.51
550.48	29084.57
550.68	29377.43
550.88	29197.21
551.08	29363.09
551.279	29268.89
551.479	29213.59
551.679	29426.58
551.879	29070.23
552.079	29340.57
552.278	28947.36
552.478	29174.68
552.678	29275.03
552.878	29369.24
553.077	28971.93
553.277	29217.69
553.477	29451.16
553.676	29461.4
553.876	29174.68
554.076	28973.98
554.275	29195.16
554.475	28910.49
554.674	29217.69
554.874	29115.29
555.074	28961.69
555.273	28953.5
555.473	29189.02
555.672	29023.13
555.872	28849.05
556.071	29117.34
556.271	28892.06
556.47	28801.95
556.67	28842.91
556.869	28939.16
557.068	28867.48
557.268	28869.53
557.467	28695.46
557.667	29031.32
557.866	28822.43
558.065	28760.99
558.265	28683.17
558.464	28724.13
558.663	28564.39
558.863	28539.81
559.062	29107.1
559.261	28449.7
559.461	28806.05
559.66	28631.97
559.859	28644.26
560.058	28730.27
560.258	28418.98
560.457	28533.67
560.656	28560.29
560.855	28492.71
561.054	28830.62
561.253	28464.03
561.453	28257.19
561.652	28378.02
561.851	28646.3
562.05	28351.4
562.249	28328.87
562.448	28660.64
562.647	28541.86
562.846	28304.29
563.045	28541.86
563.244	27986.86
563.443	28337.06
563.642	28181.42
563.841	28205.99
564.04	27995.05
564.239	28613.54
564.438	28244.9
564.637	28130.22
564.836	28335.01
565.035	27958.19
565.234	28197.8
565.432	28025.77
565.631	27952.04
565.83	28101.54
566.029	28224.42
566.228	27986.86
566.427	28201.9
566.625	27722.67
566.824	27583.41
567.023	28093.35
567.222	27468.72
567.42	27726.77
567.619	27945.9
567.818	27827.12
568.016	27771.82
568.215	28099.5
568.414	27970.47
568.612	28066.73
568.811	27636.66
569.01	27855.79
569.208	27474.87
569.407	27775.92
569.605	27376.56
569.804	27366.32
570.002	27089.85
570.201	27544.5
570.4	27149.24
570.598	27386.8
570.797	27304.88
570.995	27425.71
571.193	27212.73
571.392	27587.5
571.59	27452.34
571.789	27067.32
571.987	27089.85
572.186	27194.29
572.384	27130.81
572.582	27186.1
572.781	27024.31
572.979	26809.28
573.177	26686.4
573.376	27118.52
573.574	26874.81
573.772	26907.58
573.971	26762.17
574.169	26727.36
574.367	26741.69
574.565	26780.6
574.763	26508.22
574.962	26995.64
575.16	26381.25
575.358	26682.3
575.556	26325.96
575.754	26620.86
575.952	26260.42
576.151	26426.31
576.349	26215.37
576.547	26360.77
576.745	26397.63
576.943	26561.47
577.141	26239.94
577.339	26446.79
577.537	26014.66
577.735	26098.63
577.933	25953.23
578.131	26297.28
578.329	25773
578.527	25654.22
578.725	25945.03
578.923	25922.51
579.121	26078.15
579.319	25699.28
579.516	25871.31
579.714	25682.89
579.912	25504.72
580.11	25498.58
580.308	25576.4
580.506	25508.82
580.704	25226.2
580.901	25209.81
581.099	25394.13
581.297	25314.26
581.495	25334.74
581.692	25246.68
581.89	25238.48
582.088	25334.74
582.285	24931.29
582.483	25400.27
582.681	25117.65
582.878	24910.81
583.076	24769.5
583.274	25084.89
583.471	24509.41
583.669	24908.76
583.866	24730.59
584.064	24726.49
584.262	24480.74
584.459	24638.43
584.657	24880.09
584.854	24746.97
585.052	24587.23
585.249	24116.2
585.447	24509.41
585.644	24112.1
585.841	24634.33
586.039	24445.92
586.236	23997.42
586.434	24144.87
586.631	24093.67
586.828	23933.93
587.026	24085.48
587.223	24052.71
587.42	23788.52
587.618	24005.61
587.815	23606.25
588.012	23722.99
588.21	23614.44
588.407	23641.07
588.604	23669.74
588.801	23526.38
588.999	23579.63
589.196	23557.1
589.393	23593.97
589.59	23421.94
589.787	23143.41
589.984	23131.12
590.182	23041.01
590.379	23225.33
590.576	22903.8
590.773	23215.09
590.97	22873.08
591.167	23127.03
591.364	22916.09
591.561	22660.09
591.758	22725.63
591.955	23016.44
592.152	23116.79
592.349	22412.29
592.546	22537.21
592.743	22739.96
592.94	22248.45
593.137	22412.29
593.334	22459.39
593.531	22361.09
593.727	22447.1
593.924	22381.57
594.121	22227.97
594.318	22359.04
594.515	21828.62
594.712	22217.73
594.908	22137.86
595.105	22129.67
595.302	22045.7
595.499	21900.3
595.696	21896.2
595.892	21621.77
596.089	21976.07
596.286	21941.25
596.482	21685.26
596.679	21863.43
596.876	21924.87
597.072	21597.2
597.269	21556.24
597.466	21449.74
597.662	21560.33
597.859	21668.87
598.055	21343.25
598.252	21281.81
598.448	21402.64
598.645	21396.49
598.841	21074.96
599.038	21271.57
599.234	21220.37
599.431	21253.14
599.627	20839.45
599.824	21050.39
600.02	20911.13
600.217	20956.18
600.413	20851.74
600.609	20691.99
600.806	20608.03
601.002	20970.52
601.198	20544.54
601.395	20421.66
601.591	20452.38
601.787	20790.3
601.984	20409.37
602.18	20730.9
602.376	20446.24
602.572	20317.22
602.769	20479
602.965	20292.64
603.161	20143.14
603.357	20042.79
603.553	20169.76
603.75	20268.06
603.946	20061.22
604.142	20210.72
604.338	19919.91
604.534	20024.36
604.73	20223.01
604.926	20026.4
605.122	20110.37
605.318	19944.49
605.514	19592.23
605.71	19622.95
605.906	20028.45
606.102	19553.32
606.298	19874.85
606.494	19651.63
606.69	19936.29
606.886	19516.46
607.082	19405.87
607.278	19663.91
607.474	19350.57
607.67	19749.93
607.866	18957.36
608.062	19467.31
608.257	19532.84
608.453	19391.53
608.649	19452.97
608.845	18885.69
609.041	19070
609.236	19235.89
609.432	19401.77
609.628	19260.46
609.824	19106.87
610.019	18971.7
610.215	19172.4
610.411	19409.97
610.606	19119.15
610.802	19026.99
610.998	19166.26
611.193	19170.35
611.389	18998.32
611.584	18889.78
611.78	18801.72
611.976	18904.12
612.171	18857.01
612.367	18861.11
612.562	18900.02
612.758	18650.17
612.953	18547.77
613.149	18971.7
613.344	18959.41
613.539	18988.08
613.735	19149.87
613.93	18783.29
614.126	18617.4
614.321	18822.2
614.517	18783.29
614.712	18644.02
614.907	18404.41
615.103	18828.34
615.298	18277.44
615.493	18684.98
615.688	18105.41
615.884	19010.61
616.079	18455.61
616.274	18451.52
616.47	18342.97
616.665	18732.09
616.86	18263.1
617.055	18472
617.25	18150.46
617.445	18406.46
617.641	18144.32
617.836	18408.51
618.031	18089.03
618.226	18246.72
618.421	18158.66
618.616	18367.55
618.811	18084.93
619.006	18281.53
619.201	17978.43
619.396	17982.53
619.591	17443.92
619.786	18043.97
619.981	17421.39
620.176	17724.49
620.371	17634.38
620.566	17337.42
620.761	17445.96
620.956	17286.22
621.151	17183.82
621.346	17245.26
621.541	16946.26
621.735	17251.41
621.93	16981.07
622.125	17134.67
622.32	16624.73
622.515	16950.35
622.709	16753.75
622.904	16843.86
623.099	16551
623.294	16526.43
623.488	16217.18
623.683	16655.45
623.878	15934.56
624.072	16231.52
624.267	16229.47
624.462	16208.99
624.656	15967.33
624.851	16018.53
625.046	15838.31
625.24	15703.14
625.435	15567.98
625.629	15740.01
625.824	15707.24
626.018	15576.17
626.213	15189.1
626.407	15320.17
626.602	15045.74
626.796	15344.75
626.991	15142
627.185	15133.81
627.38	15148.14
627.574	15049.84
627.768	14857.33
627.963	14707.83
628.157	14435.45
628.352	14685.3
628.546	14523.51
628.74	14992.5
628.935	14347.39
629.129	14472.31
629.323	13923.46
629.517	14015.62
629.712	14169.21
629.906	14122.11
630.1	14093.44
630.294	14115.97
630.489	13898.88
630.683	13919.36
630.877	13753.48
631.071	13601.93
631.265	13847.68
631.459	13614.21
631.653	13337.74
631.848	13589.64
632.042	13409.42
632.236	13431.94
632.43	13425.8
632.624	13350.03
632.818	13042.83
633.012	13081.74
633.206	12922
633.4	13204.62
633.594	12831.89
633.788	12997.77
633.982	12903.57
634.176	12881.04
634.369	12788.88
634.563	12539.03
634.757	12440.73
634.951	12754.07
635.145	12600.47
635.339	12393.62
635.533	12309.66
635.726	12412.06
635.92	12158.11
636.114	12323.99
636.308	12041.37
636.501	12188.83
636.695	11844.77
636.889	12033.18
637.083	12018.85
637.276	11732.13
637.47	11846.82
637.664	11654.31
637.857	11754.66
638.051	11713.7
638.244	11680.93
638.438	11525.29
638.632	11521.19
638.825	11582.63
639.019	11287.72
639.212	11070.64
639.406	11494.57
639.599	11271.34
639.793	11132.08
639.986	10910.89
640.18	11033.77
640.373	11103.4
640.567	10888.37
640.76	10781.87
640.954	10982.57
641.147	10675.38
641.34	10458.29
641.534	10658.99
641.727	10751.15
641.92	10474.68
642.114	10409.14
642.307	10394.81
642.5	10423.48
642.694	10130.62
642.887	10288.31
643.08	10319.03
643.273	10097.85
643.467	9991.36
643.66	9905.34
643.853	9757.89
644.046	9706.69
644.239	9710.79
644.432	9702.59
644.626	9422.02
644.819	9497.8
645.012	9522.37
645.205	9761.98
645.398	9600.19
645.591	9495.75
645.784	9493.7
645.977	9342.15
646.17	9379.01
646.363	9485.51
646.556	9135.31
646.749	9110.73
646.942	9356.49
647.135	9200.84
647.328	8889.55
647.521	9053.39
647.714	8967.37
647.907	8885.45
648.099	8903.89
648.292	8821.97
648.485	8754.38
648.678	8641.75
648.871	8723.66
649.064	8692.94
649.256	8512.72
649.449	8572.11
649.642	8461.52
649.835	8420.56
650.027	8266.97
650.22	8441.04
650.413	8215.77
650.605	8195.29
650.798	8068.31
650.991	8172.76
651.183	8172.76
651.376	8062.17
651.568	8168.66
651.761	8139.99
651.954	7855.33
652.146	7777.5
652.339	8053.98
652.531	7808.22
652.724	7767.26
652.916	7593.19
653.109	7621.86
653.301	7748.83
653.494	7589.09
653.686	7417.06
653.879	7476.45
654.071	7478.5
654.263	7329
654.456	7408.87
654.648	7486.69
654.84	7257.32
655.033	7294.18
655.225	7169.26
655.417	7150.82
655.61	7216.36
655.802	7224.55
655.994	7195.88
656.186	7019.75
656.379	7052.52
656.571	6962.41
656.763	6794.48
656.955	6921.45
657.148	6952.17
657.34	6753.52
657.532	6720.75
657.724	6804.72
657.916	6831.34
658.108	6634.74
658.3	6606.06
658.492	6634.74
658.684	6632.69
658.876	6548.72
659.068	6526.19
659.26	6337.78
659.452	6431.99
659.644	6595.82
659.836	6436.08
660.028	6339.83
660.22	6202.61
660.412	6442.23
660.604	6192.37
660.796	6298.87
660.988	6085.88
661.18	6178.04
661.372	6249.72
661.563	6155.51
661.755	6085.88
661.947	5981.43
662.139	5901.56
662.331	5897.47
662.522	6028.54
662.714	5778.69
662.906	5909.76
663.097	5897.47
663.289	5831.93
663.481	5731.58
663.673	5715.2
663.864	5661.95
664.056	5684.48
664.247	5614.85
664.439	5577.98
664.631	5623.04
664.822	5582.08
665.014	5694.72
665.205	5451.01
665.397	5491.97
665.588	5473.54
665.78	5434.63
665.971	5506.31
666.163	5475.59
666.354	5381.38
666.546	5262.6
666.737	5293.32
666.929	5188.87
667.12	5178.63
667.311	5258.5
667.503	5006.6
667.694	5133.57
667.885	5213.45
668.077	5313.8
668.268	5006.6
668.459	5096.71
668.651	5102.86
668.842	5082.38
669.033	5039.37
669.224	5059.85
669.416	5094.66
669.607	4965.64
669.798	4883.72
669.989	4941.07
670.18	4887.82
670.371	5012.74
670.563	4996.36
670.754	4842.76
670.945	4881.67
671.136	4756.75
671.327	4713.74
671.518	4789.52
671.709	4850.96
671.9	4836.62
672.091	4936.97
672.282	4711.69
672.473	4664.59
672.664	4769.04
672.855	4719.89
673.046	4752.65
673.237	4660.49
673.428	4715.79
673.619	4654.35
673.809	4580.62
674	4738.32
674.191	4465.94
674.382	4539.66
674.573	4578.58
674.764	4500.75
674.954	4535.57
675.145	4386.07
675.336	4527.38
675.527	4566.29
675.717	4394.26
675.908	4482.32
676.099	4535.57
676.289	4490.51
676.48	4496.66
676.671	4429.07
676.861	4566.29
677.052	4367.63
677.243	4308.24
677.433	4568.34
677.624	4517.14
677.814	4273.43
678.005	4416.79
678.195	4631.82
678.386	4392.21
678.576	4373.78
678.767	4418.83
678.957	4379.92
679.148	4394.26
679.338	4427.03
679.529	4457.75
679.719	4269.33
679.909	4463.89
680.1	4285.72
680.29	4240.66
680.481	4367.63
680.671	4338.96
680.861	4533.52
681.052	4306.2
681.242	4255
681.432	4197.65
681.622	4205.85
681.813	4191.51
682.003	4242.71
682.193	4211.99
682.383	4345.11
682.573	4326.68
682.764	4320.53
682.954	4259.09
683.144	4328.72
683.334	4064.54
683.524	4242.71
683.714	4248.85
683.904	4109.59
684.094	4355.35
684.284	4375.83
684.474	4255
684.664	4230.42
684.854	4275.48
685.044	4244.76
685.234	4191.51
685.424	4267.28
685.614	4111.64
685.804	4281.62
685.994	4177.17
686.184	4218.13
686.374	4187.41
686.564	3988.76
686.753	4119.83
686.943	4042.01
687.133	4091.16
687.323	3972.38
687.513	3992.86
687.702	4082.97
687.892	3953.94
688.082	4017.43
688.272	3958.04
688.461	3904.79
688.651	4142.36
688.841	3927.32
689.03	3845.4
689.22	3915.03
689.41	3949.85
689.599	3933.47
689.789	3939.61
689.979	3884.31
690.168	3843.35
690.358	3773.72
690.547	3912.99
690.737	3767.58
690.926	3824.92
691.116	3792.16
691.305	3826.97
691.495	3820.83
691.684	3648.8
691.874	3730.72
692.063	3718.43
692.252	3673.37
692.442	3667.23
692.631	3775.77
692.82	3648.8
693.01	3597.6
693.199	3683.61
693.388	3716.38
693.578	3607.84
693.767	3763.48
693.956	3798.3
694.146	3654.94
694.335	3646.75
694.524	3546.4
694.713	3646.75
694.902	3642.65
695.092	3521.82
695.281	3550.5
695.47	3618.08
695.659	3476.77
695.848	3530.02
696.037	3650.85
696.226	3708.19
696.415	3585.31
696.604	3777.82
696.793	3671.33
696.982	3534.11
697.171	3685.66
697.36	3566.88
697.549	3548.45
697.738	3450.14
697.927	3659.04
698.116	3507.49
698.305	3579.17
698.494	3648.8
698.683	3638.56
698.872	3673.37
699.061	3677.47
699.25	3618.08
699.438	3665.18
699.627	3597.6
699.816	3730.72
700.005	3675.42
700.193	3704.09
700.382	3634.46
700.571	3638.56
700.76	3640.61
700.948	3601.69
701.137	3722.52
701.326	3718.43
701.514	3591.45
701.703	3761.44
701.892	3616.03
702.08	3796.25
702.269	3753.24
702.457	3419.43
702.646	3671.33
702.834	3779.87
703.023	3626.27
703.212	3753.24
703.4	3781.92
703.589	3712.28
703.777	3581.21
703.965	3597.6
704.154	3730.72
704.342	3747.1
704.531	3706.14
704.719	3583.26
704.907	3837.21
705.096	3624.22
705.284	3579.17
705.472	3695.9
705.661	3724.57
705.849	3667.23
706.037	3935.51
706.226	3751.2
706.414	3849.5
706.602	3624.22
706.79	3775.77
706.979	3718.43
707.167	3646.75
707.355	3638.56
707.543	3757.34
707.731	3806.49
707.919	3659.04
708.107	3632.41
708.296	3757.34
708.484	3751.2
708.672	3792.16
708.86	3665.18
709.048	3790.11
709.236	3781.92
709.424	3706.14
709.612	3890.46
709.8	3728.67
709.988	3716.38
710.176	3734.81
710.364	3751.2
710.551	3859.74
710.739	3714.33
710.927	3843.35
711.115	3812.64
711.303	3863.83
711.491	3747.1
711.679	3820.83
711.866	3759.39
712.054	3753.24
712.242	3812.64
712.43	3783.96
712.617	3769.63
712.805	3706.14
712.993	3613.98
713.181	3710.24
713.368	3734.81
713.556	3865.88
713.744	3716.38
713.931	3999
714.119	3788.06
714.306	3839.26
714.494	3775.77
714.682	3792.16
714.869	3749.15
715.057	3902.75
715.244	3575.07
715.432	3857.69
715.619	3835.16
715.807	3769.63
715.994	3808.54
716.182	3849.5
716.369	3855.64
716.556	3781.92
716.744	3589.41
716.931	3724.57
717.119	3765.53
717.306	3806.49
717.493	3853.59
717.681	3755.29
717.868	3706.14
718.055	3749.15
718.242	3747.1
718.43	3974.42
718.617	3755.29
718.804	3611.93
718.991	3677.47
719.179	3876.12
719.366	3685.66
719.553	3743
719.74	3824.92
719.927	3892.51
720.114	3841.31
720.301	3654.94
720.488	3628.32
720.676	3818.78
720.863	3923.23
721.05	3845.4
721.237	3792.16
721.424	3892.51
721.611	3859.74
721.798	3734.81
721.985	3763.48
722.172	3714.33
722.358	3675.42
722.545	3716.38
722.732	3685.66
722.919	3865.88
723.106	3675.42
723.293	3693.85
723.48	3761.44
723.667	3757.34
723.853	3849.5
724.04	3732.76
724.227	3761.44
724.414	3609.89
724.6	3693.85
724.787	3702.04
724.974	3853.59
725.161	3620.13
725.347	3732.76
725.534	3802.4
725.72	3786.01
725.907	3761.44
726.094	3595.55
726.28	3706.14
726.467	3626.27
726.653	3745.05
726.84	3738.91
727.027	3851.55
727.213	3779.87
727.4	3661.09
727.586	3661.09
727.773	3659.04
727.959	3687.71
728.145	3644.7
728.332	3646.75
728.518	3781.92
728.705	3786.01
728.891	3681.57
729.077	3560.73
729.264	3759.39
729.45	3609.89
729.636	3734.81
729.823	3650.85
730.009	3788.06
730.195	3636.51
730.382	3816.73
730.568	3618.08
730.754	3728.67
730.94	3587.36
731.126	3636.51
731.313	3726.62
731.499	3755.29
731.685	3624.22
731.871	3527.97
732.057	3708.19
732.243	3546.4
732.429	3738.91
732.615	3556.64
732.801	3556.64
732.987	3650.85
733.173	3489.06
733.359	3677.47
733.545	3499.3
733.731	3683.61
733.917	3749.15
734.103	3597.6
734.289	3622.17
734.475	3476.77
734.661	3585.31
734.847	3554.59
735.033	3636.51
735.219	3429.66
735.404	3626.27
735.59	3507.49
735.776	3536.16
735.962	3544.35
736.148	3532.06
736.333	3425.57
736.519	3527.97
736.705	3409.19
736.89	3482.91
737.076	3470.62
737.262	3276.07
737.447	3493.15
737.633	3390.75
737.819	3476.77
738.004	3425.57
738.19	3491.1
738.375	3499.3
738.561	3476.77
738.747	3353.89
738.932	3355.94
739.118	3409.19
739.303	3374.37
739.489	3403.04
739.674	3376.42
739.859	3390.75
740.045	3392.8
740.23	3298.6
740.416	3173.67
740.601	3290.4
740.786	3259.68
740.972	3200.29
741.157	3192.1
741.342	3155.24
741.528	3245.35
741.713	3181.86
741.898	3169.57
742.084	3128.61
742.269	3169.57
742.454	3138.85
742.639	3251.49
742.824	3128.61
743.01	3112.23
743.195	3226.92
743.38	3120.42
743.565	3040.55
743.75	3003.69
743.935	3099.94
744.12	3044.65
744.305	2891.05
744.49	2940.2
744.675	2964.78
744.86	2921.77
745.045	2948.39
745.23	2903.34
745.415	2997.54
745.6	2997.54
745.785	2811.18
745.97	2886.95
746.155	2989.35
746.34	2913.58
746.525	2956.58
746.71	2823.47
746.895	2807.08
747.079	2694.44
747.264	2839.85
747.449	2813.23
747.634	2796.84
747.819	2841.9
748.003	2663.72
748.188	2653.48
748.373	2633.01
748.557	2780.46
748.742	2669.87
748.927	2764.08
749.111	2587.95
749.296	2499.89
749.481	2516.27
749.665	2616.62
749.85	2475.31
750.034	2575.66
750.219	2575.66
750.404	2489.65
750.588	2411.82
750.773	2430.26
750.957	2383.15
751.141	2342.19
751.326	2430.26
751.51	2297.14
751.695	2385.2
751.879	2360.63
752.064	2493.74
752.248	2354.48
752.432	2417.97
752.617	2327.86
752.801	2346.29
752.985	2270.51
753.17	2280.75
753.354	2295.09
753.538	2250.03
753.722	2151.73
753.907	2239.8
754.091	2157.88
754.275	2188.6
754.459	2084.15
754.643	2100.53
754.828	2096.44
755.012	2131.25
755.196	2071.86
755.38	2110.77
755.564	2012.47
755.748	2080.05
755.932	2045.24
756.116	2012.47
756.3	2030.9
756.484	2102.58
756.668	1948.98
756.852	1873.21
757.036	1934.65
757.22	1908.02
757.404	1846.59
757.588	1967.42
757.772	1924.41
757.956	1926.46
758.14	1920.31
758.323	1809.72
758.507	1832.25
758.691	1733.95
758.875	1776.95
759.059	1748.28
759.242	1719.61
759.426	1795.39
759.61	1883.45
759.794	1746.23
759.977	1787.19
760.161	1799.48
760.345	1639.74
760.528	1738.04
760.712	1721.66
760.895	1670.46
761.079	1654.08
761.263	1686.84
761.446	1674.56
761.63	1748.28
761.813	1733.95
761.997	1598.78
762.18	1772.86
762.364	1613.12
762.547	1480
762.731	1647.93
762.914	1600.83
763.098	1606.97
763.281	1549.63
763.464	1582.4
763.648	1633.6
763.831	1584.45
764.015	1496.38
764.198	1467.71
764.381	1570.11
764.564	1494.33
764.748	1566.01
764.931	1537.34
765.114	1443.14
765.297	1584.45
765.481	1416.51
765.664	1543.49
765.847	1389.89
766.03	1563.97
766.213	1422.66
766.397	1557.82
766.58	1449.28
766.763	1518.91
766.946	1518.91
767.129	1486.14
767.312	1375.55
767.495	1383.74
767.678	1434.94
767.861	1506.62
768.044	1344.83
768.227	1494.33
768.41	1324.35
768.593	1328.45
768.776	1369.41
768.959	1287.49
769.142	1432.9
769.324	1328.45
769.507	1224
769.69	1322.31
769.873	1346.88
770.056	1379.65
770.239	1269.06
770.421	1344.83
770.604	1322.31
770.787	1281.35
770.97	1375.55
771.152	1221.95
771.335	1267.01
771.518	1271.11
771.7	1267.01
771.883	1348.93
772.066	1224
772.248	1238.34
772.431	1293.63
772.613	1267.01
772.796	1236.29
772.978	1181
773.161	1211.71
773.343	1277.25
773.526	1135.94
773.708	1111.36
773.891	1291.59
774.073	1174.85
774.256	1166.66
774.438	1119.56
774.621	1072.45
774.803	1228.1
774.985	1086.79
775.168	1183.04
775.35	1181
775.532	1101.12
775.715	1197.38
775.897	1201.48
776.079	1074.5
776.261	1140.04
776.444	1080.64
776.626	1101.12
776.808	978.25
776.99	980.29
777.173	1094.98
777.355	1060.17
777.537	1097.03
777.719	1043.78
777.901	1078.6
778.083	941.38
778.265	920.9
778.447	998.73
778.629	968.01
778.811	965.96
778.993	965.96
779.175	982.34
779.357	912.71
779.539	961.86
779.721	902.47
779.903	929.1
780.085	908.62
780.267	877.9
780.449	959.81
780.631	853.32
780.812	1072.45
780.994	908.62
781.176	963.91
781.358	822.6
781.54	892.23
781.721	871.75
781.903	867.66
782.085	761.16
782.267	832.84
782.448	871.75
782.63	843.08
782.812	734.54
782.993	841.03
783.175	820.55
783.357	720.2
783.538	857.42
783.72	849.22
783.901	748.87
784.083	755.02
784.264	621.9
784.446	652.62
784.627	712.01
784.809	728.39
784.99	765.26
785.172	773.45
785.353	685.39
785.535	660.81
785.716	724.3
785.897	693.58
786.079	697.67
786.26	673.1
786.441	728.39
786.623	595.28
786.804	626
786.985	611.66
787.167	666.96
787.348	630.09
787.529	675.15
787.71	750.92
787.891	671.05
788.073	490.83
788.254	556.36
788.435	675.15
788.616	634.19
788.797	603.47
788.978	564.56
789.159	501.07
789.34	654.67
789.522	558.41
789.703	544.08
789.884	619.85
790.065	542.03
790.246	626
790.427	601.42
790.607	654.67
790.788	626
790.969	562.51
791.15	533.84
791.331	439.63
791.512	472.4
791.693	542.03
791.874	527.69
792.054	666.96
792.235	609.61
792.416	523.6
792.597	392.53
792.778	496.97
792.958	499.02
793.139	501.07
793.32	531.79
793.5	417.1
793.681	521.55
793.862	468.3
794.042	509.26
794.223	427.34
794.404	523.6
794.584	400.72
794.765	413.01
794.945	439.63
795.126	566.6
795.306	513.36
795.487	513.36
795.667	439.63
795.848	503.12
796.028	361.81
796.209	314.7
796.389	494.93
796.57	386.38
796.75	417.1
796.93	386.38
797.111	384.34
797.291	437.58
797.471	388.43
797.652	445.77
797.832	304.46
798.012	451.92
798.192	419.15
798.373	355.66
798.553	406.86
798.733	445.77
798.913	329.04
799.093	380.24
799.274	365.9
799.454	410.96
799.634	402.77
799.814	433.49
799.994	341.33
800.174	382.29
800.354	370
800.534	302.42
800.714	335.18
800.894	335.18
801.074	298.32
801.254	386.38
801.434	402.77
801.614	324.94
801.794	337.23
801.974	1324.35
802.154	277.84
802.334	410.96
802.514	308.56
802.693	331.09
802.873	245.07
803.053	339.28
803.233	404.82
803.413	351.57
803.592	378.19
803.772	310.61
803.952	318.8
804.131	300.37
804.311	320.85
804.491	394.58
804.67	345.42
804.85	341.33
805.03	320.85
805.209	353.62
805.389	277.84
805.568	245.07
805.748	333.14
805.928	240.98
806.107	271.7
806.287	320.85
806.466	286.03
806.646	224.59
806.825	251.22
807.004	249.17
807.184	322.9
807.363	314.7
807.543	208.21
807.722	269.65
807.901	331.09
808.081	339.28
808.26	204.11
808.439	208.21
808.619	265.55
808.798	310.61
808.977	253.27
809.156	312.66
809.336	294.22
809.515	304.46
809.694	218.45
809.873	238.93
810.052	283.98
810.231	320.85
810.411	288.08
810.59	277.84
810.769	253.27
810.948	374.1
811.127	197.97
811.306	255.31
811.485	146.77
811.664	273.75
811.843	251.22
812.022	269.65
812.201	144.72
812.38	179.54
812.559	236.88
812.737	286.03
812.916	142.68
813.095	230.74
813.274	273.75
813.453	275.79
813.632	197.97
813.811	279.89
813.989	218.45
814.168	236.88
814.347	183.63
814.526	195.92
814.704	259.41
814.883	214.35
815.062	152.91
815.24	224.59
815.419	181.59
815.598	183.63
815.776	116.05
815.955	294.22
816.133	140.63
816.312	195.92
816.49	157.01
816.669	126.29
816.847	167.25
817.026	236.88
817.204	157.01
817.383	167.25
817.561	157.01
817.74	220.5
817.918	222.55
818.097	189.78
818.275	136.53
818.453	191.83
818.632	208.21
818.81	150.87
818.988	81.24
819.167	130.39
819.345	167.25
819.523	157.01
819.701	226.64
819.879	200.02
820.058	124.24
820.236	212.31
820.414	142.68
820.592	154.96
820.77	126.29
820.948	142.68
821.127	169.3
821.305	181.59
821.483	126.29
821.661	81.24
821.839	165.2
822.017	161.11
822.195	163.15
822.373	271.7
822.551	128.34
822.729	191.83
822.907	161.11
823.085	214.35
823.262	167.25
823.44	107.86
823.618	189.78
823.796	136.53
823.974	132.44
824.152	165.2
824.329	150.87
824.507	197.97
824.685	230.74
824.863	157.01
825.04	101.72
825.218	175.44
825.396	161.11
825.574	107.86
825.751	75.09
825.929	140.63
826.107	66.9
826.284	148.82
826.462	150.87
826.639	81.24
826.817	19.8
826.994	159.06
827.172	54.61
827.349	206.16
827.527	163.15
827.704	95.57
827.882	181.59
828.059	157.01
828.237	95.57
828.414	197.97
828.591	66.9
828.769	181.59
828.946	58.71
829.124	105.81
829.301	171.35
829.478	132.44
829.655	124.24
829.833	64.85
830.01	32.08
830.187	122.2
830.364	150.87
830.542	79.19
830.719	132.44
830.896	85.33
831.073	183.63
831.25	161.11
831.427	152.91
831.604	146.77
831.782	93.52
831.959	62.8
832.136	62.8
832.313	107.86
832.49	138.58
832.667	157.01
832.844	68.95
833.021	224.59
833.198	136.53
833.374	120.15
833.551	116.05
833.728	132.44
833.905	91.48
834.082	21.85
834.259	157.01
834.436	177.49
834.612	64.85
834.789	142.68
834.966	124.24
835.143	32.08
835.319	77.14
835.496	118.1
835.673	97.62
835.85	159.06
836.026	58.71
836.203	114
836.38	34.13
836.556	105.81
836.733	118.1
836.909	171.35
837.086	101.72
837.262	13.65
837.439	38.23
837.616	93.52
837.792	64.85
837.968	152.91
838.145	40.28
838.321	142.68
838.498	105.81
838.674	118.1
838.851	66.9
839.027	56.66
839.203	60.76
839.38	3.41
839.556	48.47
839.732	126.29
839.909	105.81
840.085	142.68
840.261	89.43
840.437	171.35
840.614	-19.11
840.79	154.96
840.966	25.94
841.142	9.56
841.318	56.66
841.494	107.86
841.671	60.76
841.847	30.04
842.023	40.28
842.199	111.96
842.375	75.09
842.551	1.37
842.727	36.18
842.903	159.06
843.079	81.24
843.255	179.54
843.431	17.75
843.607	54.61
843.783	-45.74
843.959	-6.83
844.134	38.23
844.31	179.54
844.486	40.28
844.662	64.85
844.838	9.56
845.013	50.52
845.189	101.72
845.365	103.76
845.541	62.8
845.716	134.48
845.892	79.19
846.068	73.04
846.244	1.37
846.419	58.71
846.595	-23.21
846.77	79.19
846.946	146.77
847.122	99.67
847.297	136.53
847.473	212.31
847.648	-47.79
847.824	68.95
847.999	-12.97
848.175	15.7
848.35	68.95
848.526	54.61
848.701	54.61
848.876	62.8
849.052	122.2
849.227	40.28
849.403	87.38
849.578	-21.16
849.753	-2.73
849.929	120.15
850.104	19.8
850.279	93.52
850.454	87.38
850.63	60.76
850.805	97.62
850.98	93.52
851.155	58.71
851.33	107.86
851.505	-76.46
851.681	32.08
851.856	3.41
852.031	52.56
852.206	46.42
852.381	-6.83
852.556	97.62
852.731	116.05
852.906	124.24
853.081	40.28
853.256	56.66
853.431	54.61
853.606	19.8
853.781	19.8
853.956	-29.35
854.131	66.9
854.305	-10.92
854.48	-6.83
854.655	34.13
854.83	-25.26
855.005	-51.88
855.18	91.48
855.354	-31.4
855.529	58.71
855.704	7.51
855.879	36.18
856.053	50.52
856.228	85.33
856.403	-55.98
856.577	3.41
856.752	46.42
856.926	27.99
857.101	73.04
857.276	21.85
857.45	13.65
857.625	107.86
857.799	40.28
857.974	93.52
858.148	-41.64
858.323	56.66
858.497	-19.11
858.672	-2.73
858.846	-33.45
859.02	58.71
859.195	15.7
859.369	11.61
859.543	3.41
859.718	52.56
859.892	27.99
860.066	11.61
860.241	-2.73
860.415	-10.92
860.589	77.14
860.763	50.52
860.938	54.61
861.112	-17.07
861.286	87.38
861.46	62.8
861.634	32.08
861.808	85.33
861.982	32.08
862.157	-21.16
862.331	27.99
862.505	-4.78
862.679	-78.51
862.853	34.13
863.027	36.18
863.201	17.75
863.375	-8.87
863.549	-12.97
863.722	111.96
863.896	81.24
864.07	3.41
864.244	15.7
864.418	64.85
864.592	9.56
864.766	73.04
864.939	99.67
865.113	15.7
865.287	130.39
865.461	9.56
865.634	68.95
865.808	30.04
865.982	3.41
866.156	-0.68
866.329	-8.87
866.503	73.04
866.676	38.23
866.85	-4.78
867.024	44.37
867.197	11.61
867.371	97.62
867.544	17.75
867.718	-37.55
867.891	54.61
868.065	-131.75
868.238	3.41
868.412	77.14
868.585	-41.64
868.759	-78.51
868.932	48.47
869.105	-4.78
869.279	-12.97
869.452	-17.07
869.625	-0.68
869.799	56.66
869.972	-29.35
870.145	7.51
870.319	-19.11
870.492	25.94
870.665	-78.51
870.838	11.61
871.011	-76.46
871.185	5.46
871.358	40.28
871.531	48.47
871.704	-35.5
871.877	-15.02
872.05	77.14
872.223	-58.03
872.396	30.04
872.569	19.8
872.742	-35.5
872.915	27.99
873.088	-64.17
873.261	-55.98
873.434	48.47
873.607	-47.79
873.78	3.41
873.953	-31.4
874.126	-62.12
874.299	3.41
874.471	54.61
874.644	19.8
874.817	13.65
874.99	66.9
875.163	1.37
875.335	48.47
875.508	27.99
875.681	54.61
875.853	56.66
876.026	95.57
876.199	64.85
876.371	30.04
876.544	-10.92
876.717	15.7
876.889	-47.79
877.062	42.32
877.234	-2.73
877.407	-51.88
877.579	-15.02
877.752	-41.64
877.924	58.71
878.097	60.76
878.269	-10.92
878.442	38.23
878.614	-47.79
878.786	66.9
878.959	85.33
879.131	-4.78
879.303	-66.22
879.476	25.94
879.648	62.8
879.82	-37.55
879.993	40.28
880.165	-0.68
880.337	-4.78
880.509	3.41
880.681	-8.87
880.854	-43.69
881.026	44.37
881.198	48.47
881.37	48.47
881.542	-43.69
881.714	19.8
881.886	-23.21
882.058	-35.5
882.23	-0.68
882.402	-27.31
882.574	42.32
882.746	9.56
882.918	101.72
883.09	13.65
883.262	-23.21
883.434	-12.97
883.606	-29.35
883.778	50.52
883.95	-21.16
884.122	-8.87
884.293	73.04
884.465	-101.03
884.637	103.76
884.809	-17.07
884.98	66.9
885.152	36.18
885.324	25.94
885.496	-12.97
885.667	1.37
885.839	-41.64
886.011	36.18
886.182	-35.5
886.354	-10.92
886.525	-15.02
886.697	-6.83
886.869	-47.79
887.04	-23.21
887.212	50.52
887.383	25.94
887.555	-37.55
887.726	-23.21
887.897	-47.79
888.069	-39.59
888.24	-43.69
888.412	-8.87
888.583	-29.35
888.754	9.56
888.926	-43.69
889.097	-6.83
889.268	-31.4
889.44	21.85
889.611	-64.17
889.782	-74.41
889.953	-25.26
890.125	58.71
890.296	-53.93
890.467	-25.26
890.638	-66.22
890.809	-60.07
890.98	-29.35
891.151	42.32
891.323	52.56
891.494	3.41
891.665	30.04
891.836	7.51
892.007	-4.78
892.178	-55.98
892.349	36.18
892.52	15.7
892.691	-47.79
892.862	-17.07
893.032	3.41
893.203	-45.74
893.374	56.66
893.545	13.65
893.716	-35.5
893.887	1.37
894.057	-10.92
894.228	-4.78
894.399	-12.97
894.57	56.66
894.74	-29.35
894.911	64.85
895.082	9.56
895.253	-33.45
895.423	5.46
895.594	56.66
895.764	17.75
895.935	-10.92
896.106	-23.21
896.276	-49.83
896.447	-51.88
896.617	-103.08
896.788	25.94
896.958	38.23
897.129	-45.74
897.299	-72.36
897.47	85.33
897.64	36.18
897.81	13.65
897.981	-31.4
898.151	-64.17
898.322	32.08
898.492	32.08
898.662	-84.65
898.832	-51.88
899.003	-8.87
899.173	32.08
899.343	-47.79
899.513	-76.46
