Data from USB4F104151__30__12-11-50-459.txt Node

Date: Fri Mar 14 12:11:50 EDT 2025
User: louis
Spectrometer: USB4F10415
Trigger mode: 4
Integration Time (sec): 5.000000E-2
Scans to average: 1
Electric dark correction enabled: true
Nonlinearity correction enabled: false
Boxcar width: 0
XAxis mode: Wavelengths
Number of Pixels in Spectrum: 3648
>>>>>Begin Spectral Data<<<<<
178.204	-241.83
178.424	-241.83
178.644	-241.83
178.864	-159.91
179.084	-180.39
179.304	-32.94
179.524	-2.22
179.744	30.55
179.964	46.93
180.184	32.6
180.404	3.93
180.624	-55.47
180.844	77.65
181.064	-20.65
181.283	-77.99
181.503	-4.27
181.723	1.88
181.943	-73.9
182.163	137.04
182.383	18.26
182.602	65.36
182.822	63.32
183.042	94.04
183.262	91.99
183.482	61.27
183.701	42.84
183.921	96.08
184.141	-12.46
184.361	91.99
184.58	91.99
184.8	8.02
185.02	-2.22
185.239	81.75
185.459	40.79
185.679	14.17
185.898	-28.84
186.118	46.93
186.338	24.4
186.557	87.89
186.777	87.89
186.997	-18.6
187.216	65.36
187.436	190.29
187.655	28.5
187.875	57.17
188.095	94.04
188.314	110.42
188.534	85.84
188.753	26.45
188.973	40.79
189.192	55.12
189.412	46.93
189.631	42.84
189.851	-26.79
190.07	102.23
190.29	-26.79
190.509	30.55
190.729	28.5
190.948	98.13
191.168	210.77
191.387	3.93
191.607	-14.51
191.826	51.03
192.045	48.98
192.265	46.93
192.484	28.5
192.704	53.08
192.923	-2.22
193.142	118.61
193.362	14.17
193.581	89.94
193.8	22.36
194.02	137.04
194.239	-16.55
194.458	83.8
194.678	3.93
194.897	38.74
195.116	32.6
195.335	10.07
195.555	85.84
195.774	-20.65
195.993	24.4
196.212	26.45
196.432	32.6
196.651	-22.7
196.87	-0.17
197.089	126.8
197.308	28.5
197.528	116.56
197.747	-8.36
197.966	44.88
198.185	128.85
198.404	14.17
198.623	91.99
198.842	91.99
199.062	87.89
199.281	48.98
199.5	89.94
199.719	16.21
199.938	65.36
200.157	143.19
200.376	85.84
200.595	91.99
200.814	48.98
201.033	81.75
201.252	110.42
201.471	130.9
201.69	89.94
201.909	65.36
202.128	171.86
202.347	102.23
202.566	85.84
202.785	-4.27
203.004	36.69
203.223	135
203.442	12.12
203.661	38.74
203.879	18.26
204.098	85.84
204.317	-57.51
204.536	85.84
204.755	28.5
204.974	-4.27
205.193	59.22
205.411	128.85
205.63	91.99
205.849	32.6
206.068	73.56
206.287	44.88
206.505	110.42
206.724	36.69
206.943	42.84
207.162	55.12
207.381	-20.65
207.599	10.07
207.818	83.8
208.037	91.99
208.255	-2.22
208.474	14.17
208.693	67.41
208.911	22.36
209.13	42.84
209.349	55.12
209.567	57.17
209.786	143.19
210.005	51.03
210.223	73.56
210.442	-34.99
210.661	83.8
210.879	71.51
211.098	-12.46
211.316	65.36
211.535	118.61
211.753	61.27
211.972	147.28
212.191	26.45
212.409	51.03
212.628	178
212.846	112.47
213.065	110.42
213.283	137.04
213.502	71.51
213.72	65.36
213.938	3.93
214.157	38.74
214.375	79.7
214.594	69.46
214.812	48.98
215.031	38.74
215.249	32.6
215.467	104.28
215.686	42.84
215.904	112.47
216.122	1.88
216.341	42.84
216.559	63.32
216.778	169.81
216.996	112.47
217.214	-6.31
217.432	46.93
217.651	-0.17
217.869	61.27
218.087	-6.31
218.306	34.64
218.524	24.4
218.742	-37.03
218.96	28.5
219.179	22.36
219.397	8.02
219.615	227.15
219.833	79.7
220.051	30.55
220.27	98.13
220.488	112.47
220.706	151.38
220.924	110.42
221.142	81.75
221.36	22.36
221.578	63.32
221.796	87.89
222.015	48.98
222.233	24.4
222.451	110.42
222.669	48.98
222.887	55.12
223.105	36.69
223.323	-8.36
223.541	-10.41
223.759	44.88
223.977	30.55
224.195	104.28
224.413	10.07
224.631	-14.51
224.849	28.5
225.067	116.56
225.285	89.94
225.503	32.6
225.721	-116.9
225.939	71.51
226.157	-10.41
226.375	110.42
226.592	40.79
226.81	8.02
227.028	110.42
227.246	122.71
227.464	36.69
227.682	57.17
227.9	83.8
228.117	102.23
228.335	36.69
228.553	42.84
228.771	36.69
228.989	81.75
229.206	30.55
229.424	-0.17
229.642	63.32
229.86	53.08
230.077	108.37
230.295	30.55
230.513	14.17
230.731	87.89
230.948	135
231.166	126.8
231.384	71.51
231.601	12.12
231.819	104.28
232.037	38.74
232.254	40.79
232.472	46.93
232.689	38.74
232.907	36.69
233.125	28.5
233.342	83.8
233.56	75.6
233.777	48.98
233.995	-18.6
234.213	102.23
234.43	48.98
234.648	34.64
234.865	14.17
235.083	65.36
235.3	69.46
235.518	77.65
235.735	104.28
235.953	124.76
236.17	30.55
236.388	51.03
236.605	67.41
236.822	135
237.04	59.22
237.257	18.26
237.475	-22.7
237.692	75.6
237.909	73.56
238.127	30.55
238.344	36.69
238.562	18.26
238.779	46.93
238.996	-4.27
239.214	94.04
239.431	81.75
239.648	-14.51
239.865	-4.27
240.083	22.36
240.3	26.45
240.517	63.32
240.735	36.69
240.952	44.88
241.169	96.08
241.386	151.38
241.603	-12.46
241.821	32.6
242.038	61.27
242.255	102.23
242.472	26.45
242.689	61.27
242.907	-12.46
243.124	57.17
243.341	26.45
243.558	-39.08
243.775	-4.27
243.992	32.6
244.209	94.04
244.426	147.28
244.643	116.56
244.86	55.12
245.078	63.32
245.295	38.74
245.512	32.6
245.729	44.88
245.946	-16.55
246.163	3.93
246.38	1.88
246.597	87.89
246.814	108.37
247.031	-12.46
247.248	73.56
247.464	141.14
247.681	22.36
247.898	130.9
248.115	81.75
248.332	5.97
248.549	91.99
248.766	34.64
248.983	10.07
249.2	59.22
249.417	98.13
249.633	26.45
249.85	12.12
250.067	40.79
250.284	5.97
250.501	87.89
250.717	18.26
250.934	-39.08
251.151	16.21
251.368	51.03
251.585	36.69
251.801	18.26
252.018	118.61
252.235	71.51
252.451	12.12
252.668	44.88
252.885	96.08
253.102	100.18
253.318	28.5
253.535	118.61
253.752	51.03
253.968	-12.46
254.185	32.6
254.401	71.51
254.618	14.17
254.835	-53.42
255.051	169.81
255.268	75.6
255.484	-12.46
255.701	59.22
255.917	65.36
256.134	30.55
256.351	65.36
256.567	28.5
256.784	8.02
257	-12.46
257.217	24.4
257.433	12.12
257.65	79.7
257.866	48.98
258.082	-34.99
258.299	16.21
258.515	100.18
258.732	-57.51
258.948	26.45
259.165	57.17
259.381	-2.22
259.597	-43.18
259.814	46.93
260.03	42.84
260.246	38.74
260.463	36.69
260.679	89.94
260.895	-6.31
261.112	38.74
261.328	34.64
261.544	46.93
261.761	114.52
261.977	-41.13
262.193	28.5
262.409	79.7
262.626	130.9
262.842	-6.31
263.058	16.21
263.274	132.95
263.49	55.12
263.707	112.47
263.923	104.28
264.139	-39.08
264.355	87.89
264.571	53.08
264.787	71.51
265.004	36.69
265.22	71.51
265.436	-0.17
265.652	61.27
265.868	22.36
266.084	-32.94
266.3	71.51
266.516	24.4
266.732	106.32
266.948	106.32
267.164	-16.55
267.38	57.17
267.596	137.04
267.812	83.8
268.028	83.8
268.244	22.36
268.46	-4.27
268.676	10.07
268.892	71.51
269.108	16.21
269.324	-90.28
269.54	-32.94
269.756	98.13
269.972	-65.71
270.188	-55.47
270.403	1.88
270.619	77.65
270.835	38.74
271.051	22.36
271.267	12.12
271.483	98.13
271.698	5.97
271.914	65.36
272.13	28.5
272.346	55.12
272.562	-10.41
272.777	46.93
272.993	16.21
273.209	24.4
273.425	85.84
273.64	22.36
273.856	26.45
274.072	77.65
274.287	44.88
274.503	169.81
274.719	91.99
274.934	-6.31
275.15	-45.23
275.366	-20.65
275.581	53.08
275.797	85.84
276.012	14.17
276.228	30.55
276.444	42.84
276.659	26.45
276.875	65.36
277.09	-26.79
277.306	46.93
277.521	14.17
277.737	28.5
277.952	67.41
278.168	-10.41
278.383	34.64
278.599	38.74
278.814	126.8
279.03	55.12
279.245	63.32
279.461	32.6
279.676	116.56
279.892	-37.03
280.107	-4.27
280.322	-47.27
280.538	28.5
280.753	-6.31
280.969	38.74
281.184	81.75
281.399	63.32
281.615	-24.75
281.83	87.89
282.045	26.45
282.26	-32.94
282.476	12.12
282.691	126.8
282.906	18.26
283.122	51.03
283.337	55.12
283.552	-4.27
283.767	-8.36
283.983	-6.31
284.198	81.75
284.413	36.69
284.628	-47.27
284.843	16.21
285.058	38.74
285.274	3.93
285.489	30.55
285.704	116.56
285.919	65.36
286.134	14.17
286.349	22.36
286.564	55.12
286.779	165.71
286.995	46.93
287.21	-53.42
287.425	71.51
287.64	20.31
287.855	48.98
288.07	16.21
288.285	42.84
288.5	98.13
288.715	81.75
288.93	71.51
289.145	-6.31
289.36	20.31
289.575	-8.36
289.79	139.09
290.004	75.6
290.219	94.04
290.434	36.69
290.649	-26.79
290.864	32.6
291.079	112.47
291.294	85.84
291.509	26.45
291.724	-37.03
291.938	65.36
292.153	46.93
292.368	34.64
292.583	51.03
292.798	59.22
293.012	46.93
293.227	96.08
293.442	44.88
293.657	85.84
293.871	63.32
294.086	8.02
294.301	81.75
294.516	14.17
294.73	61.27
294.945	26.45
295.16	8.02
295.374	63.32
295.589	87.89
295.804	71.51
296.018	-6.31
296.233	89.94
296.447	69.46
296.662	61.27
296.877	10.07
297.091	67.41
297.306	-0.17
297.52	26.45
297.735	77.65
297.949	40.79
298.164	10.07
298.378	30.55
298.593	63.32
298.807	-39.08
299.022	48.98
299.236	137.04
299.451	34.64
299.665	20.31
299.88	65.36
300.094	-49.32
300.309	53.08
300.523	98.13
300.737	44.88
300.952	12.12
301.166	91.99
301.381	12.12
301.595	-2.22
301.809	42.84
302.024	79.7
302.238	10.07
302.452	69.46
302.667	28.5
302.881	38.74
303.095	59.22
303.309	22.36
303.524	22.36
303.738	-6.31
303.952	63.32
304.166	102.23
304.381	-20.65
304.595	63.32
304.809	16.21
305.023	53.08
305.237	22.36
305.452	30.55
305.666	98.13
305.88	61.27
306.094	130.9
306.308	83.8
306.522	57.17
306.736	1.88
306.95	85.84
307.164	24.4
307.379	14.17
307.593	77.65
307.807	91.99
308.021	51.03
308.235	34.64
308.449	-14.51
308.663	30.55
308.877	235.35
309.091	28.5
309.305	38.74
309.519	-67.75
309.733	63.32
309.947	5.97
310.161	79.7
310.374	83.8
310.588	69.46
310.802	48.98
311.016	-8.36
311.23	-2.22
311.444	-63.66
311.658	18.26
311.872	65.36
312.085	137.04
312.299	63.32
312.513	147.28
312.727	40.79
312.941	85.84
313.154	61.27
313.368	128.85
313.582	69.46
313.796	63.32
314.009	-8.36
314.223	139.09
314.437	57.17
314.651	36.69
314.864	40.79
315.078	8.02
315.292	-30.89
315.505	12.12
315.719	42.84
315.933	132.95
316.146	36.69
316.36	-82.09
316.573	108.37
316.787	77.65
317.001	71.51
317.214	-18.6
317.428	30.55
317.641	-18.6
317.855	40.79
318.068	-0.17
318.282	18.26
318.495	98.13
318.709	61.27
318.922	44.88
319.136	110.42
319.349	94.04
319.563	3.93
319.776	5.97
319.99	-55.47
320.203	16.21
320.417	110.42
320.63	85.84
320.843	63.32
321.057	12.12
321.27	71.51
321.483	38.74
321.697	141.14
321.91	85.84
322.124	42.84
322.337	65.36
322.55	36.69
322.763	44.88
322.977	126.8
323.19	-4.27
323.403	-14.51
323.617	65.36
323.83	34.64
324.043	20.31
324.256	3.93
324.469	-16.55
324.683	110.42
324.896	40.79
325.109	24.4
325.322	-18.6
325.535	77.65
325.748	51.03
325.962	110.42
326.175	55.12
326.388	69.46
326.601	38.74
326.814	-69.8
327.027	71.51
327.24	120.66
327.453	-82.09
327.666	18.26
327.879	63.32
328.092	34.64
328.305	77.65
328.518	-8.36
328.731	-45.23
328.944	30.55
329.157	48.98
329.37	32.6
329.583	100.18
329.796	71.51
330.009	-22.7
330.222	12.12
330.435	73.56
330.648	53.08
330.861	98.13
331.073	94.04
331.286	51.03
331.499	48.98
331.712	-55.47
331.925	-18.6
332.138	10.07
332.35	77.65
332.563	51.03
332.776	89.94
332.989	51.03
333.202	26.45
333.414	34.64
333.627	14.17
333.84	46.93
334.053	110.42
334.265	40.79
334.478	-22.7
334.691	46.93
334.903	85.84
335.116	26.45
335.329	-8.36
335.541	1.88
335.754	161.62
335.966	26.45
336.179	36.69
336.392	48.98
336.604	73.56
336.817	108.37
337.029	36.69
337.242	46.93
337.454	96.08
337.667	55.12
337.88	196.43
338.092	-30.89
338.305	73.56
338.517	61.27
338.729	46.93
338.942	104.28
339.154	18.26
339.367	-6.31
339.579	114.52
339.792	20.31
340.004	26.45
340.217	71.51
340.429	30.55
340.641	28.5
340.854	8.02
341.066	-14.51
341.278	63.32
341.491	79.7
341.703	79.7
341.915	-30.89
342.128	24.4
342.34	61.27
342.552	65.36
342.764	67.41
342.977	48.98
343.189	77.65
343.401	48.98
343.613	-12.46
343.826	24.4
344.038	22.36
344.25	10.07
344.462	-32.94
344.674	61.27
344.886	59.22
345.099	85.84
345.311	-6.31
345.523	100.18
345.735	20.31
345.947	57.17
346.159	1.88
346.371	75.6
346.583	-14.51
346.795	167.76
347.007	10.07
347.219	100.18
347.431	73.56
347.643	192.34
347.855	34.64
348.067	110.42
348.279	-51.37
348.491	48.98
348.703	38.74
348.915	36.69
349.127	-8.36
349.339	69.46
349.551	63.32
349.763	77.65
349.975	34.64
350.187	44.88
350.399	69.46
350.61	65.36
350.822	118.61
351.034	44.88
351.246	24.4
351.458	24.4
351.669	53.08
351.881	94.04
352.093	75.6
352.305	30.55
352.517	26.45
352.728	34.64
352.94	71.51
353.152	5.97
353.363	10.07
353.575	71.51
353.787	87.89
353.999	42.84
354.21	94.04
354.422	28.5
354.633	1.88
354.845	42.84
355.057	38.74
355.268	184.15
355.48	81.75
355.692	42.84
355.903	-6.31
356.115	44.88
356.326	-47.27
356.538	85.84
356.749	-0.17
356.961	63.32
357.172	28.5
357.384	-28.84
357.595	79.7
357.807	67.41
358.018	46.93
358.23	94.04
358.441	147.28
358.653	57.17
358.864	-26.79
359.075	55.12
359.287	-59.56
359.498	143.19
359.709	51.03
359.921	126.8
360.132	91.99
360.344	53.08
360.555	59.22
360.766	96.08
360.977	20.31
361.189	59.22
361.4	116.56
361.611	89.94
361.823	132.95
362.034	61.27
362.245	-6.31
362.456	1.88
362.667	18.26
362.879	-18.6
363.09	44.88
363.301	61.27
363.512	65.36
363.723	110.42
363.935	12.12
364.146	46.93
364.357	75.6
364.568	48.98
364.779	-16.55
364.99	10.07
365.201	28.5
365.412	44.88
365.623	12.12
365.834	69.46
366.045	30.55
366.256	85.84
366.467	32.6
366.678	79.7
366.889	53.08
367.1	-6.31
367.311	75.6
367.522	-0.17
367.733	75.6
367.944	153.43
368.155	36.69
368.366	63.32
368.577	96.08
368.788	61.27
368.999	55.12
369.209	143.19
369.42	163.67
369.631	145.24
369.842	91.99
370.053	-6.31
370.264	77.65
370.474	32.6
370.685	94.04
370.896	77.65
371.107	94.04
371.317	28.5
371.528	26.45
371.739	67.41
371.95	61.27
372.16	79.7
372.371	59.22
372.582	69.46
372.792	126.8
373.003	-12.46
373.214	44.88
373.424	46.93
373.635	-28.84
373.846	114.52
374.056	63.32
374.267	79.7
374.477	79.7
374.688	51.03
374.898	-8.36
375.109	30.55
375.319	85.84
375.53	77.65
375.74	102.23
375.951	-8.36
376.161	75.6
376.372	145.24
376.582	128.85
376.793	132.95
377.003	20.31
377.214	-22.7
377.424	34.64
377.635	16.21
377.845	-8.36
378.055	20.31
378.266	-47.27
378.476	65.36
378.686	83.8
378.897	61.27
379.107	147.28
379.317	94.04
379.528	44.88
379.738	55.12
379.948	12.12
380.158	94.04
380.369	-8.36
380.579	139.09
380.789	98.13
380.999	67.41
381.21	65.36
381.42	104.28
381.63	-30.89
381.84	38.74
382.05	120.66
382.261	57.17
382.471	91.99
382.681	83.8
382.891	102.23
383.101	12.12
383.311	-14.51
383.521	51.03
383.731	69.46
383.941	53.08
384.151	67.41
384.361	18.26
384.571	46.93
384.781	71.51
384.991	48.98
385.201	153.43
385.411	81.75
385.621	128.85
385.831	94.04
386.041	73.56
386.251	59.22
386.461	130.9
386.671	40.79
386.881	59.22
387.091	32.6
387.301	51.03
387.511	-28.84
387.72	5.97
387.93	38.74
388.14	-55.47
388.35	100.18
388.56	71.51
388.769	202.58
388.979	57.17
389.189	10.07
389.399	40.79
389.609	110.42
389.818	69.46
390.028	81.75
390.238	83.8
390.447	14.17
390.657	81.75
390.867	26.45
391.076	48.98
391.286	24.4
391.496	46.93
391.705	40.79
391.915	108.37
392.125	83.8
392.334	26.45
392.544	135
392.753	-39.08
392.963	-63.66
393.172	104.28
393.382	10.07
393.591	147.28
393.801	40.79
394.01	73.56
394.22	96.08
394.429	26.45
394.639	5.97
394.848	28.5
395.058	28.5
395.267	65.36
395.477	69.46
395.686	112.47
395.895	110.42
396.105	83.8
396.314	81.75
396.524	81.75
396.733	153.43
396.942	51.03
397.152	108.37
397.361	79.7
397.57	122.71
397.78	149.33
397.989	100.18
398.198	218.96
398.407	102.23
398.617	173.91
398.826	106.32
399.035	85.84
399.244	104.28
399.453	85.84
399.663	81.75
399.872	98.13
400.081	20.31
400.29	112.47
400.499	34.64
400.708	186.19
400.917	42.84
401.127	51.03
401.336	3.93
401.545	163.67
401.754	175.95
401.963	116.56
402.172	71.51
402.381	63.32
402.59	53.08
402.799	26.45
403.008	151.38
403.217	104.28
403.426	149.33
403.635	73.56
403.844	128.85
404.053	59.22
404.262	51.03
404.471	235.35
404.68	91.99
404.888	94.04
405.097	122.71
405.306	114.52
405.515	141.14
405.724	114.52
405.933	255.83
406.142	143.19
406.35	124.76
406.559	171.86
406.768	180.05
406.977	167.76
407.185	182.1
407.394	132.95
407.603	126.8
407.812	196.43
408.02	237.39
408.229	130.9
408.438	237.39
408.646	159.57
408.855	190.29
409.064	272.21
409.272	190.29
409.481	255.83
409.69	284.5
409.898	132.95
410.107	282.45
410.315	241.49
410.524	167.76
410.733	278.35
410.941	266.07
411.15	337.74
411.358	292.69
411.567	345.94
411.775	313.17
411.984	362.32
412.192	296.78
412.401	237.39
412.609	456.53
412.818	399.18
413.026	454.48
413.234	413.52
413.443	456.53
413.651	438.09
413.86	528.21
414.068	485.2
414.276	526.16
414.485	460.62
414.693	593.74
414.901	585.55
415.11	587.6
415.318	567.12
415.526	585.55
415.734	679.75
415.943	567.12
416.151	603.98
416.359	608.08
416.567	698.19
416.776	667.47
416.984	790.35
417.192	831.3
417.4	671.56
417.608	743.24
417.817	708.43
418.025	927.56
418.233	974.66
418.441	835.4
418.649	923.46
418.857	954.18
419.065	1025.86
419.273	905.03
419.481	1046.34
419.689	1109.83
419.897	1210.18
420.105	1087.3
420.313	1199.94
420.521	1357.63
420.729	1236.8
420.937	1165.12
421.145	1210.18
421.353	1433.41
421.561	1472.32
421.769	1417.02
421.977	1482.56
422.185	1460.03
422.393	1611.58
422.601	1808.19
422.809	1675.07
423.017	1736.51
423.224	1777.47
423.432	1802.04
423.64	1789.75
423.848	1984.31
424.056	1961.78
424.263	2076.47
424.471	2074.42
424.679	2154.29
424.887	2201.4
425.094	2387.76
425.302	2258.74
425.51	2299.7
425.718	2510.64
425.925	2604.85
426.133	2649.9
426.341	2887.47
426.548	2836.27
426.756	2977.58
426.964	2957.1
427.171	3094.31
427.379	3135.27
427.586	3120.93
427.794	3389.22
428.001	3417.89
428.209	3577.63
428.417	3469.09
428.624	3731.23
428.832	3829.53
429.039	3817.24
429.247	3745.56
429.454	4071.19
429.662	4413.2
429.869	4099.86
430.076	4308.76
430.284	4339.48
430.491	4407.06
430.699	4603.66
430.906	4620.05
431.114	4699.92
431.321	4960.01
431.528	4976.39
431.736	5230.34
431.943	5416.71
432.15	5279.49
432.358	5435.14
432.565	5785.34
432.772	5857.02
432.979	5943.03
433.187	6229.75
433.394	6153.98
433.601	6729.45
433.808	6389.49
434.016	6452.98
434.223	6872.81
434.43	7266.02
434.637	7073.51
434.844	7548.64
435.052	7593.7
435.259	7585.51
435.466	7677.66
435.673	7769.82
435.88	8177.37
436.087	8376.02
436.294	8490.71
436.501	8320.73
436.708	8189.66
436.915	8734.42
437.122	8949.45
437.329	8924.88
437.537	9244.36
437.743	9357
437.95	9510.6
438.157	9987.77
438.364	10290.87
438.571	10020.54
438.778	10272.44
438.985	11144.88
439.192	10626.74
439.399	11026.09
439.606	10583.73
439.813	11652.77
440.02	12082.84
440.227	11959.97
440.433	11968.16
440.64	12265.11
440.847	12095.13
441.054	12316.31
441.261	13274.76
441.467	13039.25
441.674	13297.29
441.881	13629.06
442.088	13592.2
442.294	13518.47
442.501	14118.53
442.708	14192.25
442.914	14581.37
443.121	15126.13
443.328	15115.89
443.534	16127.58
443.741	15767.14
443.948	15406.7
444.154	16653.91
444.361	16528.99
444.568	16418.39
444.774	16737.88
444.981	16764.5
445.187	17274.45
445.394	17671.75
445.6	17673.8
445.807	19365.42
446.013	18634.3
446.22	18902.58
446.426	19451.44
446.633	19602.99
446.839	20491.8
447.046	19273.26
447.252	20567.58
447.459	20633.11
447.665	20325.92
447.871	21646.86
448.078	22492.67
448.284	21159.44
448.491	22062.6
448.697	23041.53
448.903	23240.18
449.11	23358.96
449.316	23086.58
449.522	23481.84
449.728	23829.99
449.935	24190.44
450.141	23895.53
450.347	24550.88
450.553	23711.21
450.76	24172
450.966	25007.58
451.172	24503.78
451.378	25013.72
451.584	24628.7
451.791	25261.52
451.997	25222.61
452.203	25791.95
452.409	25548.24
452.615	25255.38
452.821	24423.9
453.027	24409.57
453.233	25484.75
453.44	24380.9
453.646	24692.19
453.852	24905.18
454.058	25091.54
454.264	24120.81
454.47	24747.48
454.676	24489.44
454.882	25105.88
455.088	22605.31
455.294	23102.96
455.5	23782.89
455.705	23803.37
455.911	22728.19
456.117	22136.32
456.323	22048.26
456.529	20811.29
456.735	21612.04
456.941	21206.55
457.147	21026.32
457.352	20090.4
457.558	19963.43
457.764	19910.18
457.97	19598.89
458.176	19052.08
458.381	18748.98
458.587	18073.15
458.793	18128.45
458.999	17210.96
459.204	18337.34
459.41	18165.31
459.616	16578.14
459.821	16664.15
460.027	16494.17
460.233	16258.65
460.438	15347.31
460.644	15576.68
460.85	14843.51
461.055	14831.22
461.261	14493.3
461.466	13446.79
461.672	13153.93
461.878	13858.43
462.083	12965.52
462.289	12854.93
462.494	12547.73
462.7	12152.48
462.905	11771.55
463.111	12332.7
463.316	12125.85
463.522	11955.87
463.727	11763.36
463.932	11859.62
464.138	11945.63
464.343	11892.38
464.549	11339.43
464.754	11767.46
464.959	11679.4
465.165	11607.72
465.37	11185.83
465.575	10679.99
465.781	11114.16
465.986	11304.62
466.191	10786.48
466.397	10471.09
466.602	10006.2
466.807	10596.02
467.012	10442.42
467.218	10383.03
467.423	10247.86
467.628	10612.4
467.833	10415.8
468.038	10460.85
468.244	10067.64
468.449	10434.23
468.654	10053.31
468.859	10047.16
469.064	9936.57
469.269	9592.51
469.474	9639.62
469.679	9752.26
469.885	9629.38
470.09	9590.47
470.295	9367.24
470.5	9131.72
470.705	9154.25
470.91	9230.02
471.115	9008.84
471.32	9101
471.525	9279.18
471.73	8926.93
471.935	8853.2
472.139	8435.41
472.344	8416.98
472.549	8486.61
472.754	8535.76
472.959	8283.86
473.164	8109.79
473.369	8101.59
473.574	8388.31
473.778	8431.32
473.983	8107.74
474.188	7991
474.393	7769.82
474.598	7665.38
474.802	7653.09
475.007	7448.29
475.212	7818.97
475.417	7198.44
475.621	7403.24
475.826	7360.23
476.031	6913.77
476.235	7083.75
476.44	7388.9
476.645	7028.46
476.849	7151.34
477.054	6946.54
477.259	6874.86
477.463	6803.18
477.668	6821.61
477.872	6764.27
478.077	6706.93
478.282	6452.98
478.486	6418.16
478.691	6518.51
478.895	6311.67
479.1	6291.19
479.304	6203.13
479.509	6039.29
479.713	6260.47
479.918	6053.62
480.122	6067.96
480.326	5945.08
480.531	6045.43
480.735	5867.26
480.94	5906.17
481.144	6110.97
481.348	5777.15
481.553	5746.43
481.757	5732.09
481.961	5826.3
482.166	5885.69
482.37	5883.64
482.574	5873.4
482.778	5777.15
482.983	5955.32
483.187	5797.63
483.391	5904.12
483.595	5605.12
483.8	5889.79
484.004	5848.83
484.208	5824.25
484.412	5826.3
484.616	5900.03
484.821	5746.43
485.025	5646.08
485.229	5693.18
485.433	5615.36
485.637	5717.76
485.841	5764.86
486.045	5807.87
486.249	5670.65
486.453	5703.42
486.657	5738.24
486.861	5816.06
487.065	5633.79
487.269	5615.36
487.473	5551.87
487.677	5734.14
487.881	5756.67
488.085	5758.72
488.289	5795.58
488.493	5644.03
488.697	5943.03
488.901	5830.4
489.105	5836.54
489.309	5799.68
489.512	5674.75
489.716	5676.8
489.92	5795.58
490.124	5842.68
490.328	5848.83
490.531	5721.85
490.735	5936.89
490.939	5906.17
491.143	5719.81
491.346	5805.82
491.55	5891.84
491.754	6088.44
491.958	5713.66
492.161	5805.82
492.365	5998.33
492.569	5969.66
492.772	5754.62
492.976	6055.67
493.18	5949.18
493.383	6289.14
493.587	6119.16
493.79	6235.89
493.994	6231.8
494.197	6176.5
494.401	6231.8
494.605	6199.03
494.808	6348.53
495.012	6420.21
495.215	6469.36
495.419	6590.19
495.622	6448.88
495.825	6289.14
496.029	6457.07
496.232	6670.06
496.436	6500.08
496.639	6823.66
496.843	6582
497.046	6840.04
497.249	6889.2
497.453	6897.39
497.656	6958.83
497.859	6807.28
498.063	7122.66
498.266	7165.67
498.469	7188.2
498.673	7218.92
498.876	7390.95
499.079	7565.03
499.282	7524.07
499.485	7720.67
499.689	7552.74
499.892	7804.64
500.095	7886.56
500.298	7935.71
500.501	7806.69
500.705	8007.39
500.908	7993.05
501.111	8173.27
501.314	8408.79
501.517	8355.54
501.72	8558.29
501.923	8357.59
502.126	8591.06
502.329	8783.57
502.532	8601.3
502.735	8656.59
502.938	8994.51
503.141	8984.27
503.344	9238.22
503.547	9170.63
503.75	9340.61
503.953	9416.39
504.156	9475.78
504.359	9592.51
504.562	9766.59
504.765	10008.25
504.968	10102.46
505.17	10102.46
505.373	10190.52
505.576	10243.77
505.779	10346.17
505.982	10352.31
506.185	10530.48
506.387	10708.66
506.59	10614.45
506.793	11048.62
506.996	10729.14
507.198	11026.09
507.401	11110.06
507.604	11361.96
507.807	11511.46
508.009	11634.34
508.212	11681.44
508.415	11658.92
508.617	11982.49
508.82	11757.22
509.022	11869.86
509.225	12095.13
509.428	12086.94
509.63	12439.19
509.833	12224.15
510.035	12883.6
510.238	12504.73
510.44	12805.78
510.643	12885.65
510.845	12908.18
511.048	12813.97
511.25	13307.53
511.453	13362.83
511.655	13817.47
511.858	13856.39
512.06	13780.61
512.262	13735.56
512.465	13694.6
512.667	14038.66
512.87	14229.12
513.072	14020.22
513.274	14472.82
513.477	14495.35
513.679	14724.72
513.881	14798.45
514.084	14812.79
514.286	14716.53
514.488	14837.36
514.69	15183.47
514.893	15259.24
515.095	15521.38
515.297	15519.34
515.499	15728.23
515.701	15703.65
515.904	16047.71
516.106	16043.62
516.308	16051.81
516.51	16275.04
516.712	16334.43
516.914	16879.19
517.116	16684.63
517.318	16803.41
517.52	16930.39
517.722	16688.73
517.925	17223.25
518.127	17231.44
518.329	17393.23
518.531	17249.87
518.733	17589.83
518.935	17821.25
519.136	17790.53
519.338	17667.66
519.54	18239.04
519.742	18218.56
519.944	18206.27
520.146	18327.1
520.348	18296.38
520.55	18601.53
520.752	18669.11
520.954	18929.2
521.155	18914.87
521.357	19168.82
521.559	19037.75
521.761	19242.54
521.963	19164.72
522.164	19457.58
522.366	19156.53
522.568	19543.6
522.77	19830.31
522.971	19899.94
523.173	19744.3
523.375	19836.45
523.576	19877.41
523.778	19791.4
523.98	20131.36
524.181	20059.68
524.383	20430.37
524.584	20381.21
524.786	20487.71
524.988	20313.63
525.189	20520.48
525.391	20504.09
525.592	20743.7
525.794	20631.07
525.995	20784.66
526.197	20678.17
526.398	20868.63
526.6	20928.02
526.801	21128.72
527.003	21196.31
527.204	21114.39
527.406	21552.65
527.607	21378.58
527.808	21368.34
528.01	20962.84
528.211	21030.42
528.412	21724.68
528.614	21607.95
528.815	21470.73
529.016	22095.36
529.218	21607.95
529.419	21358.1
529.62	21499.41
529.822	21306.9
530.023	21528.08
530.224	21669.39
530.425	21550.6
530.626	21626.38
530.828	21489.17
531.029	21925.38
531.23	21519.88
531.431	21597.71
531.632	21442.06
531.833	21597.71
532.035	21519.88
532.236	21802.5
532.437	21786.12
532.638	21456.4
532.839	21759.5
533.04	21671.43
533.241	21552.65
533.442	21831.18
533.643	21720.59
533.844	21915.14
534.045	21941.77
534.246	21685.77
534.447	21698.06
534.648	21673.48
534.849	21859.85
535.05	21665.29
535.251	22099.46
535.451	21812.74
535.652	21812.74
535.853	21630.48
536.054	21829.13
536.255	21736.97
536.456	21685.77
536.657	21728.78
536.857	21882.38
537.058	21329.42
537.259	21534.22
537.46	21714.44
537.66	21653
537.861	21562.89
538.062	21476.88
538.263	21577.23
538.463	21777.93
538.664	21614.09
538.865	21581.32
539.065	21495.31
539.266	21538.32
539.466	21829.13
539.667	21571.08
539.868	21822.98
540.068	21636.62
540.269	21466.64
540.469	21788.17
540.67	21388.81
540.87	21667.34
541.071	21415.44
541.271	21501.45
541.472	21671.43
541.672	21472.78
541.873	21564.94
542.073	21337.62
542.274	21511.69
542.474	21302.8
542.675	21102.1
542.875	21814.79
543.075	21513.74
543.276	21194.26
543.476	21650.95
543.676	21745.16
543.877	21894.66
544.077	21464.59
544.277	21399.05
544.478	21294.61
544.678	21247.51
544.878	21585.42
545.078	21429.77
545.279	21200.4
545.479	21282.32
545.679	21689.87
545.879	21358.1
546.079	21376.53
546.28	21083.67
546.48	21130.77
546.68	21407.25
546.88	21556.75
547.08	21214.74
547.28	21083.67
547.48	21171.73
547.68	21411.34
547.88	21265.94
548.081	21208.59
548.281	21188.11
548.481	21231.12
548.681	21313.04
548.881	21411.34
549.081	21433.87
549.28	21032.47
549.48	21399.05
549.68	21085.72
549.88	21634.57
550.08	21145.11
550.28	21288.46
550.48	21186.07
550.68	21276.18
550.88	20977.17
551.08	20997.65
551.279	21224.98
551.479	20948.5
551.679	21181.97
551.879	20870.68
552.079	21407.25
552.278	20913.69
552.478	21413.39
552.678	21110.29
552.878	20991.51
553.077	21310.99
553.277	20743.7
553.477	21153.3
553.676	21022.23
553.876	21034.52
554.076	21196.31
554.275	21259.79
554.475	20735.51
554.674	21114.39
554.874	20995.6
555.074	20911.64
555.273	21315.09
555.473	21462.54
555.672	20868.63
555.872	21087.76
556.071	21175.83
556.271	21044.76
556.47	20921.88
556.67	21241.36
556.869	21036.56
557.068	21114.39
557.268	20622.87
557.467	20993.56
557.667	20899.35
557.866	20907.54
558.065	20960.79
558.265	21083.67
558.464	20856.34
558.663	20938.26
558.863	20747.8
559.062	21077.52
559.261	20760.09
559.461	21241.36
559.66	20571.68
559.859	20938.26
560.058	20817.43
560.258	21005.84
560.457	20813.34
560.656	20864.53
560.855	20876.82
561.054	20934.17
561.253	20770.33
561.453	20852.25
561.652	20991.51
561.851	20784.66
562.05	20815.38
562.249	20745.75
562.448	20663.83
562.647	20977.17
562.846	20893.21
563.045	20874.77
563.244	20287.01
563.443	21128.72
563.642	20762.14
563.841	20549.15
564.04	20631.07
564.239	20966.93
564.438	20794.9
564.637	20770.33
564.836	20567.58
565.035	20454.94
565.234	20842.01
565.432	20598.3
565.631	20801.05
565.83	20485.66
566.029	20604.44
566.228	20672.03
566.427	20557.34
566.625	20465.18
566.824	20248.1
567.023	20764.18
567.222	20385.31
567.42	20612.63
567.619	20596.25
567.818	20403.74
568.016	20528.67
568.215	20780.57
568.414	20352.54
568.612	20452.89
568.811	20153.89
569.01	20479.52
569.208	20282.91
569.407	20459.04
569.605	20366.88
569.804	20540.96
570.002	20436.51
570.201	20522.52
570.4	19957.28
570.598	20348.45
570.797	20033.06
570.995	20256.29
571.193	20233.76
571.392	20346.4
571.59	20094.5
571.789	20508.19
571.987	20358.69
572.186	20182.56
572.384	20026.92
572.582	20133.41
572.781	20278.82
572.979	20168.23
573.177	20190.75
573.376	20151.84
573.574	20002.34
573.772	20031.01
573.971	19969.57
574.169	19811.88
574.367	19768.87
574.565	20133.41
574.763	19797.54
574.962	20020.77
575.16	19830.31
575.358	19664.43
575.556	19793.45
575.754	20033.06
575.952	19834.41
576.151	19861.03
576.349	19664.43
576.547	19662.38
576.745	19746.34
576.943	19891.75
577.141	19613.23
577.339	19557.93
577.537	19633.71
577.735	19600.94
577.933	19877.41
578.131	19621.42
578.329	19631.66
578.527	19414.57
578.725	19617.32
578.923	19424.81
579.121	19596.84
579.319	19559.98
579.516	19476.01
579.714	19602.99
579.912	19519.02
580.11	19265.07
580.308	19426.86
580.506	19580.46
580.704	19093.04
580.901	19781.16
581.099	19799.59
581.297	19109.43
581.495	19244.59
581.692	19418.67
581.89	19303.98
582.088	19273.26
582.285	19254.83
582.483	19289.65
582.681	19359.28
582.878	19099.19
583.076	19220.02
583.274	19332.65
583.471	19191.34
583.669	19377.71
583.866	19066.42
584.064	19086.9
584.262	18998.84
584.459	19291.69
584.657	19142.19
584.854	19082.8
585.052	18916.92
585.249	18859.57
585.447	18888.25
585.644	18990.64
585.841	19074.61
586.039	19244.59
586.236	19009.08
586.434	18994.74
586.631	18761.27
586.828	18636.34
587.026	19023.41
587.223	19043.89
587.42	18724.41
587.618	18875.96
587.815	18714.17
588.012	18658.87
588.21	18857.53
588.407	18933.3
588.604	18779.7
588.801	18648.63
588.999	18761.27
589.196	18851.38
589.393	18705.98
589.59	18691.64
589.787	18593.34
589.984	18880.05
590.182	18906.68
590.379	18503.23
590.576	18464.32
590.773	18957.88
590.97	18515.51
591.167	18595.39
591.364	18388.54
591.561	18488.89
591.758	18644.54
591.955	18220.61
592.152	18738.74
592.349	18402.88
592.546	18525.75
592.743	18400.83
592.94	18390.59
593.137	18550.33
593.334	18732.6
593.531	18396.73
593.727	18619.96
593.924	18656.82
594.121	18560.57
594.318	18445.88
594.515	18259.52
594.712	18660.92
594.908	18357.82
595.105	18570.81
595.302	18544.19
595.499	18511.42
595.696	18574.91
595.892	18476.6
596.089	18445.88
596.286	18568.76
596.482	18421.31
596.679	18382.4
596.876	18402.88
597.072	18378.3
597.269	18497.08
597.466	18275.9
597.662	18382.4
597.859	18304.57
598.055	18599.48
598.252	18329.15
598.448	18384.44
598.645	18638.39
598.841	18359.87
599.038	18581.05
599.234	18499.13
599.431	18294.33
599.627	18302.53
599.824	18691.64
600.02	18429.5
600.217	18501.18
600.413	18423.36
600.609	18480.7
600.806	18593.34
601.002	18540.09
601.198	18460.22
601.395	18374.2
601.591	18464.32
601.787	18622.01
601.984	18378.3
602.18	18626.11
602.376	18550.33
602.572	18329.15
602.769	18495.04
602.965	18490.94
603.161	18820.66
603.357	18751.03
603.553	18634.3
603.75	18673.21
603.946	18517.56
604.142	18695.74
604.338	18327.1
604.534	18693.69
604.73	18320.96
604.926	18769.46
605.122	18726.46
605.318	18443.84
605.514	18619.96
605.71	18474.56
605.906	18679.35
606.102	18619.96
606.298	18824.76
606.494	18800.18
606.69	18771.51
606.886	18665.02
607.082	18734.65
607.278	18759.22
607.474	18798.13
607.67	19043.89
607.866	18751.03
608.062	19097.14
608.257	18798.13
608.453	18675.26
608.649	18902.58
608.845	18726.46
609.041	18998.84
609.236	19314.22
609.432	18966.07
609.628	18964.02
609.824	19084.85
610.019	19289.65
610.215	19365.42
610.411	19285.55
610.606	19295.79
610.802	19250.74
610.998	19185.2
611.193	19299.89
611.389	19174.96
611.584	19508.78
611.78	19469.87
611.976	19607.08
612.171	19619.37
612.367	19615.27
612.562	19461.68
612.758	19306.03
612.953	19506.73
613.149	19301.93
613.344	19490.35
613.539	19914.28
613.735	19668.52
613.93	19781.16
614.126	19848.74
614.321	19983.91
614.517	19781.16
614.712	19594.79
614.907	19453.48
615.103	20145.7
615.298	19940.9
615.493	20065.83
615.688	19492.4
615.884	20350.49
616.079	19635.75
616.274	19828.26
616.47	20033.06
616.665	19848.74
616.86	19721.77
617.055	19899.94
617.25	19883.56
617.445	20299.3
617.641	19781.16
617.836	20076.07
618.031	19908.13
618.226	19932.71
618.421	19648.04
618.616	19910.18
618.811	19697.19
619.006	20254.24
619.201	19824.17
619.396	20010.53
619.591	19754.54
619.786	19863.08
619.981	19277.36
620.176	19701.29
620.371	19412.53
620.566	19824.17
620.761	19568.17
620.956	19693.1
621.151	19510.83
621.346	19750.44
621.541	19551.79
621.735	19596.84
621.93	19306.03
622.125	19181.1
622.32	19181.1
622.515	19394.09
622.709	19109.43
622.904	19152.43
623.099	19035.7
623.294	19303.98
623.488	19080.75
623.683	18984.5
623.878	18720.31
624.072	19136.05
624.267	18951.73
624.462	19064.37
624.656	18574.91
624.851	18591.29
625.046	18562.62
625.24	18335.29
625.435	18419.26
625.629	18552.38
625.824	18409.02
626.018	18345.53
626.213	17757.77
626.407	18198.08
626.602	17776.2
626.796	18083.39
626.991	18185.79
627.185	17935.94
627.38	17909.32
627.574	18069.06
627.768	17606.22
627.963	17841.73
628.157	17444.43
628.352	17479.24
628.546	17151.57
628.74	17321.55
628.935	17020.5
629.129	17180.24
629.323	16975.44
629.517	17141.33
629.712	17000.02
629.906	17118.8
630.1	16723.54
630.294	16918.1
630.489	16754.26
630.683	16985.68
630.877	16375.39
631.071	16674.39
631.265	16561.75
631.459	16514.65
631.653	16485.98
631.848	16762.45
632.042	16266.85
632.236	16191.07
632.43	16285.28
632.624	16189.02
632.818	16189.02
633.012	16078.43
633.206	15900.26
633.4	16002.66
633.594	15769.19
633.788	16000.61
633.982	15674.98
634.176	15742.57
634.369	15695.46
634.563	15761
634.757	15408.75
634.951	15398.51
635.145	15550.06
635.339	15412.84
635.533	15091.31
635.726	15089.26
635.92	14937.71
636.114	14997.1
636.308	14788.21
636.501	15089.26
636.695	14839.41
636.889	14624.37
637.083	14751.35
637.276	14538.36
637.47	14251.64
637.664	14366.33
637.857	14261.88
638.051	14247.55
638.244	14122.62
638.438	14349.95
638.632	14233.21
638.825	13821.57
639.019	13926.02
639.212	13702.79
639.406	13801.09
639.599	13670.02
639.793	13651.59
639.986	13411.98
640.18	13641.35
640.373	13403.78
640.567	13231.76
640.76	13307.53
640.954	13352.59
641.147	12904.08
641.34	13342.35
641.534	12902.03
641.727	12791.44
641.92	12942.99
642.114	12932.75
642.307	12818.07
642.5	12508.82
642.694	12445.34
642.887	12484.25
643.08	12517.01
643.273	12144.28
643.467	12283.55
643.66	12209.82
643.853	12295.83
644.046	12107.42
644.239	12013.21
644.432	11921.06
644.626	11749.03
644.819	11665.06
645.012	11814.56
645.205	11468.45
645.398	11468.45
645.591	11433.64
645.784	11251.37
645.977	11265.71
646.17	11292.33
646.363	10991.28
646.556	10845.87
646.749	10878.64
646.942	10751.67
647.135	10852.02
647.328	11054.76
647.521	10763.95
647.714	10563.25
647.907	10716.85
648.099	10661.55
648.292	10620.6
648.485	10530.48
648.678	10387.13
648.871	10303.16
649.064	10002.11
649.256	10260.15
649.449	10163.9
649.642	9928.38
649.835	9766.59
650.027	9924.29
650.22	9803.46
650.413	9793.22
650.605	9875.13
650.798	9715.39
650.991	9604.8
651.183	9471.68
651.376	9357
651.568	9410.25
651.761	9326.28
651.954	9465.54
652.146	9119.43
652.339	9162.44
652.531	9078.47
652.724	9146.06
652.916	9049.8
653.109	8963.79
653.301	8847.05
653.494	8890.06
653.686	8648.4
653.879	8842.96
654.071	8464.08
654.263	8636.11
654.456	8470.23
654.648	8558.29
654.84	8476.37
655.033	8615.63
655.225	8406.74
655.417	8160.98
655.61	8371.93
655.802	8126.17
655.994	8175.32
656.186	8191.7
656.379	8068.83
656.571	8171.22
656.763	7851.74
656.955	7948
657.148	7804.64
657.34	7698.14
657.532	7720.67
657.724	7782.11
657.916	7634.66
658.108	7415.52
658.3	7536.35
658.492	7626.46
658.684	7198.44
658.876	7501.54
659.068	7360.23
659.26	7212.78
659.452	7214.82
659.644	7421.67
659.836	7010.03
660.028	7171.82
660.22	6967.02
660.412	6870.76
660.604	6993.64
660.796	6899.44
660.988	6835.95
661.18	6600.43
661.372	6674.16
661.563	6604.53
661.755	6668.02
661.947	6534.9
662.139	6430.45
662.331	6393.59
662.522	6276.85
662.714	6334.2
662.906	6328.05
663.097	6180.6
663.289	6256.37
663.481	6205.17
663.673	6313.72
663.864	6174.46
664.056	6151.93
664.247	5959.42
664.439	5916.41
664.631	6047.48
664.822	5828.35
665.014	5916.41
665.205	5824.25
665.397	5664.51
665.588	5629.7
665.78	5824.25
665.971	5705.47
666.163	5687.04
666.354	5549.82
666.546	5506.82
666.737	5531.39
666.929	5476.1
667.12	5445.38
667.311	5428.99
667.503	5347.08
667.694	5338.88
667.885	5218.05
668.077	5259.01
668.268	5160.71
668.459	5256.97
668.651	5152.52
668.842	5183.24
669.033	5121.8
669.224	4994.83
669.416	5205.77
669.607	5015.3
669.798	4925.19
669.989	5093.13
670.18	4787.98
670.371	4925.19
670.563	4859.66
670.754	4849.42
670.945	4767.5
671.136	4849.42
671.327	4769.55
671.518	4818.7
671.709	4785.93
671.9	4785.93
672.091	4595.47
672.282	4634.38
672.473	4652.81
672.664	4640.53
672.855	4550.42
673.046	4579.09
673.237	4656.91
673.428	4656.91
673.619	4566.8
673.809	4474.64
674	4482.83
674.191	4495.12
674.382	4521.74
674.573	4429.59
674.764	4335.38
674.954	4497.17
675.145	4407.06
675.336	4454.16
675.527	4372.24
675.717	4433.68
675.908	4405.01
676.099	4364.05
676.289	4331.28
676.48	4196.12
676.671	4321.04
676.861	4351.76
677.052	4226.84
677.243	4169.49
677.433	4228.88
677.624	4192.02
677.814	4126.49
678.005	4175.64
678.195	4163.35
678.386	4144.92
678.576	4216.6
678.767	4099.86
678.957	4257.56
679.148	4200.21
679.338	4261.65
679.529	4175.64
679.719	4120.34
679.909	4183.83
680.1	4183.83
680.29	3909.4
680.481	4077.34
680.671	4235.03
680.861	3931.93
681.052	4103.96
681.242	4028.18
681.432	4093.72
681.622	4075.29
681.813	4003.61
682.003	3995.42
682.193	4048.66
682.383	4077.34
682.573	4003.61
682.764	3888.92
682.954	4063
683.144	3921.69
683.334	4097.81
683.524	3987.22
683.714	3983.13
683.904	4042.52
684.094	4120.34
684.284	3843.87
684.474	4179.73
684.664	4005.66
684.854	4001.56
685.044	4046.62
685.234	4116.25
685.424	4017.94
685.614	4079.38
685.804	4022.04
685.994	4136.73
686.184	4116.25
686.374	4034.33
686.564	3981.08
686.753	3956.5
686.943	3815.2
687.133	3970.84
687.323	3972.89
687.513	4108.05
687.702	4003.61
687.892	4063
688.082	3968.79
688.272	4167.45
688.461	4216.6
688.651	4054.81
688.841	4063
689.03	3921.69
689.22	4116.25
689.41	3952.41
689.599	4001.56
689.789	4083.48
689.979	3954.46
690.168	4042.52
690.358	3927.83
690.547	3901.21
690.737	4015.9
690.926	4040.47
691.116	3813.15
691.305	4112.15
691.495	3911.45
691.684	3782.43
691.874	3985.18
692.063	4056.86
692.252	4065.05
692.442	4210.45
692.631	4050.71
692.82	3952.41
693.01	4136.73
693.199	4089.62
693.388	3956.5
693.578	4085.53
693.767	3995.42
693.956	4071.19
694.146	4063
694.335	3999.51
694.524	4009.75
694.713	3987.22
694.902	4228.88
695.092	4089.62
695.281	4034.33
695.47	4128.53
695.659	3981.08
695.848	4024.09
696.037	4083.48
696.226	4075.29
696.415	4081.43
696.604	4343.57
696.793	4222.74
696.982	4132.63
697.171	4208.41
697.36	4159.25
697.549	4181.78
697.738	4034.33
697.927	4161.3
698.116	4251.41
698.305	4228.88
698.494	4189.97
698.683	4175.64
698.872	4187.93
699.061	4200.21
699.25	4251.41
699.438	4192.02
699.627	4017.94
699.816	4251.41
700.005	4060.95
700.193	4155.16
700.382	4208.41
700.571	4282.13
700.76	4149.01
700.948	4265.75
701.137	4323.09
701.326	4189.97
701.514	4351.76
701.703	4214.55
701.892	4288.28
702.08	4390.67
702.269	4300.56
702.457	4017.94
702.646	4185.88
702.834	4091.67
703.023	4144.92
703.212	4237.08
703.4	4239.12
703.589	4183.83
703.777	4189.97
703.965	4232.98
704.154	4200.21
704.342	4319
704.531	4128.53
704.719	4093.72
704.907	4159.25
705.096	4040.47
705.284	4151.06
705.472	4253.46
705.661	4171.54
705.849	4216.6
706.037	4304.66
706.226	4099.86
706.414	4085.53
706.602	4155.16
706.79	4192.02
706.979	4124.44
707.167	4132.63
707.355	4085.53
707.543	4288.28
707.731	4216.6
707.919	4163.35
708.107	4114.2
708.296	4001.56
708.484	4081.43
708.672	4054.81
708.86	3976.98
709.048	4071.19
709.236	4146.97
709.424	4097.81
709.612	4017.94
709.8	4142.87
709.988	3987.22
710.176	4161.3
710.364	4075.29
710.551	4022.04
710.739	4026.14
710.927	4103.96
711.115	4011.8
711.303	3964.7
711.491	4054.81
711.679	3931.93
711.866	4210.45
712.054	4044.57
712.242	3733.28
712.43	3952.41
712.617	3999.51
712.805	4019.99
712.993	4038.42
713.181	3905.31
713.368	3946.27
713.556	4071.19
713.744	3927.83
713.931	3948.31
714.119	3944.22
714.306	3962.65
714.494	3895.07
714.682	3907.35
714.869	3888.92
715.057	3901.21
715.244	3807
715.432	4030.23
715.619	3802.91
715.807	3829.53
715.994	3749.66
716.182	3790.62
716.369	3931.93
716.556	3786.52
716.744	3745.56
716.931	3862.3
717.119	3862.3
717.306	3886.87
717.493	3856.15
717.681	3768.09
717.868	3747.61
718.055	3784.48
718.242	3800.86
718.43	3876.63
718.617	3800.86
718.804	3813.15
718.991	3739.42
719.179	3786.52
719.366	3663.65
719.553	3745.56
719.74	3780.38
719.927	3811.1
720.114	3567.39
720.301	3587.87
720.488	3684.13
720.676	3659.55
720.863	3620.64
721.05	3725.08
721.237	3737.37
721.424	3671.84
721.611	3788.57
721.798	3510.05
721.985	3553.06
722.172	3501.86
722.358	3632.93
722.545	3735.32
722.732	3634.97
722.919	3579.68
723.106	3532.58
723.293	3446.56
723.48	3585.82
723.667	3610.4
723.853	3559.2
724.04	3618.59
724.227	3571.49
724.414	3403.55
724.6	3532.58
724.787	3471.14
724.974	3514.14
725.161	3452.7
725.347	3360.55
725.534	3434.27
725.72	3514.14
725.907	3417.89
726.094	3393.31
726.28	3237.67
726.467	3356.45
726.653	3344.16
726.84	3458.85
727.027	3512.1
727.213	3370.79
727.4	3405.6
727.586	3331.87
727.773	3321.63
727.959	3446.56
728.145	3444.51
728.332	3305.25
728.518	3313.44
728.705	3317.54
728.891	3356.45
729.077	3307.3
729.264	3202.85
729.45	3305.25
729.636	3327.78
729.823	3249.96
730.009	3295.01
730.195	3292.96
730.382	3282.72
730.568	3155.75
730.754	3295.01
730.94	3280.68
731.126	3317.54
731.313	3260.2
731.499	3059.49
731.685	3147.56
731.871	3110.69
732.057	3200.8
732.243	3159.85
732.429	3086.12
732.615	3157.8
732.801	3127.08
732.987	3159.85
733.173	2969.38
733.359	3053.35
733.545	2987.82
733.731	3069.73
733.917	3069.73
734.103	3088.17
734.289	3172.13
734.475	3010.34
734.661	3051.3
734.847	2936.62
735.033	2991.91
735.219	3147.56
735.404	2967.34
735.59	3018.54
735.776	2907.94
735.962	2891.56
736.148	2998.06
736.333	2938.66
736.519	2967.34
736.705	2971.43
736.89	2844.46
737.076	2858.79
737.262	2864.94
737.447	2963.24
737.633	2838.31
737.819	3020.58
738.004	3002.15
738.19	2780.97
738.375	2832.17
738.561	2883.37
738.747	2756.4
738.932	2778.92
739.118	2871.08
739.303	2746.16
739.489	2844.46
739.674	2752.3
739.859	2684.72
740.045	2658.09
740.23	2770.73
740.416	2602.8
740.601	2750.25
740.786	2715.44
740.972	2623.28
741.157	2631.47
741.342	2606.89
741.528	2658.09
741.713	2645.8
741.898	2649.9
742.084	2613.04
742.269	2469.68
742.454	2574.13
742.639	2707.24
742.824	2613.04
743.01	2527.02
743.195	2471.73
743.38	2455.34
743.565	2481.97
743.75	2539.31
743.935	2496.3
744.12	2647.85
744.305	2363.19
744.49	2516.78
744.675	2324.27
744.86	2395.95
745.045	2455.34
745.23	2455.34
745.415	2346.8
745.6	2471.73
745.785	2340.66
745.97	2354.99
746.155	2248.5
746.34	2369.33
746.525	2342.71
746.71	2350.9
746.895	2170.68
747.079	2107.19
747.264	2199.35
747.449	2338.61
747.634	2225.97
747.819	2219.83
748.003	2262.83
748.188	2129.72
748.373	2068.28
748.557	2119.48
748.742	2168.63
748.927	2170.68
749.111	2074.42
749.296	2039.61
749.481	2080.57
749.665	2035.51
749.85	1912.63
750.034	2084.66
750.219	2078.52
750.404	2006.84
750.588	2019.13
750.773	1912.63
750.957	1965.88
751.141	1918.78
751.326	1965.88
751.51	1931.06
751.695	1916.73
751.879	1795.9
752.064	1918.78
752.248	1943.35
752.432	1969.98
752.617	1836.86
752.801	1843
752.985	1795.9
753.17	1926.97
753.354	1865.53
753.538	1740.6
753.722	1752.89
753.907	1752.89
754.091	1699.64
754.275	1752.89
754.459	1808.19
754.643	1775.42
754.828	1783.61
755.012	1748.79
755.196	1642.3
755.38	1761.08
755.564	1644.35
755.748	1656.64
755.932	1654.59
756.116	1666.88
756.3	1716.03
756.484	1582.91
756.668	1615.68
756.852	1552.19
757.036	1550.14
757.22	1595.2
757.404	1607.48
757.588	1486.65
757.772	1525.57
757.956	1398.59
758.14	1627.96
758.323	1390.4
758.507	1548.09
758.691	1412.93
758.875	1558.33
759.059	1544
759.242	1500.99
759.426	1419.07
759.61	1531.71
759.794	1460.03
759.977	1482.56
760.161	1505.09
760.345	1316.67
760.528	1474.37
760.712	1511.23
760.895	1331.01
761.079	1363.78
761.263	1298.24
761.446	1402.69
761.63	1306.43
761.813	1283.91
761.997	1331.01
762.18	1236.8
762.364	1414.98
762.547	1277.76
762.731	1267.52
762.914	1257.28
763.098	1306.43
763.281	1322.82
763.464	1296.19
763.648	1161.03
763.831	1304.39
764.015	1249.09
764.198	1247.04
764.381	1310.53
764.564	1189.7
764.748	1279.81
764.931	1142.6
765.114	1197.89
765.297	1308.48
765.481	1222.47
765.664	1152.84
765.847	1175.36
766.03	1324.87
766.213	1093.44
766.397	1167.17
766.58	1255.23
766.763	1263.43
766.946	1144.64
767.129	1171.27
767.312	1177.41
767.495	1216.32
767.678	1105.73
767.861	1255.23
768.044	1163.08
768.227	1126.21
768.41	1230.66
768.593	1206.08
768.776	1111.88
768.959	1183.56
769.142	1232.71
769.324	1070.92
769.507	1126.21
769.69	1087.3
769.873	1130.31
770.056	1220.42
770.239	1070.92
770.421	1261.38
770.604	1146.69
770.787	1107.78
770.97	1144.64
771.152	1089.35
771.335	1130.31
771.518	1046.34
771.7	1142.6
771.883	1146.69
772.066	1029.96
772.248	999.24
772.431	1009.48
772.613	1111.88
772.796	1101.64
772.978	1070.92
773.161	1101.64
773.343	1042.25
773.526	1087.3
773.708	960.33
773.891	964.42
774.073	1017.67
774.256	1015.62
774.438	1058.63
774.621	995.14
774.803	964.42
774.985	948.04
775.168	853.83
775.35	894.79
775.532	882.5
775.715	888.65
775.897	978.76
776.079	890.7
776.261	1011.53
776.444	898.89
776.626	876.36
776.808	925.51
776.99	894.79
777.173	964.42
777.355	872.26
777.537	1005.38
777.719	931.66
777.901	782.15
778.083	812.87
778.265	802.63
778.447	905.03
778.629	757.58
778.811	864.07
778.993	806.73
779.175	921.42
779.357	819.02
779.539	685.9
779.721	855.88
779.903	816.97
780.085	782.15
780.267	769.87
780.449	730.95
780.631	780.11
780.812	771.91
780.994	771.91
781.176	796.49
781.358	751.43
781.54	769.87
781.721	771.91
781.903	722.76
782.085	743.24
782.267	751.43
782.448	601.93
782.63	718.67
782.812	749.39
782.993	737.1
783.175	673.61
783.357	681.8
783.538	702.28
783.72	718.67
783.901	730.95
784.083	640.84
784.264	679.75
784.446	618.32
784.627	663.37
784.809	653.13
784.99	528.21
785.172	761.67
785.353	585.55
785.535	671.56
785.716	669.52
785.897	569.16
786.079	661.32
786.26	677.71
786.441	622.41
786.623	589.64
786.804	511.82
786.985	644.94
787.167	622.41
787.348	575.31
787.529	646.99
787.71	599.88
787.891	626.51
788.073	477.01
788.254	575.31
788.435	565.07
788.616	499.53
788.797	499.53
788.978	487.25
789.159	468.81
789.34	577.36
789.522	534.35
789.703	470.86
789.884	579.4
790.065	427.85
790.246	642.89
790.427	505.68
790.607	464.72
790.788	599.88
790.969	466.77
791.15	460.62
791.331	460.62
791.512	440.14
791.693	481.1
791.874	350.03
792.054	536.4
792.235	530.25
792.416	376.66
792.597	468.81
792.778	497.49
792.958	472.91
793.139	395.09
793.32	497.49
793.5	415.57
793.681	401.23
793.862	474.96
794.042	440.14
794.223	354.13
794.404	354.13
794.584	325.46
794.765	333.65
794.945	366.42
795.126	515.92
795.306	540.49
795.487	368.46
795.667	407.38
795.848	399.18
796.028	438.09
796.209	382.8
796.389	438.09
796.57	317.26
796.75	300.88
796.93	368.46
797.111	374.61
797.291	333.65
797.471	479.05
797.652	323.41
797.832	296.78
798.012	354.13
798.192	257.87
798.373	309.07
798.553	294.74
798.733	421.71
798.913	292.69
799.093	368.46
799.274	347.98
799.454	427.85
799.634	388.94
799.814	399.18
799.994	393.04
800.174	401.23
800.354	333.65
800.534	284.5
800.714	388.94
800.894	266.07
801.074	317.26
801.254	249.68
801.434	411.47
801.614	300.88
801.794	249.68
801.974	1199.94
802.154	270.16
802.334	343.89
802.514	229.2
802.693	282.45
802.873	323.41
803.053	360.27
803.233	323.41
803.413	243.54
803.592	327.5
803.772	274.26
803.952	333.65
804.131	204.63
804.311	325.46
804.491	280.4
804.67	239.44
804.85	225.11
805.03	333.65
805.209	296.78
805.389	216.91
805.568	307.02
805.748	202.58
805.928	272.21
806.107	319.31
806.287	300.88
806.466	268.11
806.646	315.22
806.825	298.83
807.004	173.91
807.184	286.54
807.363	292.69
807.543	333.65
807.722	327.5
807.901	327.5
808.081	284.5
808.26	130.9
808.439	171.86
808.619	233.3
808.798	264.02
808.977	241.49
809.156	257.87
809.336	249.68
809.515	184.15
809.694	198.48
809.873	270.16
810.052	243.54
810.231	276.31
810.411	171.86
810.59	278.35
810.769	171.86
810.948	225.11
811.127	188.24
811.306	218.96
811.485	276.31
811.664	251.73
811.843	175.95
812.022	223.06
812.201	223.06
812.38	233.3
812.559	139.09
812.737	278.35
812.916	227.15
813.095	237.39
813.274	114.52
813.453	198.48
813.632	264.02
813.811	229.2
813.989	112.47
814.168	225.11
814.347	145.24
814.526	139.09
814.704	188.24
814.883	292.69
815.062	149.33
815.24	266.07
815.419	139.09
815.598	223.06
815.776	110.42
815.955	204.63
816.133	46.93
816.312	194.39
816.49	106.32
816.669	163.67
816.847	216.91
817.026	227.15
817.204	235.35
817.383	159.57
817.561	120.66
817.74	153.43
817.918	167.76
818.097	167.76
818.275	169.81
818.453	200.53
818.632	145.24
818.81	212.82
818.988	157.52
819.167	169.81
819.345	200.53
819.523	184.15
819.701	132.95
819.879	145.24
820.058	55.12
820.236	108.37
820.414	149.33
820.592	178
820.77	237.39
820.948	51.03
821.127	112.47
821.305	112.47
821.483	130.9
821.661	135
821.839	163.67
822.017	106.32
822.195	91.99
822.373	200.53
822.551	155.47
822.729	241.49
822.907	173.91
823.085	100.18
823.262	141.14
823.44	118.61
823.618	188.24
823.796	229.2
823.974	106.32
824.152	139.09
824.329	161.62
824.507	137.04
824.685	124.76
824.863	94.04
825.04	173.91
825.218	159.57
825.396	112.47
825.574	145.24
825.751	149.33
825.929	178
826.107	89.94
826.284	186.19
826.462	190.29
826.639	135
826.817	89.94
826.994	165.71
827.172	51.03
827.349	212.82
827.527	71.51
827.704	128.85
827.882	128.85
828.059	67.41
828.237	38.74
828.414	151.38
828.591	18.26
828.769	112.47
828.946	32.6
829.124	161.62
829.301	169.81
829.478	155.47
829.655	132.95
829.833	178
830.01	108.37
830.187	89.94
830.364	112.47
830.542	83.8
830.719	145.24
830.896	171.86
831.073	69.46
831.25	106.32
831.427	118.61
831.604	91.99
831.782	71.51
831.959	30.55
832.136	108.37
832.313	139.09
832.49	63.32
832.667	100.18
832.844	77.65
833.021	137.04
833.198	126.8
833.374	77.65
833.551	91.99
833.728	65.36
833.905	151.38
834.082	57.17
834.259	67.41
834.436	169.81
834.612	106.32
834.789	143.19
834.966	26.45
835.143	57.17
835.319	55.12
835.496	69.46
835.673	120.66
835.85	57.17
836.026	163.67
836.203	108.37
836.38	59.22
836.556	30.55
836.733	87.89
836.909	120.66
837.086	89.94
837.262	102.23
837.439	81.75
837.616	75.6
837.792	36.69
837.968	36.69
838.145	-24.75
838.321	77.65
838.498	110.42
838.674	53.08
838.851	108.37
839.027	-4.27
839.203	53.08
839.38	130.9
839.556	48.98
839.732	85.84
839.909	106.32
840.085	85.84
840.261	55.12
840.437	69.46
840.614	3.93
840.79	130.9
840.966	69.46
841.142	-6.31
841.318	-39.08
841.494	30.55
841.671	67.41
841.847	110.42
842.023	44.88
842.199	79.7
842.375	55.12
842.551	3.93
842.727	79.7
842.903	135
843.079	83.8
843.255	157.52
843.431	75.6
843.607	94.04
843.783	-6.31
843.959	100.18
844.134	-2.22
844.31	130.9
844.486	61.27
844.662	22.36
844.838	61.27
845.013	87.89
845.189	55.12
845.365	96.08
845.541	100.18
845.716	89.94
845.892	30.55
846.068	53.08
846.244	-0.17
846.419	118.61
846.595	32.6
846.77	-0.17
846.946	89.94
847.122	42.84
847.297	-0.17
847.473	132.95
847.648	26.45
847.824	100.18
847.999	-59.56
848.175	59.22
848.35	124.76
848.526	83.8
848.701	85.84
848.876	112.47
849.052	65.36
849.227	53.08
849.403	26.45
849.578	22.36
849.753	59.22
849.929	53.08
850.104	-10.41
850.279	112.47
850.454	22.36
850.63	79.7
850.805	83.8
850.98	22.36
851.155	26.45
851.33	85.84
851.505	18.26
851.681	91.99
851.856	3.93
852.031	-10.41
852.206	67.41
852.381	-10.41
852.556	5.97
852.731	73.56
852.906	94.04
853.081	38.74
853.256	114.52
853.431	79.7
853.606	36.69
853.781	-28.84
853.956	-51.37
854.131	71.51
854.305	3.93
854.48	-18.6
854.655	-30.89
854.83	-8.36
855.005	51.03
855.18	28.5
855.354	36.69
855.529	71.51
855.704	-2.22
855.879	94.04
856.053	30.55
856.228	51.03
856.403	-0.17
856.577	91.99
856.752	16.21
856.926	128.85
857.101	106.32
857.276	20.31
857.45	79.7
857.625	38.74
857.799	61.27
857.974	8.02
858.148	24.4
858.323	16.21
858.497	59.22
858.672	22.36
858.846	30.55
859.02	26.45
859.195	-12.46
859.369	-53.42
859.543	85.84
859.718	55.12
859.892	55.12
860.066	22.36
860.241	28.5
860.415	-45.23
860.589	-12.46
860.763	40.79
860.938	91.99
861.112	51.03
861.286	73.56
861.46	10.07
861.634	34.64
861.808	102.23
861.982	-28.84
862.157	87.89
862.331	-2.22
862.505	-75.95
862.679	14.17
862.853	-26.79
863.027	51.03
863.201	75.6
863.375	38.74
863.549	137.04
863.722	8.02
863.896	96.08
864.07	-30.89
864.244	40.79
864.418	-0.17
864.592	46.93
864.766	44.88
864.939	-0.17
865.113	-67.75
865.287	75.6
865.461	65.36
865.634	3.93
865.808	108.37
865.982	14.17
866.156	18.26
866.329	48.98
866.503	10.07
866.676	120.66
866.85	59.22
867.024	-14.51
867.197	63.32
867.371	-0.17
867.544	38.74
867.718	-4.27
867.891	36.69
868.065	-37.03
868.238	32.6
868.412	141.14
868.585	24.4
868.759	-10.41
868.932	67.41
869.105	-4.27
869.279	67.41
869.452	-16.55
869.625	61.27
869.799	-41.13
869.972	-59.56
870.145	40.79
870.319	55.12
870.492	14.17
870.665	-82.09
870.838	-12.46
871.011	-37.03
871.185	14.17
871.358	18.26
871.531	40.79
871.704	-16.55
871.877	34.64
872.05	65.36
872.223	51.03
872.396	44.88
872.569	32.6
872.742	10.07
872.915	85.84
873.088	-22.7
873.261	-8.36
873.434	-32.94
873.607	-61.61
873.78	51.03
873.953	44.88
874.126	34.64
874.299	53.08
874.471	8.02
874.644	-20.65
874.817	65.36
874.99	145.24
875.163	24.4
875.335	22.36
875.508	87.89
875.681	77.65
875.853	40.79
876.026	46.93
876.199	-12.46
876.371	-4.27
876.544	-67.75
876.717	48.98
876.889	-24.75
877.062	87.89
877.234	-65.71
877.407	24.4
877.579	65.36
877.752	73.56
877.924	77.65
878.097	57.17
878.269	-24.75
878.442	65.36
878.614	67.41
878.786	34.64
878.959	61.27
879.131	30.55
879.303	-41.13
879.476	48.98
879.648	40.79
879.82	18.26
879.993	20.31
880.165	16.21
880.337	22.36
880.509	-8.36
880.681	-4.27
880.854	-73.9
881.026	102.23
881.198	122.71
881.37	73.56
881.542	44.88
881.714	8.02
881.886	36.69
882.058	-8.36
882.23	71.51
882.402	-26.79
882.574	36.69
882.746	28.5
882.918	34.64
883.09	26.45
883.262	-47.27
883.434	44.88
883.606	-65.71
883.778	-2.22
883.95	79.7
884.122	-10.41
884.293	71.51
884.465	46.93
884.637	30.55
884.809	-26.79
884.98	36.69
885.152	-71.85
885.324	34.64
885.496	8.02
885.667	5.97
885.839	-37.03
886.011	57.17
886.182	81.75
886.354	30.55
886.525	24.4
886.697	40.79
886.869	-34.99
887.04	34.64
887.212	91.99
887.383	100.18
887.555	71.51
887.726	28.5
887.897	77.65
888.069	34.64
888.24	77.65
888.412	38.74
888.583	30.55
888.754	-28.84
888.926	-49.32
889.097	-2.22
889.268	-28.84
889.44	59.22
889.611	-34.99
889.782	-28.84
889.953	8.02
890.125	36.69
890.296	-22.7
890.467	-18.6
890.638	14.17
890.809	-88.23
890.98	5.97
891.151	36.69
891.323	-22.7
891.494	-4.27
891.665	1.88
891.836	44.88
892.007	69.46
892.178	48.98
892.349	14.17
892.52	-22.7
892.691	67.41
892.862	-8.36
893.032	-69.8
893.203	3.93
893.374	20.31
893.545	26.45
893.716	22.36
893.887	22.36
894.057	16.21
894.228	53.08
894.399	32.6
894.57	44.88
894.74	42.84
894.911	22.36
895.082	16.21
895.253	-49.32
895.423	-12.46
895.594	75.6
895.764	14.17
895.935	40.79
896.106	51.03
896.276	-20.65
896.447	20.31
896.617	-32.94
896.788	-0.17
896.958	81.75
897.129	-43.18
897.299	28.5
897.47	14.17
897.64	-14.51
897.81	-65.71
897.981	46.93
898.151	-22.7
898.322	48.98
898.492	-24.75
898.662	-39.08
898.832	-34.99
899.003	8.02
899.173	40.79
899.343	75.6
899.513	-57.51
