Data from USB4F104151__63__12-12-27-504.txt Node

Date: Fri Mar 14 12:12:27 EDT 2025
User: louis
Spectrometer: USB4F10415
Trigger mode: 4
Integration Time (sec): 5.000000E-2
Scans to average: 1
Electric dark correction enabled: true
Nonlinearity correction enabled: false
Boxcar width: 0
XAxis mode: Wavelengths
Number of Pixels in Spectrum: 3648
>>>>>Begin Spectral Data<<<<<
178.204	-223.57
178.424	-223.57
178.644	-223.57
178.864	-170.32
179.084	-237.91
179.304	-74.07
179.524	-74.07
179.744	-72.02
179.964	124.58
180.184	-0.34
180.404	11.95
180.624	-10.58
180.844	26.28
181.064	61.1
181.283	-20.82
181.503	-0.34
181.723	28.33
181.943	-51.54
182.163	138.92
182.383	-96.6
182.602	59.05
182.822	85.67
183.042	-35.16
183.262	34.47
183.482	-22.87
183.701	-14.68
183.921	83.63
184.141	-35.16
184.361	89.77
184.58	-20.82
184.8	38.57
185.02	-35.16
185.239	67.24
185.459	-18.77
185.679	9.9
185.898	-72.02
186.118	71.34
186.338	91.82
186.557	59.05
186.777	-14.68
186.997	61.1
187.216	52.91
187.436	87.72
187.655	81.58
187.875	42.67
188.095	38.57
188.314	110.25
188.534	-0.34
188.753	-18.77
188.973	61.1
189.192	67.24
189.412	9.9
189.631	46.76
189.851	63.15
190.07	122.54
190.29	20.14
190.509	-16.73
190.729	-2.39
190.948	140.97
191.168	171.69
191.387	124.58
191.607	89.77
191.826	65.19
192.045	5.8
192.265	36.52
192.484	75.43
192.704	50.86
192.923	-18.77
193.142	200.36
193.362	95.91
193.581	186.02
193.8	26.28
194.02	75.43
194.239	40.62
194.458	18.09
194.678	50.86
194.897	3.75
195.116	81.58
195.335	3.75
195.555	71.34
195.774	-61.78
195.993	30.38
196.212	75.43
196.432	1.71
196.651	85.67
196.87	3.75
197.089	112.3
197.308	22.19
197.528	46.76
197.747	-10.58
197.966	110.25
198.185	87.72
198.404	7.85
198.623	61.1
198.842	67.24
199.062	134.82
199.281	87.72
199.5	48.81
199.719	-8.53
199.938	93.87
200.157	114.34
200.376	108.2
200.595	112.3
200.814	118.44
201.033	89.77
201.252	46.76
201.471	-8.53
201.69	46.76
201.909	59.05
202.128	26.28
202.347	26.28
202.566	42.67
202.785	-22.87
203.004	26.28
203.223	194.22
203.442	40.62
203.661	38.57
203.879	3.75
204.098	136.87
204.317	-8.53
204.536	112.3
204.755	24.23
204.974	18.09
205.193	28.33
205.411	155.3
205.63	85.67
205.849	93.87
206.068	91.82
206.287	24.23
206.505	89.77
206.724	48.81
206.943	65.19
207.162	-35.16
207.381	48.81
207.599	-45.4
207.818	24.23
208.037	-49.49
208.255	65.19
208.474	26.28
208.693	48.81
208.911	50.86
209.13	75.43
209.349	34.47
209.567	20.14
209.786	57
210.005	42.67
210.223	18.09
210.442	-49.49
210.661	83.63
210.879	108.2
211.098	46.76
211.316	71.34
211.535	54.95
211.753	1.71
211.972	11.95
212.191	50.86
212.409	-10.58
212.628	116.39
212.846	1.71
213.065	7.85
213.283	91.82
213.502	71.34
213.72	24.23
213.938	22.19
214.157	-29.01
214.375	91.82
214.594	26.28
214.812	126.63
215.031	44.71
215.249	-4.44
215.467	32.43
215.686	63.15
215.904	-24.92
216.122	52.91
216.341	-18.77
216.559	52.91
216.778	112.3
216.996	102.06
217.214	57
217.432	34.47
217.651	-35.16
217.869	-12.63
218.087	-8.53
218.306	-24.92
218.524	71.34
218.742	3.75
218.96	128.68
219.179	-2.39
219.397	48.81
219.615	163.5
219.833	18.09
220.051	40.62
220.27	57
220.488	52.91
220.706	69.29
220.924	36.52
221.142	40.62
221.36	38.57
221.578	71.34
221.796	-14.68
222.015	110.25
222.233	77.48
222.451	126.63
222.669	7.85
222.887	122.54
223.105	1.71
223.323	118.44
223.541	-41.3
223.759	44.71
223.977	-35.16
224.195	106.15
224.413	63.15
224.631	32.43
224.849	54.95
225.067	93.87
225.285	75.43
225.503	44.71
225.721	22.19
225.939	87.72
226.157	97.96
226.375	124.58
226.592	-63.83
226.81	11.95
227.028	169.64
227.246	46.76
227.464	54.95
227.682	171.69
227.9	83.63
228.117	42.67
228.335	112.3
228.553	91.82
228.771	79.53
228.989	34.47
229.206	175.78
229.424	71.34
229.642	-14.68
229.86	-41.3
230.077	93.87
230.295	-4.44
230.513	46.76
230.731	122.54
230.948	97.96
231.166	79.53
231.384	91.82
231.601	30.38
231.819	104.11
232.037	75.43
232.254	-16.73
232.472	42.67
232.689	42.67
232.907	32.43
233.125	52.91
233.342	46.76
233.56	36.52
233.777	-8.53
233.995	9.9
234.213	100.01
234.43	11.95
234.648	7.85
234.865	73.39
235.083	83.63
235.3	54.95
235.518	65.19
235.735	132.78
235.953	93.87
236.17	-10.58
236.388	38.57
236.605	22.19
236.822	81.58
237.04	65.19
237.257	69.29
237.475	-59.73
237.692	52.91
237.909	71.34
238.127	38.57
238.344	34.47
238.562	75.43
238.779	-14.68
238.996	-67.92
239.214	36.52
239.431	122.54
239.648	-24.92
239.865	83.63
240.083	36.52
240.3	9.9
240.517	1.71
240.735	1.71
240.952	18.09
241.169	145.06
241.386	20.14
241.603	46.76
241.821	28.33
242.038	65.19
242.255	93.87
242.472	-4.44
242.689	79.53
242.907	136.87
243.124	122.54
243.341	61.1
243.558	42.67
243.775	-31.06
243.992	-45.4
244.209	48.81
244.426	104.11
244.643	-47.44
244.86	7.85
245.078	75.43
245.295	126.63
245.512	38.57
245.729	13.99
245.946	22.19
246.163	42.67
246.38	24.23
246.597	89.77
246.814	-18.77
247.031	50.86
247.248	5.8
247.464	130.73
247.681	24.23
247.898	38.57
248.115	-0.34
248.332	18.09
248.549	24.23
248.766	147.11
248.983	61.1
249.2	69.29
249.417	73.39
249.633	87.72
249.85	46.76
250.067	30.38
250.284	61.1
250.501	93.87
250.717	42.67
250.934	42.67
251.151	16.04
251.368	-14.68
251.585	132.78
251.801	-0.34
252.018	-49.49
252.235	59.05
252.451	9.9
252.668	-20.82
252.885	81.58
253.102	59.05
253.318	30.38
253.535	50.86
253.752	24.23
253.968	75.43
254.185	40.62
254.401	-4.44
254.618	42.67
254.835	28.33
255.051	89.77
255.268	100.01
255.484	85.67
255.701	30.38
255.917	-10.58
256.134	-6.49
256.351	87.72
256.567	38.57
256.784	57
257	-45.4
257.217	155.3
257.433	61.1
257.65	95.91
257.866	44.71
258.082	-26.96
258.299	9.9
258.515	36.52
258.732	20.14
258.948	28.33
259.165	77.48
259.381	-2.39
259.597	1.71
259.814	-10.58
260.03	9.9
260.246	-26.96
260.463	91.82
260.679	93.87
260.895	54.95
261.112	-24.92
261.328	-4.44
261.544	1.71
261.761	100.01
261.977	-6.49
262.193	7.85
262.409	75.43
262.626	13.99
262.842	38.57
263.058	-2.39
263.274	52.91
263.49	52.91
263.707	44.71
263.923	83.63
264.139	-18.77
264.355	9.9
264.571	46.76
264.787	-31.06
265.004	89.77
265.22	-4.44
265.436	7.85
265.652	48.81
265.868	-43.35
266.084	54.95
266.3	-47.44
266.516	-2.39
266.732	79.53
266.948	-22.87
267.164	22.19
267.38	77.48
267.596	77.48
267.812	130.73
268.028	128.68
268.244	-8.53
268.46	34.47
268.676	-67.92
268.892	20.14
269.108	38.57
269.324	-33.11
269.54	-35.16
269.756	-26.96
269.972	-26.96
270.188	26.28
270.403	-37.2
270.619	18.09
270.835	26.28
271.051	44.71
271.267	134.82
271.483	-51.54
271.698	34.47
271.914	38.57
272.13	-0.34
272.346	40.62
272.562	52.91
272.777	110.25
272.993	-39.25
273.209	71.34
273.425	54.95
273.64	5.8
273.856	71.34
274.072	20.14
274.287	-31.06
274.503	143.02
274.719	20.14
274.934	-12.63
275.15	-12.63
275.366	85.67
275.581	-49.49
275.797	54.95
276.012	1.71
276.228	16.04
276.444	22.19
276.659	81.58
276.875	-0.34
277.09	26.28
277.306	102.06
277.521	75.43
277.737	22.19
277.952	91.82
278.168	7.85
278.383	36.52
278.599	46.76
278.814	112.3
279.03	69.29
279.245	11.95
279.461	26.28
279.676	44.71
279.892	-20.82
280.107	-6.49
280.322	34.47
280.538	22.19
280.753	-2.39
280.969	79.53
281.184	46.76
281.399	106.15
281.615	30.38
281.83	71.34
282.045	-61.78
282.26	38.57
282.476	-26.96
282.691	1.71
282.906	104.11
283.122	-12.63
283.337	18.09
283.552	26.28
283.767	18.09
283.983	38.57
284.198	50.86
284.413	61.1
284.628	-16.73
284.843	112.3
285.058	69.29
285.274	36.52
285.489	42.67
285.704	59.05
285.919	95.91
286.134	-4.44
286.349	7.85
286.564	-43.35
286.779	97.96
286.995	-57.68
287.21	-20.82
287.425	79.53
287.64	38.57
287.855	104.11
288.07	-37.2
288.285	116.39
288.5	89.77
288.715	71.34
288.93	44.71
289.145	40.62
289.36	16.04
289.575	-14.68
289.79	110.25
290.004	22.19
290.219	112.3
290.434	18.09
290.649	1.71
290.864	85.67
291.079	71.34
291.294	100.01
291.509	102.06
291.724	36.52
291.938	18.09
292.153	16.04
292.368	3.75
292.583	69.29
292.798	81.58
293.012	48.81
293.227	52.91
293.442	11.95
293.657	61.1
293.871	106.15
294.086	52.91
294.301	48.81
294.516	95.91
294.73	81.58
294.945	-20.82
295.16	79.53
295.374	147.11
295.589	114.34
295.804	1.71
296.018	48.81
296.233	102.06
296.447	106.15
296.662	7.85
296.877	110.25
297.091	75.43
297.306	75.43
297.52	5.8
297.735	83.63
297.949	28.33
298.164	48.81
298.378	81.58
298.593	28.33
298.807	-2.39
299.022	59.05
299.236	81.58
299.451	-51.54
299.665	11.95
299.88	-8.53
300.094	28.33
300.309	-18.77
300.523	57
300.737	32.43
300.952	16.04
301.166	50.86
301.381	1.71
301.595	18.09
301.809	-4.44
302.024	-10.58
302.238	-18.77
302.452	116.39
302.667	63.15
302.881	173.74
303.095	214.7
303.309	26.28
303.524	38.57
303.738	13.99
303.952	36.52
304.166	40.62
304.381	-145.75
304.595	140.97
304.809	3.75
305.023	-4.44
305.237	54.95
305.452	-8.53
305.666	120.49
305.88	97.96
306.094	18.09
306.308	100.01
306.522	100.01
306.736	22.19
306.95	61.1
307.164	-37.2
307.379	79.53
307.593	59.05
307.807	159.4
308.021	79.53
308.235	75.43
308.449	40.62
308.663	42.67
308.877	102.06
309.091	30.38
309.305	124.58
309.519	11.95
309.733	108.2
309.947	-37.2
310.161	13.99
310.374	128.68
310.588	67.24
310.802	-12.63
311.016	-8.53
311.23	102.06
311.444	28.33
311.658	42.67
311.872	130.73
312.085	87.72
312.299	61.1
312.513	69.29
312.727	-10.58
312.941	1.71
313.154	132.78
313.368	1.71
313.582	20.14
313.796	50.86
314.009	13.99
314.223	93.87
314.437	22.19
314.651	97.96
314.864	-8.53
315.078	-16.73
315.292	-2.39
315.505	-4.44
315.719	34.47
315.933	9.9
316.146	-14.68
316.36	22.19
316.573	67.24
316.787	24.23
317.001	91.82
317.214	-24.92
317.428	22.19
317.641	-14.68
317.855	-49.49
318.068	65.19
318.282	97.96
318.495	93.87
318.709	59.05
318.922	20.14
319.136	122.54
319.349	122.54
319.563	3.75
319.776	87.72
319.99	-24.92
320.203	13.99
320.417	3.75
320.63	79.53
320.843	44.71
321.057	18.09
321.27	7.85
321.483	89.77
321.697	136.87
321.91	73.39
322.124	118.44
322.337	112.3
322.55	32.43
322.763	38.57
322.977	-8.53
323.19	-49.49
323.403	134.82
323.617	95.91
323.83	181.93
324.043	-8.53
324.256	73.39
324.469	5.8
324.683	77.48
324.896	71.34
325.109	116.39
325.322	-0.34
325.535	30.38
325.748	89.77
325.962	36.52
326.175	52.91
326.388	124.58
326.601	61.1
326.814	-16.73
327.027	-29.01
327.24	108.2
327.453	-22.87
327.666	75.43
327.879	65.19
328.092	67.24
328.305	28.33
328.518	7.85
328.731	22.19
328.944	38.57
329.157	38.57
329.37	67.24
329.583	75.43
329.796	118.44
330.009	-12.63
330.222	77.48
330.435	22.19
330.648	71.34
330.861	-4.44
331.073	-16.73
331.286	52.91
331.499	32.43
331.712	18.09
331.925	32.43
332.138	140.97
332.35	106.15
332.563	24.23
332.776	79.53
332.989	-0.34
333.202	48.81
333.414	16.04
333.627	87.72
333.84	40.62
334.053	67.24
334.265	5.8
334.478	-20.82
334.691	16.04
334.903	46.76
335.116	32.43
335.329	-0.34
335.541	81.58
335.754	106.15
335.966	-18.77
336.179	63.15
336.392	95.91
336.604	52.91
336.817	106.15
337.029	120.49
337.242	13.99
337.454	59.05
337.667	83.63
337.88	71.34
338.092	40.62
338.305	100.01
338.517	-61.78
338.729	89.77
338.942	132.78
339.154	50.86
339.367	5.8
339.579	87.72
339.792	-41.3
340.004	89.77
340.217	-12.63
340.429	110.25
340.641	-39.25
340.854	34.47
341.066	7.85
341.278	128.68
341.491	169.64
341.703	87.72
341.915	40.62
342.128	100.01
342.34	22.19
342.552	81.58
342.764	91.82
342.977	34.47
343.189	210.6
343.401	1.71
343.613	42.67
343.826	73.39
344.038	5.8
344.25	-8.53
344.462	-12.63
344.674	52.91
344.886	-29.01
345.099	-8.53
345.311	26.28
345.523	20.14
345.735	-29.01
345.947	108.2
346.159	32.43
346.371	97.96
346.583	112.3
346.795	173.74
347.007	77.48
347.219	71.34
347.431	11.95
347.643	-8.53
347.855	22.19
348.067	81.58
348.279	3.75
348.491	48.81
348.703	79.53
348.915	20.14
349.127	-16.73
349.339	87.72
349.551	87.72
349.763	63.15
349.975	52.91
350.187	83.63
350.399	130.73
350.61	128.68
350.822	-10.58
351.034	44.71
351.246	28.33
351.458	71.34
351.669	73.39
351.881	77.48
352.093	46.76
352.305	36.52
352.517	65.19
352.728	81.58
352.94	79.53
353.152	54.95
353.363	69.29
353.575	104.11
353.787	134.82
353.999	65.19
354.21	136.87
354.422	-33.11
354.633	-45.4
354.845	40.62
355.057	7.85
355.268	102.06
355.48	63.15
355.692	50.86
355.903	52.91
356.115	34.47
356.326	-8.53
356.538	81.58
356.749	40.62
356.961	136.87
357.172	54.95
357.384	24.23
357.595	81.58
357.807	24.23
358.018	50.86
358.23	16.04
358.441	204.46
358.653	87.72
358.864	-22.87
359.075	11.95
359.287	65.19
359.498	63.15
359.709	173.74
359.921	36.52
360.132	63.15
360.344	52.91
360.555	63.15
360.766	26.28
360.977	18.09
361.189	116.39
361.4	46.76
361.611	42.67
361.823	116.39
362.034	-12.63
362.245	32.43
362.456	57
362.667	24.23
362.879	-4.44
363.09	1.71
363.301	87.72
363.512	18.09
363.723	-22.87
363.935	40.62
364.146	136.87
364.357	57
364.568	63.15
364.779	28.33
364.99	128.68
365.201	34.47
365.412	65.19
365.623	-12.63
365.834	28.33
366.045	36.52
366.256	71.34
366.467	63.15
366.678	36.52
366.889	73.39
367.1	-45.4
367.311	110.25
367.522	7.85
367.733	69.29
367.944	18.09
368.155	59.05
368.366	36.52
368.577	124.58
368.788	75.43
368.999	26.28
369.209	100.01
369.42	153.26
369.631	278.18
369.842	36.52
370.053	22.19
370.264	110.25
370.474	-2.39
370.685	-18.77
370.896	-2.39
371.107	120.49
371.317	87.72
371.528	-8.53
371.739	87.72
371.95	3.75
372.16	57
372.371	22.19
372.582	-43.35
372.792	106.15
373.003	13.99
373.214	20.14
373.424	100.01
373.635	42.67
373.846	145.06
374.056	54.95
374.267	61.1
374.477	48.81
374.688	13.99
374.898	104.11
375.109	73.39
375.319	132.78
375.53	52.91
375.74	59.05
375.951	-2.39
376.161	81.58
376.372	124.58
376.582	69.29
376.793	46.76
377.003	-0.34
377.214	46.76
377.424	116.39
377.635	46.76
377.845	-41.3
378.055	138.92
378.266	-14.68
378.476	20.14
378.686	34.47
378.897	46.76
379.107	138.92
379.317	42.67
379.528	77.48
379.738	40.62
379.948	52.91
380.158	52.91
380.369	5.8
380.579	85.67
380.789	73.39
380.999	122.54
381.21	48.81
381.42	175.78
381.63	54.95
381.84	124.58
382.05	69.29
382.261	81.58
382.471	52.91
382.681	13.99
382.891	112.3
383.101	81.58
383.311	-35.16
383.521	48.81
383.731	102.06
383.941	97.96
384.151	-12.63
384.361	73.39
384.571	52.91
384.781	89.77
384.991	157.35
385.201	145.06
385.411	22.19
385.621	54.95
385.831	57
386.041	24.23
386.251	-0.34
386.461	126.63
386.671	16.04
386.881	38.57
387.091	-35.16
387.301	48.81
387.511	97.96
387.72	-8.53
387.93	73.39
388.14	40.62
388.35	81.58
388.56	50.86
388.769	126.63
388.979	124.58
389.189	48.81
389.399	50.86
389.609	124.58
389.818	59.05
390.028	52.91
390.238	46.76
390.447	48.81
390.657	75.43
390.867	38.57
391.076	-6.49
391.286	108.2
391.496	59.05
391.705	97.96
391.915	102.06
392.125	65.19
392.334	87.72
392.544	132.78
392.753	87.72
392.963	112.3
393.172	130.73
393.382	73.39
393.591	169.64
393.801	50.86
394.01	173.74
394.22	140.97
394.429	77.48
394.639	-2.39
394.848	42.67
395.058	132.78
395.267	97.96
395.477	112.3
395.686	91.82
395.895	81.58
396.105	138.92
396.314	167.59
396.524	85.67
396.733	85.67
396.942	89.77
397.152	114.34
397.361	161.45
397.57	52.91
397.78	108.2
397.989	128.68
398.198	188.07
398.407	69.29
398.617	102.06
398.826	87.72
399.035	145.06
399.244	186.02
399.453	81.58
399.663	89.77
399.872	67.24
400.081	91.82
400.29	161.45
400.499	42.67
400.708	124.58
400.917	151.21
401.127	118.44
401.336	97.96
401.545	198.31
401.754	122.54
401.963	151.21
402.172	108.2
402.381	110.25
402.59	138.92
402.799	181.93
403.008	114.34
403.217	85.67
403.426	188.07
403.635	104.11
403.844	165.54
404.053	145.06
404.262	169.64
404.471	292.52
404.68	200.36
404.888	210.6
405.097	122.54
405.306	173.74
405.515	210.6
405.724	124.58
405.933	155.3
406.142	186.02
406.35	188.07
406.559	204.46
406.768	206.5
406.977	298.66
407.185	292.52
407.394	247.46
407.603	200.36
407.812	274.09
408.02	292.52
408.229	243.37
408.438	192.17
408.646	161.45
408.855	231.08
409.064	265.89
409.272	257.7
409.481	317.09
409.69	226.98
409.898	269.99
410.107	298.66
410.315	450.21
410.524	310.95
410.733	294.57
410.941	396.96
411.15	386.72
411.358	409.25
411.567	476.84
411.775	431.78
411.984	437.92
412.192	517.79
412.401	493.22
412.609	505.51
412.818	589.47
413.026	601.76
413.234	564.9
413.443	493.22
413.651	579.23
413.86	542.37
414.068	691.87
414.276	704.16
414.485	650.91
414.693	681.63
414.901	788.13
415.11	800.41
415.318	700.06
415.526	753.31
415.734	882.33
415.943	786.08
416.151	865.95
416.359	931.48
416.567	906.91
416.776	941.72
416.984	1076.89
417.192	1093.27
417.4	949.92
417.608	1089.18
417.817	1052.31
418.025	1066.65
418.233	1328.79
418.441	1212.06
418.649	1220.25
418.857	1373.85
419.065	1390.23
419.273	1386.13
419.481	1420.95
419.689	1560.21
419.897	1599.12
420.105	1568.4
420.313	1689.23
420.521	1769.1
420.729	1791.63
420.937	1805.97
421.145	1967.76
421.353	2033.29
421.561	2039.44
421.769	2145.93
421.977	2295.43
422.185	2236.04
422.393	2172.55
422.601	2446.98
422.809	2576
423.017	2520.71
423.224	2504.32
423.432	2774.66
423.64	2700.93
423.848	3085.95
424.056	2897.53
424.263	3108.48
424.471	3016.32
424.679	3202.68
424.887	3204.73
425.094	3294.84
425.302	3411.57
425.51	3487.35
425.718	3692.15
425.925	3651.19
426.133	3831.41
426.341	4081.26
426.548	4095.6
426.756	4195.95
426.964	4216.43
427.171	4466.28
427.379	4484.71
427.586	4533.86
427.794	4734.56
428.001	5008.99
428.209	5117.53
428.417	5156.44
428.624	5336.67
428.832	5432.92
429.039	5441.11
429.247	5404.25
429.454	5957.2
429.662	6256.2
429.869	5873.23
430.076	6141.52
430.284	6055.5
430.491	6364.75
430.699	6645.32
430.906	6800.96
431.114	6858.31
431.321	7194.17
431.528	7315
431.736	7810.61
431.943	7829.04
432.15	7761.46
432.358	7882.29
432.565	8302.12
432.772	8320.56
432.979	8724.01
433.187	8775.2
433.394	8750.63
433.601	9487.9
433.808	9567.77
434.016	9334.3
434.223	9739.8
434.43	10454.54
434.637	10071.57
434.844	10735.11
435.052	11130.37
435.259	10917.38
435.466	10970.63
435.673	10876.42
435.88	11652.6
436.087	11967.99
436.294	12107.25
436.501	11802.1
436.708	12383.73
436.915	12406.25
437.122	13088.23
437.329	12887.53
437.537	13225.44
437.743	13770.2
437.95	13473.25
438.157	14022.1
438.364	14620.11
438.571	14611.92
438.778	14747.08
438.985	16317.87
439.192	15394.24
439.399	15994.29
439.606	15461.82
439.813	16375.22
440.02	17481.12
440.227	17116.58
440.433	16856.49
440.64	17354.15
440.847	17458.59
441.054	17884.57
441.261	18949.51
441.467	18390.42
441.674	18736.52
441.881	19361.16
442.088	19498.37
442.294	19543.42
442.501	19819.9
442.708	20286.84
442.914	20907.37
443.121	21914.97
443.328	21472.61
443.534	22642
443.741	22359.38
443.948	21865.82
444.154	23512.39
444.361	23092.55
444.568	23530.82
444.774	23453
444.981	23541.06
445.187	24401.21
445.394	25144.62
445.6	24669.49
445.807	27454.73
446.013	26260.76
446.22	26463.51
446.426	27794.69
446.633	28091.65
446.839	28802.29
447.046	27612.42
447.252	29340.91
447.459	28779.76
447.665	28882.16
447.871	30383.32
448.078	31460.55
448.284	29861.09
448.491	30872.79
448.697	31960.26
448.903	32931
449.11	32822.45
449.316	32099.52
449.522	32855.22
449.728	33273.01
449.935	33979.56
450.141	33498.28
450.347	34491.55
450.553	33385.65
450.76	33615.02
450.966	34538.65
451.172	34645.15
451.378	35413.13
451.584	34575.52
451.791	35439.76
451.997	35284.11
452.203	35789.96
452.409	35583.12
452.615	35740.81
452.821	34337.95
453.027	34051.24
453.233	36154.5
453.44	34059.43
453.646	34694.3
453.852	34843.8
454.058	35378.32
454.264	34010.28
454.47	34890.9
454.676	33901.73
454.882	35251.34
455.088	32120
455.294	32457.92
455.5	33029.3
455.705	33205.42
455.911	31888.58
456.117	31309
456.323	30536.92
456.529	29123.82
456.735	30624.98
456.941	29764.84
457.147	29039.86
457.352	28132.61
457.558	27901.18
457.764	28101.89
457.97	27370.76
458.176	26912.02
458.381	27098.38
458.587	25566.5
458.793	25541.92
458.999	24294.71
459.204	25820.45
459.41	25015.6
459.616	23145.8
459.821	23358.79
460.027	23254.34
460.233	22957.39
460.438	21626.21
460.644	21974.36
460.85	20712.81
461.055	20362.61
461.261	20325.75
461.466	18566.54
461.672	18255.25
461.878	19627.39
462.083	18240.92
462.289	17753.5
462.494	17452.45
462.7	16805.29
462.905	16266.67
463.111	16909.74
463.316	17075.62
463.522	16633.26
463.727	16631.21
463.932	16627.12
464.138	16428.46
464.343	16364.98
464.549	15900.09
464.754	16670.12
464.959	15873.46
465.165	16211.38
465.37	15556.03
465.575	15187.39
465.781	15502.78
465.986	15785.4
466.191	15363.52
466.397	14679.5
466.602	14122.45
466.807	14552.52
467.012	14495.18
467.218	14366.16
467.423	14429.65
467.628	14429.65
467.833	14984.65
468.038	14476.75
468.244	14005.72
468.449	14570.96
468.654	13835.74
468.859	13827.54
469.064	13983.19
469.269	13358.56
469.474	13364.7
469.679	13417.95
469.885	13235.68
470.09	13540.83
470.295	13559.26
470.5	12967.4
470.705	12994.02
470.91	12701.16
471.115	12613.1
471.32	12881.38
471.525	12707.3
471.73	12543.47
471.935	12250.61
472.139	12084.72
472.344	11984.37
472.549	11996.66
472.754	11685.37
472.959	11634.17
473.164	11363.84
473.369	11146.75
473.574	11859.45
473.778	11269.63
473.983	11286.01
474.188	11335.17
474.393	10827.27
474.598	10880.52
474.802	10808.84
475.007	10728.97
475.212	10722.82
475.417	10444.3
475.621	10214.93
475.826	10423.82
476.031	10169.87
476.235	9911.83
476.44	10059.28
476.645	10018.32
476.849	9864.72
477.054	9586.2
477.259	9467.42
477.463	9586.2
477.668	9311.77
477.872	9362.97
478.077	9127.46
478.282	8838.69
478.486	9221.66
478.691	8924.71
478.895	8775.2
479.1	8871.46
479.304	8830.5
479.509	8705.57
479.713	8779.3
479.918	8529.45
480.122	8609.32
480.326	8633.89
480.531	8406.57
480.735	8359.47
480.94	8103.47
481.144	8633.89
481.348	8089.14
481.553	8322.6
481.757	8013.36
481.961	8257.07
482.166	8181.29
482.37	8244.78
482.574	7890.48
482.778	8042.03
482.983	8144.43
483.187	8031.79
483.391	8242.73
483.595	8103.47
483.8	8093.23
484.004	8154.67
484.208	7994.93
484.412	8017.46
484.616	8074.8
484.821	7894.58
485.025	7904.82
485.229	7968.31
485.433	7941.68
485.637	8181.29
485.841	7978.54
486.045	7749.17
486.249	8117.81
486.453	7919.15
486.657	7935.54
486.861	7978.54
487.065	7810.61
487.269	7951.92
487.473	7685.69
487.677	8021.55
487.881	8066.61
488.085	7888.43
488.289	8007.22
488.493	7851.57
488.697	7878.19
488.901	7931.44
489.105	7888.43
489.309	7958.07
489.512	8111.66
489.716	8046.13
489.92	8173.1
490.124	7976.5
490.328	8183.34
490.531	7833.14
490.735	8099.38
490.939	8126
491.143	8064.56
491.346	7996.98
491.55	8101.42
491.754	8240.68
491.958	8224.3
492.161	8252.97
492.365	8453.67
492.569	8218.16
492.772	8230.45
492.976	8396.33
493.18	8429.1
493.383	8558.12
493.587	8554.02
493.79	8582.7
493.994	8435.24
494.197	8549.93
494.401	8703.53
494.605	8623.66
494.808	8644.13
495.012	8877.6
495.215	8957.47
495.419	9051.68
495.622	8887.84
495.825	8973.86
496.029	9158.17
496.232	9440.79
496.436	9207.33
496.639	9412.12
496.843	9285.15
497.046	9559.58
497.249	9678.36
497.453	9633.3
497.656	9799.19
497.859	9723.41
498.063	9934.36
498.266	10126.86
498.469	9915.92
498.673	10059.28
498.876	10362.38
499.079	10354.19
499.282	10567.18
499.485	10817.03
499.689	10591.75
499.892	10931.72
500.095	10778.12
500.298	11200
500.501	10837.51
500.705	11261.44
500.908	11386.36
501.111	11341.31
501.314	11675.13
501.517	11951.6
501.72	11820.53
501.923	11726.33
502.126	12125.68
502.329	12344.81
502.532	12332.53
502.735	12348.91
502.938	12606.95
503.141	12754.41
503.344	12813.8
503.547	13010.4
503.75	13153.76
503.953	13041.12
504.156	13442.53
504.359	13376.99
504.562	13383.13
504.765	14005.72
504.968	14024.15
505.17	14362.06
505.373	14138.83
505.576	14493.13
505.779	14720.46
505.982	14568.91
506.185	14704.07
506.387	15003.08
506.59	15009.22
506.793	15257.03
506.996	15431.1
507.198	15631.8
507.401	15668.67
507.604	15846.84
507.807	16020.92
508.009	16127.41
508.212	16076.21
508.415	16418.22
508.617	16745.9
508.82	16661.93
509.022	16698.8
509.225	17040.81
509.428	17290.66
509.63	17368.48
509.833	17046.95
510.035	17790.36
510.238	17501.6
510.44	18107.8
510.643	17839.51
510.845	18193.81
511.048	18007.45
511.25	18212.24
511.453	18572.69
511.655	19309.96
511.858	18861.45
512.06	19176.84
512.262	19455.36
512.465	19418.5
512.667	19619.2
512.87	19780.99
513.072	19780.99
513.274	20313.46
513.477	20516.21
513.679	20424.05
513.881	20444.53
514.084	20686.19
514.286	21312.87
514.488	21005.67
514.69	21525.86
514.893	21519.71
515.095	21486.95
515.297	21562.72
515.499	21671.26
515.701	22183.26
515.904	22490.45
516.106	22388.05
516.308	22656.34
516.51	23020.88
516.712	22619.47
516.914	22965.58
517.116	23330.12
517.318	23647.55
517.52	23334.21
517.722	23496
517.925	24003.9
518.127	24251.7
518.329	24601.91
518.531	24270.14
518.733	24782.13
518.935	24982.83
519.136	24808.75
519.338	25177.39
519.54	25312.55
519.742	25304.36
519.944	25330.98
520.146	25730.34
520.348	25902.37
520.55	25896.22
520.752	25908.51
520.954	26623.25
521.155	26219.8
521.357	26688.79
521.559	26696.98
521.761	27241.74
521.963	27221.26
522.164	27415.82
522.366	26965.26
522.568	27497.74
522.77	27870.47
522.971	28065.02
523.173	27782.4
523.375	28036.35
523.576	28060.93
523.778	27954.43
523.98	28300.54
524.181	28101.89
524.383	28478.71
524.584	28882.16
524.786	28892.4
524.988	28261.63
525.189	29013.23
525.391	28947.7
525.592	28957.94
525.794	29340.91
525.995	28996.85
526.197	29361.39
526.398	29361.39
526.6	29578.47
526.801	29672.68
527.003	29574.38
527.204	29533.42
527.406	30002.4
527.607	30012.64
527.808	29760.74
528.01	29383.91
528.211	30090.46
528.412	30096.61
528.614	30235.87
528.815	30033.12
529.016	30588.12
529.218	29867.23
529.419	30227.68
529.62	30117.09
529.822	30199.01
530.023	30227.68
530.224	30346.46
530.425	30006.5
530.626	30063.84
530.828	29977.83
531.029	30874.84
531.23	30092.51
531.431	30051.55
531.632	30547.16
531.833	30821.59
532.035	30424.28
532.236	30348.51
532.437	30688.47
532.638	30528.73
532.839	30420.19
533.04	30633.18
533.241	30190.81
533.442	30579.93
533.643	30737.62
533.844	30502.11
534.045	30461.15
534.246	30293.21
534.447	30485.72
534.648	30356.7
534.849	30807.25
535.05	30549.21
535.251	30633.18
535.451	30059.74
535.652	30577.88
535.853	30205.15
536.054	30577.88
536.255	30481.63
536.456	29967.59
536.657	30225.63
536.857	29977.83
537.058	30020.83
537.259	30741.72
537.46	30942.42
537.66	30266.59
537.861	30127.33
538.062	30059.74
538.263	29990.11
538.463	30336.22
538.664	30260.44
538.865	30397.66
539.065	30131.42
539.266	30008.54
539.466	30457.05
539.667	29959.39
539.868	30444.76
540.068	29990.11
540.269	30164.19
540.469	30764.25
540.67	30072.03
540.87	30334.17
541.071	30209.25
541.271	30090.46
541.472	30012.64
541.672	30291.16
541.873	30098.66
542.073	29947.11
542.274	30364.89
542.474	29850.85
542.675	30088.42
542.875	30141.66
543.075	29983.97
543.276	29680.87
543.476	30067.94
543.676	29838.56
543.877	29754.6
544.077	29822.18
544.277	30043.36
544.478	29865.19
544.678	30002.4
544.878	29977.83
545.078	30360.8
545.279	29613.29
545.479	29670.63
545.679	29676.77
545.879	29785.32
546.079	30211.29
546.28	29668.58
546.48	29553.9
546.68	29912.29
546.88	30039.26
547.08	29652.2
547.28	29551.85
547.48	29326.57
547.68	29873.38
547.88	29517.03
548.081	29916.39
548.281	29850.85
548.481	29514.98
548.681	29842.66
548.881	29609.19
549.081	29560.04
549.28	29238.51
549.48	30022.88
549.68	29713.64
549.88	29582.57
550.08	29420.78
550.28	29811.94
550.48	29701.35
550.68	29865.19
550.88	29332.72
551.08	29873.38
551.279	29455.59
551.479	29388.01
551.679	29545.7
551.879	29748.45
552.079	29748.45
552.278	29424.87
552.478	29535.46
552.678	29439.21
552.878	29752.55
553.077	29523.18
553.277	29058.29
553.477	30026.98
553.676	29330.67
553.876	29635.81
554.076	29037.81
554.275	29377.77
554.475	29340.91
554.674	29447.4
554.874	29324.52
555.074	29109.49
555.273	29379.82
555.473	29826.28
555.672	29177.07
555.872	29193.45
556.071	29283.56
556.271	29570.28
556.47	29093.1
556.67	28994.8
556.869	29119.73
557.068	29707.49
557.268	28914.93
557.467	29111.53
557.667	29046
557.866	29015.28
558.065	29068.53
558.265	28986.61
558.464	28845.3
558.663	29578.47
558.863	28927.22
559.062	29277.42
559.261	28765.43
559.461	29342.95
559.66	28787.96
559.859	29039.86
560.058	28898.55
560.258	28761.33
560.457	28763.38
560.656	29338.86
560.855	29054.19
561.054	28931.31
561.253	28886.26
561.453	28675.32
561.652	28630.26
561.851	28943.6
562.05	28878.07
562.249	28624.12
562.448	28802.29
562.647	28962.03
562.846	28822.77
563.045	28984.56
563.244	28534.01
563.443	28615.93
563.642	28484.86
563.841	28964.08
564.04	28388.6
564.239	29013.23
564.438	28454.14
564.637	28235
564.836	28605.69
565.035	28513.53
565.234	28392.7
565.432	28478.71
565.631	27852.03
565.83	28429.56
566.029	28521.72
566.228	28118.27
566.427	28325.11
566.625	28413.18
566.824	28079.36
567.023	28329.21
567.222	27809.03
567.42	28337.4
567.619	28472.57
567.818	28378.36
568.016	28032.25
568.215	28466.42
568.414	28085.5
568.612	28355.83
568.811	28220.67
569.01	28325.11
569.208	27819.27
569.407	28398.84
569.605	27708.68
569.804	28394.75
570.002	28087.55
570.201	27788.55
570.4	27903.23
570.598	27843.84
570.797	27704.58
570.995	28306.68
571.193	27702.53
571.392	27831.55
571.59	27759.88
571.789	27890.95
571.987	27358.47
572.186	28083.45
572.384	27698.44
572.582	27782.4
572.781	27706.63
572.979	27323.66
573.177	27766.02
573.376	27731.2
573.574	27432.2
573.772	27792.64
573.971	27503.88
574.169	27585.8
574.367	27372.81
574.565	27481.35
574.763	27170.06
574.962	27600.13
575.16	26993.93
575.358	27376.9
575.556	26924.3
575.754	27172.11
575.952	27032.85
576.151	27284.75
576.349	27159.82
576.547	26899.73
576.745	27067.66
576.943	27069.71
577.141	27090.19
577.339	26844.43
577.537	26834.19
577.735	26760.47
577.933	27069.71
578.131	27004.17
578.329	26727.7
578.527	26633.49
578.725	26508.57
578.923	26926.35
579.121	26721.55
579.319	26414.36
579.516	26793.23
579.714	26723.6
579.912	26604.82
580.11	26696.98
580.308	26774.8
580.506	26422.55
580.704	26076.44
580.901	26537.24
581.099	26633.49
581.297	26440.98
581.495	26256.67
581.692	26428.7
581.89	26262.81
582.088	26422.55
582.285	26096.92
582.483	26187.04
582.681	26268.95
582.878	26332.44
583.076	25869.6
583.274	26004.77
583.471	26000.67
583.669	25986.33
583.866	25615.65
584.064	25965.85
584.262	25732.39
584.459	25892.13
584.657	25740.58
584.854	26000.67
585.052	25832.74
585.249	25613.6
585.447	25982.24
585.644	25505.06
585.841	25693.47
586.039	25810.21
586.236	25228.59
586.434	25500.97
586.631	25482.53
586.828	25507.11
587.026	25707.81
587.223	25570.6
587.42	25214.25
587.618	25795.87
587.815	25314.6
588.012	25330.98
588.21	24788.27
588.407	25619.75
588.604	25204.01
588.801	25109.8
588.999	25335.08
589.196	25382.18
589.393	25373.99
589.59	25054.51
589.787	25044.27
589.984	25107.76
590.182	24749.36
590.379	24941.87
590.576	24796.46
590.773	25083.18
590.97	24880.43
591.167	25087.28
591.364	24599.86
591.561	24905.01
591.758	24771.89
591.955	24823.09
592.152	25091.37
592.349	24806.7
592.546	24724.79
592.743	24786.22
592.94	24444.21
593.137	24923.44
593.334	24644.91
593.531	24481.08
593.727	24747.31
593.924	24964.4
594.121	24687.92
594.318	25021.74
594.515	24636.72
594.712	24724.79
594.908	24554.8
595.105	24618.29
595.302	24530.23
595.499	24505.65
595.696	24626.48
595.892	23995.71
596.089	24737.07
596.286	24614.2
596.482	24421.69
596.679	24337.72
596.876	24628.53
597.072	24608.05
597.269	24517.94
597.466	24765.74
597.662	24542.52
597.859	24790.32
598.055	24513.84
598.252	24124.73
598.448	24352.06
598.645	24454.45
598.841	24481.08
599.038	24663.35
599.234	24606
599.431	24253.75
599.627	24126.78
599.824	24603.96
600.02	24323.38
600.217	24714.55
600.413	24612.15
600.609	24577.33
600.806	24614.2
601.002	24661.3
601.198	24243.51
601.395	24526.13
601.591	24612.15
601.787	24835.38
601.984	24552.76
602.18	24517.94
602.376	24481.08
602.572	24798.51
602.769	24380.73
602.965	24565.04
603.161	24630.58
603.357	24421.69
603.553	24517.94
603.75	24788.27
603.946	24274.23
604.142	24519.99
604.338	24376.63
604.534	24788.27
604.73	24472.89
604.926	24419.64
605.122	24909.1
605.318	24581.43
605.514	24401.21
605.71	24569.14
605.906	24696.11
606.102	24630.58
606.298	24519.99
606.494	24857.9
606.69	25083.18
606.886	24802.61
607.082	24704.31
607.278	25142.57
607.474	24481.08
607.67	25132.33
607.866	24618.29
608.062	25216.3
608.257	24935.73
608.453	25142.57
608.649	25183.53
608.845	25242.92
609.041	25036.08
609.236	24857.9
609.432	25382.18
609.628	25271.59
609.824	25437.48
610.019	25308.46
610.215	25529.64
610.411	25699.62
610.606	25349.42
610.802	25251.11
610.998	25812.26
611.193	25543.97
611.389	25515.3
611.584	25722.15
611.78	25507.11
611.976	25621.8
612.171	25953.57
612.367	25853.22
612.562	25926.94
612.758	25605.41
612.953	25392.42
613.149	25902.37
613.344	25707.81
613.539	26604.82
613.735	26068.25
613.93	26434.84
614.126	26066.2
614.321	26307.87
614.517	26422.55
614.712	26357.02
614.907	26152.22
615.103	26348.82
615.298	26240.28
615.493	26653.97
615.688	26565.91
615.884	26948.88
616.079	26402.07
616.274	26668.31
616.47	26696.98
616.665	26410.26
616.86	26494.23
617.055	26703.12
617.25	26604.82
617.445	26725.65
617.641	26373.4
617.836	26957.07
618.031	26504.47
618.226	26836.24
618.421	26410.26
618.616	26658.07
618.811	26432.79
619.006	26725.65
619.201	26445.08
619.396	26766.61
619.591	26037.53
619.786	26815.76
619.981	26342.68
620.176	26918.16
620.371	26463.51
620.566	26273.05
620.761	26653.97
620.956	26653.97
621.151	26336.54
621.346	26815.76
621.541	25748.77
621.735	26703.12
621.93	25916.7
622.125	26320.15
622.32	25943.33
622.515	26316.06
622.709	26184.99
622.904	26002.72
623.099	25935.13
623.294	25814.3
623.488	25550.12
623.683	25759.01
623.878	25634.08
624.072	25695.52
624.267	25462.05
624.462	25859.36
624.656	25247.02
624.851	25404.71
625.046	25476.39
625.24	24970.54
625.435	25005.36
625.629	25206.06
625.824	24993.07
626.018	25011.5
626.213	24450.36
626.407	24843.57
626.602	24624.43
626.796	24855.86
626.991	24655.15
627.185	24470.84
627.38	24771.89
627.574	24218.94
627.768	24106.3
627.963	24446.26
628.157	23905.6
628.352	24225.08
628.546	23893.31
628.74	24184.12
628.935	23711.04
629.129	23911.74
629.323	23416.13
629.517	23383.37
629.712	23428.42
629.906	23516.48
630.1	22885.71
630.294	23428.42
630.489	23090.51
630.683	23276.87
630.877	23057.74
631.071	22805.84
631.265	23061.83
631.459	22949.2
631.653	22484.31
631.848	22308.18
632.042	22383.96
632.236	22709.58
632.43	22443.35
632.624	22725.97
632.818	22123.87
633.012	22152.54
633.206	22107.48
633.4	22216.02
633.594	21751.13
633.788	22099.29
633.982	21871.96
634.176	21867.87
634.369	21673.31
634.563	21726.56
634.757	21476.71
634.951	21560.67
635.145	21421.41
635.339	21316.97
635.533	21022.06
635.726	21185.9
635.92	20977
636.114	20878.7
636.308	20784.49
636.501	20772.21
636.695	20696.43
636.889	20493.68
637.083	20481.39
637.276	20475.25
637.47	20166.01
637.664	19989.88
637.857	20172.15
638.051	20008.31
638.244	19735.93
638.438	19928.44
638.632	19828.09
638.825	19408.26
639.019	19395.97
639.212	19398.02
639.406	19545.47
639.599	19420.55
639.793	19348.87
639.986	18750.86
640.18	18910.6
640.373	19262.85
640.567	18955.66
640.76	18714
640.954	18544.02
641.147	18474.38
641.34	18402.71
641.534	18285.97
641.727	18224.53
641.92	18247.06
642.114	17907.1
642.307	17903
642.5	18036.12
642.694	17708.44
642.887	17681.82
643.08	17851.8
643.273	17640.86
643.467	17620.38
643.66	17415.58
643.853	17243.56
644.046	16946.6
644.239	17143.21
644.432	16872.87
644.626	16891.3
644.819	16827.82
645.012	16979.37
645.205	16905.64
645.398	16549.29
645.591	16524.72
645.784	16684.46
645.977	16244.15
646.17	16379.31
646.363	15928.76
646.556	16203.19
646.749	15996.34
646.942	16182.71
647.135	15756.73
647.328	15769.02
647.521	15545.79
647.714	15345.09
647.907	15545.79
648.099	15234.5
648.292	15375.81
648.485	15271.36
648.678	15076.8
648.871	14853.58
649.064	14790.09
649.256	14837.19
649.449	14497.23
649.642	14927.3
649.835	14632.4
650.027	14495.18
650.22	14513.61
650.413	14210.51
650.605	14120.4
650.798	14288.34
650.991	13964.76
651.183	14187.99
651.376	13899.22
651.568	13757.91
651.761	13669.85
651.954	13743.58
652.146	13665.75
652.339	13542.88
652.531	13669.85
652.724	13604.32
652.916	13151.71
653.109	13381.09
653.301	13262.3
653.494	13250.02
653.686	12905.96
653.879	13141.47
654.071	12852.71
654.263	12948.97
654.456	12867.05
654.648	12742.12
654.84	12414.45
655.033	12471.79
655.225	12551.66
655.417	12406.25
655.61	12555.76
655.802	12262.9
655.994	12146.16
656.186	12142.07
656.379	12000.76
656.571	12277.23
656.763	11677.18
656.955	11881.97
657.148	11881.97
657.34	11808.25
657.532	11728.38
657.724	11765.24
657.916	11451.9
658.108	11640.31
658.3	11408.89
658.492	11476.48
658.684	11181.57
658.876	11124.22
659.068	11066.88
659.26	10952.2
659.452	11060.74
659.644	10872.32
659.836	10882.56
660.028	10853.89
660.22	10645
660.412	10425.87
660.604	10667.53
660.796	10495.5
660.988	10294.8
661.18	10409.48
661.372	10157.58
661.563	10339.85
661.755	10348.04
661.947	10130.96
662.139	10106.38
662.331	9952.79
662.522	9784.85
662.714	9860.63
662.906	9692.69
663.097	9727.51
663.289	9459.23
663.481	9369.12
663.673	9526.81
663.864	9186.85
664.056	9362.97
664.247	9661.98
664.439	9160.22
664.631	9383.45
664.822	9082.4
665.014	9262.62
665.205	9102.88
665.397	8918.56
665.588	9012.77
665.78	8873.51
665.971	8683.05
666.163	8685.09
666.354	8855.08
666.546	8619.56
666.737	8570.41
666.929	8392.23
667.12	8674.85
667.311	8611.37
667.503	8265.26
667.694	8398.38
667.885	8371.75
668.077	8349.23
668.268	7986.74
668.459	8255.02
668.651	8154.67
668.842	8144.43
669.033	7890.48
669.224	7867.95
669.416	8224.3
669.607	8015.41
669.798	7827
669.989	7951.92
670.18	7673.4
670.371	7724.6
670.563	7654.97
670.754	7527.99
670.945	7706.17
671.136	7634.49
671.327	7630.39
671.518	7501.37
671.709	7577.14
671.9	7634.49
672.091	7482.94
672.282	7702.07
672.473	7296.57
672.664	7632.44
672.855	7409.21
673.046	7304.76
673.237	7360.06
673.428	7351.87
673.619	7259.71
673.809	7155.26
674	7237.18
674.191	7114.3
674.382	7102.01
674.573	7173.69
674.764	7128.64
674.954	7040.58
675.145	6805.06
675.336	7081.53
675.527	7065.15
675.717	6960.7
675.908	6839.87
676.099	6745.67
676.289	6989.38
676.48	6839.87
676.671	6807.11
676.861	7011.9
677.052	6590.02
677.243	6688.32
677.433	6585.93
677.624	6764.1
677.814	6807.11
678.005	6565.45
678.195	6702.66
678.386	6559.3
678.576	6532.68
678.767	6383.18
678.957	6567.49
679.148	6710.85
679.338	6493.77
679.529	6557.25
679.719	6516.3
679.909	6610.5
680.1	6272.59
680.29	6499.91
680.481	6504.01
680.671	6493.77
680.861	6483.53
681.052	6465.1
681.242	6305.35
681.432	6512.2
681.622	6248.01
681.813	6153.8
682.003	6223.44
682.193	6293.07
682.383	6383.18
682.573	6217.29
682.764	6190.67
682.954	6196.81
683.144	6325.83
683.334	6340.17
683.524	6096.46
683.714	6053.45
683.904	6297.16
684.094	6137.42
684.284	6190.67
684.474	6078.03
684.664	6272.59
684.854	6262.35
685.044	6295.11
685.234	6127.18
685.424	6190.67
685.614	5944.91
685.804	6004.3
685.994	6288.97
686.184	5959.25
686.374	6065.74
686.564	5979.73
686.753	5975.63
686.943	5842.51
687.133	5918.29
687.323	5944.91
687.513	5865.04
687.702	5897.81
687.892	5871.19
688.082	5893.71
688.272	5967.44
688.461	5842.51
688.651	5881.42
688.841	5807.7
689.03	5756.5
689.22	5887.57
689.41	5776.98
689.599	5848.66
689.789	5836.37
689.979	5838.42
690.168	5940.82
690.358	5733.97
690.547	5666.39
690.737	5662.29
690.926	5854.8
691.116	5746.26
691.305	5826.13
691.495	5729.88
691.684	5664.34
691.874	5766.74
692.063	5652.05
692.252	5690.96
692.442	5639.76
692.631	5611.09
692.82	5643.86
693.01	5588.57
693.199	5670.48
693.388	5561.94
693.578	5609.05
693.767	5715.54
693.956	5484.12
694.146	5523.03
694.335	5426.78
694.524	5629.52
694.713	5506.65
694.902	5555.8
695.092	5584.47
695.281	5637.72
695.47	5545.56
695.659	5461.59
695.848	5557.85
696.037	5518.93
696.226	5576.28
696.415	5496.41
696.604	5650
696.793	5504.6
696.982	5566.04
697.171	5592.66
697.36	5480.02
697.549	5543.51
697.738	5533.27
697.927	5424.73
698.116	5539.41
698.305	5531.22
698.494	5535.32
698.683	5414.49
698.872	5652.05
699.061	5488.21
699.25	5502.55
699.438	5428.82
699.627	5615.19
699.816	5607
700.005	5529.17
700.193	5432.92
700.382	5385.82
700.571	5402.2
700.76	5551.7
700.948	5617.24
701.137	5453.4
701.326	5422.68
701.514	5576.28
701.703	5529.17
701.892	5344.86
702.08	5541.46
702.269	5385.82
702.457	5484.12
702.646	5461.59
702.834	5381.72
703.023	5459.54
703.212	5420.63
703.4	5520.98
703.589	5453.4
703.777	5455.45
703.965	5396.06
704.154	5289.56
704.342	5371.48
704.531	5383.77
704.719	5414.49
704.907	5262.94
705.096	5299.8
705.284	5369.43
705.472	5447.26
705.661	5338.71
705.849	5635.67
706.037	5463.64
706.226	5195.36
706.414	5381.72
706.602	5256.79
706.79	5363.29
706.979	5168.73
707.167	5174.88
707.355	5150.3
707.543	5301.85
707.731	5219.93
707.919	5133.92
708.107	5234.27
708.296	5154.4
708.484	5125.72
708.672	5127.77
708.86	5258.84
709.048	5262.94
709.236	5201.5
709.424	5060.19
709.612	5123.68
709.8	5213.79
709.988	5267.03
710.176	5027.42
710.364	5140.06
710.551	5031.52
710.739	5215.84
710.927	5140.06
711.115	5068.38
711.303	5277.27
711.491	5031.52
711.679	5023.33
711.866	5125.72
712.054	4972.13
712.242	4859.49
712.43	5123.68
712.617	4916.83
712.805	5008.99
712.993	5060.19
713.181	4851.3
713.368	4961.89
713.556	5095
713.744	4937.31
713.931	5289.56
714.119	4922.98
714.306	4882.02
714.494	5023.33
714.682	4789.86
714.869	4929.12
715.057	4970.08
715.244	4791.91
715.432	4970.08
715.619	4965.98
715.807	4867.68
715.994	4828.77
716.182	4886.11
716.369	4828.77
716.556	4767.33
716.744	4660.84
716.931	4585.06
717.119	4738.66
717.306	4779.62
717.493	4748.9
717.681	4703.84
717.868	4621.92
718.055	4763.23
718.242	4646.5
718.43	4658.79
718.617	4761.19
718.804	4689.51
718.991	4544.1
719.179	4658.79
719.366	4650.6
719.553	4583.01
719.74	4607.59
719.927	4525.67
720.114	4572.77
720.301	4630.12
720.488	4365.93
720.676	4529.77
720.863	4507.24
721.05	4533.86
721.237	4548.2
721.424	4456.04
721.611	4666.98
721.798	4587.11
721.985	4267.63
722.172	4392.55
722.358	4314.73
722.545	4286.06
722.732	4353.64
722.919	4474.47
723.106	4472.42
723.293	4294.25
723.48	4316.78
723.667	4365.93
723.853	4253.29
724.04	4429.42
724.227	4341.35
724.414	4306.54
724.6	4304.49
724.787	4431.46
724.974	4277.87
725.161	4228.71
725.347	4304.49
725.534	4241
725.72	4191.85
725.907	4232.81
726.094	4236.91
726.28	4206.19
726.467	4171.37
726.653	4306.54
726.84	4128.36
727.027	4175.47
727.213	4114.03
727.4	4208.23
727.586	4109.93
727.773	4030.06
727.959	4157.04
728.145	4169.32
728.332	4089.45
728.518	4040.3
728.705	4124.27
728.891	4013.68
729.077	3903.09
729.264	3948.14
729.45	3991.15
729.636	3942
729.823	3944.05
730.009	4064.88
730.195	3864.18
730.382	3903.09
730.568	3786.35
730.754	3978.86
730.94	3929.71
731.126	3907.18
731.313	3890.8
731.499	3870.32
731.685	3858.03
731.871	3954.29
732.057	4021.87
732.243	3786.35
732.429	3710.58
732.615	3903.09
732.801	3815.02
732.987	3841.65
733.173	3780.21
733.359	3841.65
733.545	3645.04
733.731	3806.83
733.917	3876.46
734.103	3718.77
734.289	3726.96
734.475	3663.47
734.661	3769.97
734.847	3755.63
735.033	3624.56
735.219	3743.35
735.404	3571.32
735.59	3698.29
735.776	3688.05
735.962	3640.95
736.148	3599.99
736.333	3571.32
736.519	3599.99
736.705	3540.6
736.89	3559.03
737.076	3579.51
737.262	3436.15
737.447	3464.82
737.633	3493.49
737.819	3542.64
738.004	3520.12
738.19	3565.17
738.375	3427.96
738.561	3460.73
738.747	3405.43
738.932	3395.19
739.118	3432.05
739.303	3423.86
739.489	3395.19
739.674	3421.81
739.859	3272.31
740.045	3358.33
740.23	3272.31
740.416	3137.15
740.601	3329.66
740.786	3196.54
740.972	3292.79
741.157	3274.36
741.342	3098.24
741.528	3165.82
741.713	3092.09
741.898	3180.15
742.084	3049.08
742.269	3094.14
742.454	3108.48
742.639	3120.76
742.824	3159.67
743.01	3014.27
743.195	3040.89
743.38	3065.47
743.565	2875.01
743.75	3047.04
743.935	2973.31
744.12	3118.72
744.305	2856.58
744.49	3030.65
744.675	2825.86
744.86	2938.49
745.045	2889.34
745.23	3016.32
745.415	2969.21
745.6	2764.42
745.785	2690.69
745.97	2950.78
746.155	2805.38
746.34	2741.89
746.525	2793.09
746.71	2797.18
746.895	2684.55
747.079	2690.69
747.264	2788.99
747.449	2729.6
747.634	2619.01
747.819	2635.39
748.003	2670.21
748.188	2649.73
748.373	2670.21
748.557	2584.2
748.742	2526.85
748.927	2573.96
749.111	2598.53
749.296	2545.28
749.481	2619.01
749.665	2598.53
749.85	2526.85
750.034	2588.29
750.219	2539.14
750.404	2463.37
750.588	2408.07
750.773	2430.6
750.957	2410.12
751.141	2455.17
751.326	2348.68
751.51	2367.11
751.695	2268.81
751.879	2383.49
752.064	2317.96
752.248	2279.05
752.432	2274.95
752.617	2236.04
752.801	2311.82
752.985	2188.94
753.17	2334.34
753.354	2250.38
753.538	2207.37
753.722	2111.11
753.907	2094.73
754.091	2115.21
754.275	2123.4
754.459	2070.16
754.643	2107.02
754.828	1990.28
755.012	2104.97
755.196	2039.44
755.38	2072.2
755.564	2031.24
755.748	2053.77
755.932	2088.59
756.116	1998.48
756.3	1879.69
756.484	1898.13
756.668	1894.03
756.852	1801.87
757.036	1953.42
757.22	1898.13
757.404	1848.97
757.588	1863.31
757.772	1814.16
757.956	1767.06
758.14	1865.36
758.323	1803.92
758.507	1730.19
758.691	1769.1
758.875	1730.19
759.059	1824.4
759.242	1738.38
759.426	1726.1
759.61	1685.14
759.794	1787.54
759.977	1783.44
760.161	1738.38
760.345	1775.25
760.528	1695.38
760.712	1783.44
760.895	1648.27
761.079	1658.51
761.263	1668.75
761.446	1709.71
761.63	1654.42
761.813	1695.38
761.997	1576.59
762.18	1631.89
762.364	1605.27
762.547	1515.16
762.731	1590.93
762.914	1576.59
763.098	1529.49
763.281	1558.16
763.464	1552.02
763.648	1668.75
763.831	1504.92
764.015	1549.97
764.198	1662.61
764.381	1554.07
764.564	1560.21
764.748	1560.21
764.931	1523.35
765.114	1517.2
765.297	1590.93
765.481	1490.58
765.664	1379.99
765.847	1494.68
766.03	1474.2
766.213	1367.7
766.397	1433.24
766.58	1351.32
766.763	1529.49
766.946	1416.85
767.129	1308.31
767.312	1463.96
767.495	1369.75
767.678	1418.9
767.861	1330.84
768.044	1435.28
768.227	1302.17
768.41	1402.52
768.593	1486.48
768.776	1388.18
768.959	1308.31
769.142	1449.62
769.324	1398.42
769.507	1324.69
769.69	1390.23
769.873	1371.8
770.056	1384.09
770.239	1296.02
770.421	1359.51
770.604	1384.09
770.787	1318.55
770.97	1255.06
771.152	1351.32
771.335	1314.45
771.518	1277.59
771.7	1318.55
771.883	1390.23
772.066	1248.92
772.248	1326.74
772.431	1349.27
772.613	1228.44
772.796	1158.81
772.978	1259.16
773.161	1347.22
773.343	1279.64
773.526	1267.35
773.708	1248.92
773.891	1175.19
774.073	1201.82
774.256	1144.47
774.438	1371.8
774.621	1181.34
774.803	1220.25
774.985	1164.95
775.168	1160.86
775.35	1253.02
775.532	1246.87
775.715	1101.47
775.897	1164.95
776.079	1089.18
776.261	1214.1
776.444	1103.51
776.626	1173.14
776.808	1033.88
776.99	1058.46
777.173	1126.04
777.355	1074.84
777.537	1126.04
777.719	1060.51
777.901	947.87
778.083	1001.12
778.265	949.92
778.447	1087.13
778.629	1046.17
778.811	1091.23
778.993	1089.18
779.175	1046.17
779.357	980.64
779.539	1031.83
779.721	933.53
779.903	1052.31
780.085	837.28
780.267	915.1
780.449	968.35
780.631	892.57
780.812	966.3
780.994	904.86
781.176	925.34
781.358	870.05
781.54	822.94
781.721	980.64
781.903	929.44
782.085	728.74
782.267	927.39
782.448	816.8
782.63	827.04
782.812	880.29
782.993	827.04
783.175	874.14
783.357	833.18
783.538	822.94
783.72	847.52
783.901	763.55
784.083	784.03
784.264	833.18
784.446	728.74
784.627	638.62
784.809	751.26
784.99	790.17
785.172	738.98
785.353	702.11
785.535	695.97
785.716	657.06
785.897	693.92
786.079	689.82
786.26	767.65
786.441	720.54
786.623	626.34
786.804	712.35
786.985	710.3
787.167	726.69
787.348	663.2
787.529	622.24
787.71	710.3
787.891	667.3
788.073	681.63
788.254	601.76
788.435	720.54
788.616	693.92
788.797	687.78
788.978	560.8
789.159	591.52
789.34	663.2
789.522	630.43
789.703	640.67
789.884	616.1
790.065	562.85
790.246	734.88
790.427	562.85
790.607	687.78
790.788	679.58
790.969	540.32
791.15	560.8
791.331	581.28
791.512	587.43
791.693	562.85
791.874	538.27
792.054	659.1
792.235	566.95
792.416	538.27
792.597	439.97
792.778	587.43
792.958	530.08
793.139	525.99
793.32	589.47
793.5	485.03
793.681	583.33
793.862	503.46
794.042	493.22
794.223	433.83
794.404	425.64
794.584	396.96
794.765	493.22
794.945	517.79
795.126	452.26
795.306	505.51
795.487	517.79
795.667	431.78
795.848	503.46
796.028	450.21
796.209	480.93
796.389	511.65
796.57	523.94
796.75	444.07
796.93	513.7
797.111	456.36
797.291	407.2
797.471	482.98
797.652	427.68
797.832	487.08
798.012	450.21
798.192	405.16
798.373	429.73
798.553	409.25
798.733	415.4
798.913	351.91
799.093	452.26
799.274	396.96
799.454	399.01
799.634	474.79
799.814	466.6
799.994	499.36
800.174	390.82
800.354	405.16
800.534	288.42
800.714	347.81
800.894	331.43
801.074	300.71
801.254	347.81
801.434	446.12
801.614	335.53
801.794	360.1
801.974	1250.97
802.154	374.44
802.334	476.84
802.514	306.85
802.693	339.62
802.873	274.09
803.053	358.05
803.233	276.13
803.413	302.76
803.592	306.85
803.772	335.53
803.952	390.82
804.131	329.38
804.311	343.72
804.491	366.25
804.67	394.92
804.85	308.9
805.03	431.78
805.209	390.82
805.389	378.53
805.568	259.75
805.748	233.13
805.928	386.72
806.107	388.77
806.287	366.25
806.466	349.86
806.646	253.61
806.825	298.66
807.004	272.04
807.184	286.37
807.363	378.53
807.543	284.33
807.722	288.42
807.901	376.48
808.081	290.47
808.26	169.64
808.439	300.71
808.619	280.23
808.798	243.37
808.977	302.76
809.156	327.33
809.336	313
809.515	300.71
809.694	149.16
809.873	229.03
810.052	353.96
810.231	310.95
810.411	229.03
810.59	341.67
810.769	226.98
810.948	259.75
811.127	224.94
811.306	272.04
811.485	218.79
811.664	399.01
811.843	319.14
812.022	243.37
812.201	263.85
812.38	247.46
812.559	220.84
812.737	265.89
812.916	194.22
813.095	315.05
813.274	212.65
813.453	208.55
813.632	155.3
813.811	331.43
813.989	167.59
814.168	249.51
814.347	206.5
814.526	169.64
814.704	278.18
814.883	306.85
815.062	190.12
815.24	200.36
815.419	153.26
815.598	138.92
815.776	167.59
815.955	245.41
816.133	167.59
816.312	239.27
816.49	231.08
816.669	138.92
816.847	192.17
817.026	136.87
817.204	171.69
817.383	284.33
817.561	167.59
817.74	204.46
817.918	167.59
818.097	138.92
818.275	194.22
818.453	235.18
818.632	216.74
818.81	204.46
818.988	128.68
819.167	159.4
819.345	188.07
819.523	155.3
819.701	212.65
819.879	267.94
820.058	177.83
820.236	157.35
820.414	140.97
820.592	274.09
820.77	218.79
820.948	130.73
821.127	194.22
821.305	206.5
821.483	87.72
821.661	216.74
821.839	212.65
822.017	149.16
822.195	171.69
822.373	163.5
822.551	122.54
822.729	276.13
822.907	188.07
823.085	226.98
823.262	110.25
823.44	128.68
823.618	93.87
823.796	216.74
823.974	91.82
824.152	87.72
824.329	114.34
824.507	149.16
824.685	89.77
824.863	261.8
825.04	161.45
825.218	212.65
825.396	143.02
825.574	171.69
825.751	165.54
825.929	188.07
826.107	97.96
826.284	85.67
826.462	173.74
826.639	52.91
826.817	79.53
826.994	106.15
827.172	167.59
827.349	224.94
827.527	104.11
827.704	179.88
827.882	87.72
828.059	102.06
828.237	91.82
828.414	106.15
828.591	46.76
828.769	186.02
828.946	171.69
829.124	214.7
829.301	155.3
829.478	126.63
829.655	40.62
829.833	120.49
830.01	97.96
830.187	155.3
830.364	118.44
830.542	112.3
830.719	151.21
830.896	171.69
831.073	214.7
831.25	120.49
831.427	67.24
831.604	136.87
831.782	143.02
831.959	149.16
832.136	81.58
832.313	218.79
832.49	97.96
832.667	95.91
832.844	140.97
833.021	112.3
833.198	75.43
833.374	100.01
833.551	159.4
833.728	67.24
833.905	112.3
834.082	110.25
834.259	87.72
834.436	128.68
834.612	77.48
834.789	122.54
834.966	208.55
835.143	108.2
835.319	11.95
835.496	188.07
835.673	81.58
835.85	104.11
836.026	120.49
836.203	79.53
836.38	147.11
836.556	104.11
836.733	42.67
836.909	186.02
837.086	40.62
837.262	100.01
837.439	116.39
837.616	108.2
837.792	147.11
837.968	61.1
838.145	-33.11
838.321	124.58
838.498	138.92
838.674	104.11
838.851	114.34
839.027	93.87
839.203	102.06
839.38	46.76
839.556	48.81
839.732	73.39
839.909	67.24
840.085	32.43
840.261	100.01
840.437	87.72
840.614	1.71
840.79	81.58
840.966	116.39
841.142	102.06
841.318	44.71
841.494	61.1
841.671	61.1
841.847	102.06
842.023	28.33
842.199	85.67
842.375	112.3
842.551	38.57
842.727	20.14
842.903	226.98
843.079	42.67
843.255	114.34
843.431	81.58
843.607	79.53
843.783	65.19
843.959	97.96
844.134	16.04
844.31	63.15
844.486	87.72
844.662	-45.4
844.838	48.81
845.013	140.97
845.189	77.48
845.365	116.39
845.541	106.15
845.716	75.43
845.892	128.68
846.068	63.15
846.244	22.19
846.419	71.34
846.595	54.95
846.77	67.24
846.946	122.54
847.122	5.8
847.297	69.29
847.473	116.39
847.648	-14.68
847.824	79.53
847.999	-10.58
848.175	32.43
848.35	85.67
848.526	138.92
848.701	67.24
848.876	30.38
849.052	67.24
849.227	59.05
849.403	57
849.578	97.96
849.753	63.15
849.929	18.09
850.104	-12.63
850.279	18.09
850.454	28.33
850.63	46.76
850.805	61.1
850.98	11.95
851.155	36.52
851.33	36.52
851.505	9.9
851.681	130.73
851.856	42.67
852.031	40.62
852.206	85.67
852.381	13.99
852.556	93.87
852.731	48.81
852.906	134.82
853.081	22.19
853.256	155.3
853.431	44.71
853.606	-35.16
853.781	-24.92
853.956	-22.87
854.131	120.49
854.305	20.14
854.48	63.15
854.655	24.23
854.83	11.95
855.005	11.95
855.18	59.05
855.354	36.52
855.529	40.62
855.704	-47.44
855.879	18.09
856.053	32.43
856.228	110.25
856.403	5.8
856.577	134.82
856.752	-14.68
856.926	118.44
857.101	69.29
857.276	-4.44
857.45	112.3
857.625	-26.96
857.799	59.05
857.974	-14.68
858.148	-43.35
858.323	59.05
858.497	9.9
858.672	7.85
858.846	40.62
859.02	30.38
859.195	-4.44
859.369	46.76
859.543	57
859.718	-26.96
859.892	91.82
860.066	-22.87
860.241	59.05
860.415	16.04
860.589	32.43
860.763	71.34
860.938	-0.34
861.112	38.57
861.286	-41.3
861.46	59.05
861.634	-12.63
861.808	71.34
861.982	-55.64
862.157	3.75
862.331	-12.63
862.505	-51.54
862.679	-35.16
862.853	3.75
863.027	-26.96
863.201	124.58
863.375	-0.34
863.549	46.76
863.722	-10.58
863.896	54.95
864.07	30.38
864.244	18.09
864.418	57
864.592	13.99
864.766	3.75
864.939	-12.63
865.113	-26.96
865.287	75.43
865.461	-4.44
865.634	28.33
865.808	-14.68
865.982	-65.88
866.156	-24.92
866.329	-16.73
866.503	-8.53
866.676	48.81
866.85	30.38
867.024	54.95
867.197	-6.49
867.371	46.76
867.544	75.43
867.718	-33.11
867.891	1.71
868.065	28.33
868.238	93.87
868.412	102.06
868.585	-98.64
868.759	42.67
868.932	28.33
869.105	18.09
869.279	57
869.452	75.43
869.625	69.29
869.799	32.43
869.972	-16.73
870.145	40.62
870.319	11.95
870.492	-14.68
870.665	-39.25
870.838	-6.49
871.011	-39.25
871.185	52.91
871.358	-29.01
871.531	7.85
871.704	24.23
871.877	13.99
872.05	-4.44
872.223	-33.11
872.396	108.2
872.569	54.95
872.742	-35.16
872.915	124.58
873.088	13.99
873.261	-10.58
873.434	36.52
873.607	-12.63
873.78	73.39
873.953	-55.64
874.126	20.14
874.299	-20.82
874.471	16.04
874.644	-43.35
874.817	81.58
874.99	153.26
875.163	-0.34
875.335	28.33
875.508	36.52
875.681	93.87
875.853	-6.49
876.026	-16.73
876.199	65.19
876.371	106.15
876.544	-18.77
876.717	54.95
876.889	48.81
877.062	32.43
877.234	-10.58
877.407	28.33
877.579	32.43
877.752	-22.87
877.924	69.29
878.097	13.99
878.269	-14.68
878.442	26.28
878.614	50.86
878.786	30.38
878.959	36.52
879.131	81.58
879.303	-53.59
879.476	44.71
879.648	-0.34
879.82	40.62
879.993	40.62
880.165	-22.87
880.337	-4.44
880.509	102.06
880.681	-35.16
880.854	-24.92
881.026	85.67
881.198	120.49
881.37	44.71
881.542	-0.34
881.714	24.23
881.886	-16.73
882.058	65.19
882.23	36.52
882.402	69.29
882.574	95.91
882.746	48.81
882.918	46.76
883.09	97.96
883.262	-6.49
883.434	-12.63
883.606	-16.73
883.778	-49.49
883.95	24.23
884.122	-20.82
884.293	54.95
884.465	20.14
884.637	54.95
884.809	-24.92
884.98	13.99
885.152	77.48
885.324	73.39
885.496	-2.39
885.667	-37.2
885.839	-31.06
886.011	71.34
886.182	30.38
886.354	7.85
886.525	40.62
886.697	95.91
886.869	-16.73
887.04	28.33
887.212	102.06
887.383	32.43
887.555	30.38
887.726	9.9
887.897	-53.59
888.069	-8.53
888.24	100.01
888.412	32.43
888.583	-39.25
888.754	-12.63
888.926	-51.54
889.097	-69.97
889.268	-51.54
889.44	9.9
889.611	-4.44
889.782	26.28
889.953	40.62
890.125	34.47
890.296	-69.97
890.467	48.81
890.638	13.99
890.809	24.23
890.98	-16.73
891.151	61.1
891.323	-31.06
891.494	16.04
891.665	63.15
891.836	32.43
892.007	1.71
892.178	59.05
892.349	24.23
892.52	-67.92
892.691	-14.68
892.862	-33.11
893.032	-123.22
893.203	-16.73
893.374	36.52
893.545	11.95
893.716	-14.68
893.887	52.91
894.057	-8.53
894.228	52.91
894.399	-24.92
894.57	63.15
894.74	-20.82
894.911	26.28
895.082	-45.4
895.253	11.95
895.423	24.23
895.594	95.91
895.764	42.67
895.935	18.09
896.106	-18.77
896.276	-18.77
896.447	57
896.617	9.9
896.788	-102.74
896.958	5.8
897.129	-29.01
897.299	-63.83
897.47	57
897.64	-22.87
897.81	-14.68
897.981	7.85
898.151	-190.8
898.322	75.43
898.492	-0.34
898.662	-49.49
898.832	-8.53
899.003	54.95
899.173	87.72
899.343	-16.73
899.513	7.85
