Data from USB4F104151__89__12-13-04-250.txt Node

Date: Fri Mar 14 12:13:04 EDT 2025
User: louis
Spectrometer: USB4F10415
Trigger mode: 4
Integration Time (sec): 5.000000E-2
Scans to average: 1
Electric dark correction enabled: true
Nonlinearity correction enabled: false
Boxcar width: 0
XAxis mode: Wavelengths
Number of Pixels in Spectrum: 3648
>>>>>Begin Spectral Data<<<<<
178.204	-167.76
178.424	-167.76
178.644	-167.76
178.864	-311.12
179.084	-243.54
179.304	16.55
179.524	-79.7
179.744	-42.84
179.964	63.66
180.184	8.36
180.404	39.08
180.624	-36.69
180.844	67.75
181.064	-5.97
181.283	-38.74
181.503	-18.26
181.723	26.79
181.943	-71.51
182.163	90.28
182.383	43.18
182.602	71.85
182.822	67.75
183.042	30.89
183.262	4.27
183.482	-73.56
183.701	-59.22
183.921	26.79
184.141	-75.6
184.361	4.27
184.58	57.51
184.8	14.51
185.02	30.89
185.239	49.32
185.459	4.27
185.679	-57.17
185.898	-48.98
186.118	88.23
186.338	37.03
186.557	61.61
186.777	-22.36
186.997	45.23
187.216	-32.6
187.436	94.38
187.655	49.32
187.875	166.06
188.095	-20.31
188.314	129.19
188.534	88.23
188.753	26.79
188.973	4.27
189.192	20.65
189.412	0.17
189.631	16.55
189.851	-3.93
190.07	16.55
190.29	-40.79
190.509	-22.36
190.729	12.46
190.948	114.86
191.168	155.82
191.387	55.47
191.607	14.51
191.826	51.37
192.045	18.6
192.265	12.46
192.484	51.37
192.704	53.42
192.923	26.79
193.142	172.2
193.362	94.38
193.581	161.96
193.8	20.65
194.02	55.47
194.239	-32.6
194.458	61.61
194.678	2.22
194.897	41.13
195.116	-36.69
195.335	37.03
195.555	59.56
195.774	61.61
195.993	37.03
196.212	12.46
196.432	39.08
196.651	-8.02
196.87	26.79
197.089	145.58
197.308	108.71
197.528	10.41
197.747	18.6
197.966	61.61
198.185	92.33
198.404	-26.45
198.623	39.08
198.842	16.55
199.062	-24.4
199.281	4.27
199.5	-38.74
199.719	32.94
199.938	51.37
200.157	96.43
200.376	88.23
200.595	30.89
200.814	53.42
201.033	-48.98
201.252	71.85
201.471	0.17
201.69	43.18
201.909	2.22
202.128	61.61
202.347	108.71
202.566	10.41
202.785	24.75
203.004	0.17
203.223	131.24
203.442	4.27
203.661	53.42
203.879	47.27
204.098	118.95
204.317	8.36
204.536	43.18
204.755	26.79
204.974	43.18
205.193	94.38
205.411	57.51
205.63	24.75
205.849	-57.17
206.068	24.75
206.287	86.19
206.505	2.22
206.724	-46.93
206.943	-12.12
207.162	4.27
207.381	45.23
207.599	-34.64
207.818	47.27
208.037	82.09
208.255	-34.64
208.474	65.71
208.693	-1.88
208.911	41.13
209.13	-14.17
209.349	24.75
209.567	67.75
209.786	16.55
210.005	43.18
210.223	-12.12
210.442	18.6
210.661	-10.07
210.879	18.6
211.098	-34.64
211.316	8.36
211.535	80.04
211.753	-8.02
211.972	22.7
212.191	-36.69
212.409	-18.26
212.628	26.79
212.846	18.6
213.065	-28.5
213.283	98.47
213.502	-51.03
213.72	106.67
213.938	2.22
214.157	32.94
214.375	127.14
214.594	-8.02
214.812	61.61
215.031	14.51
215.249	-12.12
215.467	-36.69
215.686	-36.69
215.904	80.04
216.122	-5.97
216.341	123.05
216.559	32.94
216.778	20.65
216.996	96.43
217.214	32.94
217.432	26.79
217.651	-30.55
217.869	-20.31
218.087	-20.31
218.306	8.36
218.524	-14.17
218.742	-24.4
218.96	-51.03
219.179	-1.88
219.397	8.36
219.615	121
219.833	26.79
220.051	14.51
220.27	39.08
220.488	161.96
220.706	45.23
220.924	-63.32
221.142	82.09
221.36	10.41
221.578	24.75
221.796	84.14
222.015	-28.5
222.233	-14.17
222.451	75.95
222.669	-71.51
222.887	65.71
223.105	14.51
223.323	53.42
223.541	-57.17
223.759	43.18
223.977	26.79
224.195	131.24
224.413	37.03
224.631	77.99
224.849	-22.36
225.067	157.86
225.285	-30.55
225.503	-12.12
225.721	2.22
225.939	37.03
226.157	59.56
226.375	112.81
226.592	-53.08
226.81	-16.21
227.028	28.84
227.246	37.03
227.464	63.66
227.682	65.71
227.9	108.71
228.117	-26.45
228.335	30.89
228.553	4.27
228.771	51.37
228.989	43.18
229.206	8.36
229.424	8.36
229.642	-8.02
229.86	-3.93
230.077	96.43
230.295	26.79
230.513	-24.4
230.731	67.75
230.948	118.95
231.166	32.94
231.384	20.65
231.601	-40.79
231.819	114.86
232.037	-24.4
232.254	30.89
232.472	28.84
232.689	24.75
232.907	71.85
233.125	-51.03
233.342	-3.93
233.56	6.31
233.777	39.08
233.995	-5.97
234.213	32.94
234.43	34.99
234.648	53.42
234.865	-26.45
235.083	96.43
235.3	57.51
235.518	-14.17
235.735	110.76
235.953	77.99
236.17	-20.31
236.388	0.17
236.605	26.79
236.822	133.29
237.04	71.85
237.257	16.55
237.475	-22.36
237.692	98.47
237.909	86.19
238.127	-36.69
238.344	30.89
238.562	86.19
238.779	-24.4
238.996	12.46
239.214	6.31
239.431	80.04
239.648	18.6
239.865	53.42
240.083	104.62
240.3	22.7
240.517	-42.84
240.735	82.09
240.952	114.86
241.169	69.8
241.386	61.61
241.603	-1.88
241.821	-57.17
242.038	39.08
242.255	82.09
242.472	8.36
242.689	63.66
242.907	65.71
243.124	45.23
243.341	26.79
243.558	28.84
243.775	-8.02
243.992	45.23
244.209	30.89
244.426	84.14
244.643	32.94
244.86	-10.07
245.078	82.09
245.295	94.38
245.512	108.71
245.729	-34.64
245.946	-16.21
246.163	4.27
246.38	43.18
246.597	-44.88
246.814	49.32
247.031	-34.64
247.248	32.94
247.464	22.7
247.681	2.22
247.898	63.66
248.115	16.55
248.332	73.9
248.549	73.9
248.766	98.47
248.983	39.08
249.2	28.84
249.417	65.71
249.633	-10.07
249.85	32.94
250.067	69.8
250.284	41.13
250.501	-18.26
250.717	18.6
250.934	-5.97
251.151	-63.32
251.368	14.51
251.585	32.94
251.801	86.19
252.018	22.7
252.235	121
252.451	32.94
252.668	-16.21
252.885	96.43
253.102	161.96
253.318	12.46
253.535	26.79
253.752	-5.97
253.968	-1.88
254.185	10.41
254.401	80.04
254.618	55.47
254.835	28.84
255.051	59.56
255.268	0.17
255.484	88.23
255.701	45.23
255.917	123.05
256.134	-75.6
256.351	32.94
256.567	-36.69
256.784	59.56
257	-36.69
257.217	77.99
257.433	51.37
257.65	24.75
257.866	75.95
258.082	-8.02
258.299	-30.55
258.515	22.7
258.732	4.27
258.948	-26.45
259.165	-40.79
259.381	20.65
259.597	-1.88
259.814	51.37
260.03	22.7
260.246	32.94
260.463	123.05
260.679	145.58
260.895	16.55
261.112	0.17
261.328	80.04
261.544	-28.5
261.761	114.86
261.977	47.27
262.193	-100.18
262.409	75.95
262.626	47.27
262.842	82.09
263.058	-28.5
263.274	34.99
263.49	-24.4
263.707	67.75
263.923	-14.17
264.139	-12.12
264.355	49.32
264.571	108.71
264.787	20.65
265.004	67.75
265.22	69.8
265.436	28.84
265.652	-104.28
265.868	53.42
266.084	-20.31
266.3	45.23
266.516	-14.17
266.732	-42.84
266.948	127.14
267.164	-28.5
267.38	37.03
267.596	121
267.812	92.33
268.028	59.56
268.244	80.04
268.46	-61.27
268.676	24.75
268.892	14.51
269.108	-14.17
269.324	-61.27
269.54	-16.21
269.756	82.09
269.972	-94.04
270.188	-20.31
270.403	28.84
270.619	49.32
270.835	6.31
271.051	34.99
271.267	-10.07
271.483	20.65
271.698	75.95
271.914	-28.5
272.13	43.18
272.346	-5.97
272.562	53.42
272.777	67.75
272.993	82.09
273.209	-44.88
273.425	39.08
273.64	43.18
273.856	80.04
274.072	-12.12
274.287	-55.12
274.503	96.43
274.719	26.79
274.934	-24.4
275.15	-98.13
275.366	-10.07
275.581	-63.32
275.797	4.27
276.012	34.99
276.228	-28.5
276.444	47.27
276.659	114.86
276.875	24.75
277.09	30.89
277.306	24.75
277.521	67.75
277.737	65.71
277.952	-14.17
278.168	51.37
278.383	106.67
278.599	39.08
278.814	98.47
279.03	20.65
279.245	55.47
279.461	2.22
279.676	71.85
279.892	-36.69
280.107	-8.02
280.322	10.41
280.538	4.27
280.753	-5.97
280.969	-1.88
281.184	59.56
281.399	106.67
281.615	57.51
281.83	37.03
282.045	-22.36
282.26	-3.93
282.476	77.99
282.691	30.89
282.906	59.56
283.122	84.14
283.337	71.85
283.552	59.56
283.767	12.46
283.983	69.8
284.198	-71.51
284.413	22.7
284.628	-112.47
284.843	86.19
285.058	92.33
285.274	34.99
285.489	-14.17
285.704	94.38
285.919	61.61
286.134	-24.4
286.349	41.13
286.564	53.42
286.779	114.86
286.995	43.18
287.21	4.27
287.425	188.58
287.64	32.94
287.855	-75.6
288.07	30.89
288.285	106.67
288.5	-20.31
288.715	41.13
288.93	43.18
289.145	10.41
289.36	28.84
289.575	51.37
289.79	92.33
290.004	41.13
290.219	112.81
290.434	39.08
290.649	-20.31
290.864	41.13
291.079	37.03
291.294	-1.88
291.509	-34.64
291.724	69.8
291.938	-48.98
292.153	57.51
292.368	0.17
292.583	51.37
292.798	34.99
293.012	88.23
293.227	34.99
293.442	0.17
293.657	28.84
293.871	32.94
294.086	59.56
294.301	139.43
294.516	82.09
294.73	45.23
294.945	-3.93
295.16	45.23
295.374	145.58
295.589	143.53
295.804	22.7
296.018	12.46
296.233	63.66
296.447	75.95
296.662	-3.93
296.877	61.61
297.091	73.9
297.306	-18.26
297.52	129.19
297.735	39.08
297.949	41.13
298.164	30.89
298.378	8.36
298.593	-65.36
298.807	0.17
299.022	67.75
299.236	112.81
299.451	4.27
299.665	-44.88
299.88	47.27
300.094	65.71
300.309	77.99
300.523	41.13
300.737	49.32
300.952	77.99
301.166	43.18
301.381	-14.17
301.595	-20.31
301.809	82.09
302.024	-26.45
302.238	8.36
302.452	92.33
302.667	37.03
302.881	196.78
303.095	133.29
303.309	-1.88
303.524	43.18
303.738	61.61
303.952	-20.31
304.166	14.51
304.381	-12.12
304.595	32.94
304.809	-36.69
305.023	47.27
305.237	-18.26
305.452	-18.26
305.666	45.23
305.88	4.27
306.094	37.03
306.308	143.53
306.522	112.81
306.736	-40.79
306.95	73.9
307.164	-24.4
307.379	-1.88
307.593	63.66
307.807	32.94
308.021	2.22
308.235	28.84
308.449	-57.17
308.663	30.89
308.877	106.67
309.091	26.79
309.305	47.27
309.519	-75.6
309.733	65.71
309.947	-12.12
310.161	104.62
310.374	88.23
310.588	34.99
310.802	-5.97
311.016	-57.17
311.23	51.37
311.444	20.65
311.658	26.79
311.872	118.95
312.085	100.52
312.299	102.57
312.513	49.32
312.727	102.57
312.941	-40.79
313.154	61.61
313.368	-20.31
313.582	55.47
313.796	75.95
314.009	80.04
314.223	98.47
314.437	34.99
314.651	-1.88
314.864	20.65
315.078	6.31
315.292	-26.45
315.505	-16.21
315.719	-14.17
315.933	63.66
316.146	-3.93
316.36	14.51
316.573	53.42
316.787	88.23
317.001	-24.4
317.214	6.31
317.428	-5.97
317.641	-3.93
317.855	2.22
318.068	24.75
318.282	55.47
318.495	174.25
318.709	-3.93
318.922	39.08
319.136	75.95
319.349	4.27
319.563	-3.93
319.776	4.27
319.99	-48.98
320.203	84.14
320.417	12.46
320.63	129.19
320.843	86.19
321.057	37.03
321.27	-48.98
321.483	22.7
321.697	-5.97
321.91	49.32
322.124	82.09
322.337	77.99
322.55	-18.26
322.763	8.36
322.977	20.65
323.19	-51.03
323.403	57.51
323.617	92.33
323.83	55.47
324.043	32.94
324.256	-24.4
324.469	-3.93
324.683	121
324.896	-34.64
325.109	100.52
325.322	-32.6
325.535	102.57
325.748	41.13
325.962	24.75
326.175	-10.07
326.388	20.65
326.601	65.71
326.814	-12.12
327.027	69.8
327.24	53.42
327.453	49.32
327.666	77.99
327.879	67.75
328.092	110.76
328.305	41.13
328.518	39.08
328.731	22.7
328.944	37.03
329.157	20.65
329.37	-34.64
329.583	110.76
329.796	106.67
330.009	-57.17
330.222	92.33
330.435	55.47
330.648	84.14
330.861	22.7
331.073	12.46
331.286	110.76
331.499	-46.93
331.712	-81.75
331.925	39.08
332.138	43.18
332.35	18.6
332.563	2.22
332.776	80.04
332.989	0.17
333.202	-20.31
333.414	-14.17
333.627	116.9
333.84	-10.07
334.053	69.8
334.265	34.99
334.478	59.56
334.691	53.42
334.903	41.13
335.116	-32.6
335.329	43.18
335.541	59.56
335.754	24.75
335.966	73.9
336.179	20.65
336.392	28.84
336.604	43.18
336.817	34.99
337.029	30.89
337.242	-24.4
337.454	-20.31
337.667	37.03
337.88	8.36
338.092	51.37
338.305	59.56
338.517	28.84
338.729	133.29
338.942	92.33
339.154	14.51
339.367	4.27
339.579	43.18
339.792	-73.56
340.004	67.75
340.217	2.22
340.429	92.33
340.641	-28.5
340.854	-1.88
341.066	-32.6
341.278	30.89
341.491	57.51
341.703	41.13
341.915	41.13
342.128	45.23
342.34	80.04
342.552	-3.93
342.764	123.05
342.977	-24.4
343.189	65.71
343.401	71.85
343.613	-22.36
343.826	-18.26
344.038	-1.88
344.25	61.61
344.462	-63.32
344.674	80.04
344.886	37.03
345.099	18.6
345.311	53.42
345.523	-1.88
345.735	-55.12
345.947	26.79
346.159	90.28
346.371	88.23
346.583	57.51
346.795	110.76
347.007	22.7
347.219	59.56
347.431	55.47
347.643	8.36
347.855	16.55
348.067	104.62
348.279	61.61
348.491	28.84
348.703	63.66
348.915	14.51
349.127	41.13
349.339	28.84
349.551	12.46
349.763	104.62
349.975	8.36
350.187	104.62
350.399	127.14
350.61	155.82
350.822	53.42
351.034	57.51
351.246	-59.22
351.458	100.52
351.669	43.18
351.881	18.6
352.093	100.52
352.305	28.84
352.517	100.52
352.728	88.23
352.94	75.95
353.152	12.46
353.363	26.79
353.575	22.7
353.787	112.81
353.999	57.51
354.21	100.52
354.422	14.51
354.633	34.99
354.845	-53.08
355.057	18.6
355.268	34.99
355.48	90.28
355.692	0.17
355.903	82.09
356.115	-10.07
356.326	-30.55
356.538	77.99
356.749	84.14
356.961	110.76
357.172	51.37
357.384	26.79
357.595	125.1
357.807	-18.26
358.018	32.94
358.23	41.13
358.441	104.62
358.653	2.22
358.864	16.55
359.075	135.34
359.287	63.66
359.498	-3.93
359.709	96.43
359.921	-30.55
360.132	37.03
360.344	39.08
360.555	-18.26
360.766	-1.88
360.977	71.85
361.189	57.51
361.4	-34.64
361.611	114.86
361.823	86.19
362.034	30.89
362.245	32.94
362.456	-44.88
362.667	-18.26
362.879	10.41
363.09	127.14
363.301	-1.88
363.512	51.37
363.723	-20.31
363.935	-8.02
364.146	30.89
364.357	49.32
364.568	65.71
364.779	20.65
364.99	151.72
365.201	67.75
365.412	145.58
365.623	-18.26
365.834	69.8
366.045	45.23
366.256	32.94
366.467	55.47
366.678	47.27
366.889	88.23
367.1	61.61
367.311	47.27
367.522	59.56
367.733	112.81
367.944	41.13
368.155	49.32
368.366	104.62
368.577	55.47
368.788	129.19
368.999	6.31
369.209	51.37
369.42	47.27
369.631	63.66
369.842	106.67
370.053	75.95
370.264	18.6
370.474	-53.08
370.685	55.47
370.896	90.28
371.107	49.32
371.317	73.9
371.528	80.04
371.739	69.8
371.95	26.79
372.16	24.75
372.371	-57.17
372.582	-30.55
372.792	110.76
373.003	-38.74
373.214	92.33
373.424	47.27
373.635	-44.88
373.846	71.85
374.056	-5.97
374.267	-1.88
374.477	16.55
374.688	37.03
374.898	28.84
375.109	49.32
375.319	73.9
375.53	69.8
375.74	47.27
375.951	71.85
376.161	30.89
376.372	139.43
376.582	61.61
376.793	-5.97
377.003	-46.93
377.214	2.22
377.424	125.1
377.635	-20.31
377.845	30.89
378.055	92.33
378.266	-8.02
378.476	10.41
378.686	114.86
378.897	-22.36
379.107	30.89
379.317	22.7
379.528	88.23
379.738	22.7
379.948	71.85
380.158	147.62
380.369	47.27
380.579	82.09
380.789	-53.08
380.999	61.61
381.21	106.67
381.42	161.96
381.63	22.7
381.84	45.23
382.05	143.53
382.261	90.28
382.471	55.47
382.681	-24.4
382.891	137.38
383.101	106.67
383.311	-5.97
383.521	30.89
383.731	28.84
383.941	141.48
384.151	14.51
384.361	14.51
384.571	12.46
384.781	20.65
384.991	71.85
385.201	123.05
385.411	45.23
385.621	28.84
385.831	41.13
386.041	61.61
386.251	-36.69
386.461	112.81
386.671	22.7
386.881	41.13
387.091	-8.02
387.301	65.71
387.511	4.27
387.72	75.95
387.93	135.34
388.14	-14.17
388.35	127.14
388.56	147.62
388.769	92.33
388.979	43.18
389.189	88.23
389.399	57.51
389.609	57.51
389.818	57.51
390.028	20.65
390.238	73.9
390.447	88.23
390.657	-1.88
390.867	43.18
391.076	-34.64
391.286	90.28
391.496	153.77
391.705	-18.26
391.915	172.2
392.125	110.76
392.334	96.43
392.544	123.05
392.753	84.14
392.963	47.27
393.172	41.13
393.382	-20.31
393.591	137.38
393.801	49.32
394.01	135.34
394.22	63.66
394.429	100.52
394.639	57.51
394.848	129.19
395.058	110.76
395.267	106.67
395.477	43.18
395.686	55.47
395.895	182.44
396.105	159.91
396.314	34.99
396.524	116.9
396.733	59.56
396.942	149.67
397.152	51.37
397.361	114.86
397.57	41.13
397.78	65.71
397.989	116.9
398.198	202.92
398.407	112.81
398.617	49.32
398.826	88.23
399.035	80.04
399.244	143.53
399.453	108.71
399.663	104.62
399.872	129.19
400.081	4.27
400.29	155.82
400.499	39.08
400.708	114.86
400.917	82.09
401.127	155.82
401.336	110.76
401.545	143.53
401.754	186.54
401.963	121
402.172	108.71
402.381	30.89
402.59	65.71
402.799	69.8
403.008	164.01
403.217	71.85
403.426	151.72
403.635	157.86
403.844	123.05
404.053	94.38
404.262	90.28
404.471	178.34
404.68	151.72
404.888	131.24
405.097	176.3
405.306	231.59
405.515	202.92
405.724	77.99
405.933	151.72
406.142	178.34
406.35	149.67
406.559	114.86
406.768	145.58
406.977	270.5
407.185	112.81
407.394	188.58
407.603	92.33
407.812	223.4
408.02	225.45
408.229	231.59
408.438	139.43
408.646	168.1
408.855	114.86
409.064	245.93
409.272	192.68
409.481	297.13
409.69	176.3
409.898	254.12
410.107	286.89
410.315	258.21
410.524	264.36
410.733	389.28
410.941	295.08
411.15	420
411.358	299.17
411.567	430.24
411.775	344.23
411.984	413.86
412.192	360.61
412.401	434.34
412.609	508.07
412.818	436.39
413.026	518.31
413.234	428.2
413.443	522.4
413.651	559.27
413.86	559.27
414.068	536.74
414.276	632.99
414.485	575.65
414.693	653.47
414.901	637.09
415.11	692.38
415.318	665.76
415.526	753.82
415.734	766.11
415.943	719.01
416.151	837.79
416.359	770.21
416.567	848.03
416.776	886.94
416.984	848.03
417.192	991.39
417.4	825.5
417.608	925.85
417.817	934.04
418.025	1030.3
418.233	1048.73
418.441	958.62
418.649	1097.88
418.857	1190.04
419.065	1159.32
419.273	1165.46
419.481	1251.48
419.689	1376.41
419.897	1347.73
420.105	1325.21
420.313	1532.05
420.521	1454.23
420.729	1505.43
420.937	1634.45
421.145	1679.51
421.353	1616.02
421.561	1757.33
421.769	1794.19
421.977	2048.14
422.185	1814.67
422.393	2044.04
422.601	2035.85
422.809	2109.58
423.017	2132.11
423.224	2154.63
423.432	2392.2
423.64	2357.38
423.848	2523.27
424.056	2443.4
424.263	2721.92
424.471	2621.57
424.679	2670.72
424.887	2891.9
425.094	2920.57
425.302	3010.68
425.51	3012.73
425.718	3070.08
425.925	3088.51
426.133	3281.02
426.341	3487.86
426.548	3676.27
426.756	3706.99
426.964	3719.28
427.171	3965.04
427.379	4059.24
427.586	4175.98
427.794	4122.73
428.001	4573.28
428.209	4538.47
428.417	4581.48
428.624	4829.28
428.832	4827.23
429.039	4796.51
429.247	4853.86
429.454	5240.92
429.662	5634.13
429.869	5402.71
430.076	5785.68
430.284	5488.73
430.491	5673.04
430.699	6113.36
430.906	5888.08
431.114	6301.77
431.321	6502.47
431.528	6488.14
431.736	6957.12
431.943	7270.46
432.15	6893.63
432.358	7239.74
432.565	7514.17
432.772	7417.91
432.979	7854.13
433.187	8079.41
433.394	7938.1
433.601	8640.55
433.808	8665.13
434.016	8519.72
434.223	8759.33
434.43	9629.72
434.637	9310.24
434.844	9644.06
435.052	9887.76
435.259	9959.44
435.466	10121.23
435.673	9953.3
435.88	10590.22
436.087	11055.11
436.294	11210.75
436.501	10782.73
436.708	11089.92
436.915	11694.07
437.122	11997.17
437.329	11952.12
437.537	12521.45
437.743	12658.67
437.95	12480.49
438.157	13230.05
438.364	13582.3
438.571	13373.41
438.778	13725.66
438.985	14786.51
439.192	14284.75
439.399	14403.53
439.606	14407.63
439.813	15069.12
440.02	16291.76
440.227	15974.33
440.433	15769.53
440.64	16383.92
440.847	16392.11
441.054	16660.4
441.261	17600.41
441.467	17358.75
441.674	17878.94
441.881	18419.6
442.088	18259.86
442.294	18046.87
442.501	18780.04
442.708	19249.03
442.914	19963.77
443.121	20467.57
443.328	19951.48
443.534	21634.91
443.741	20662.13
443.948	20901.74
444.154	22196.06
444.361	21782.37
444.568	22359.89
444.774	22198.1
444.981	22316.89
445.187	22918.99
445.394	24022.84
445.6	23705.41
445.807	26054.43
446.013	24872.75
446.22	25173.8
446.426	26461.97
446.633	26613.52
446.839	27315.98
447.046	26300.19
447.252	27750.15
447.459	27817.73
447.665	28014.34
447.871	28972.78
448.078	30439.13
448.284	28841.71
448.491	29578.98
448.697	30549.72
448.903	31147.73
449.11	31551.18
449.316	30719.7
449.522	31278.8
449.728	31993.54
449.935	32556.73
450.141	32134.85
450.347	33275.57
450.553	32190.14
450.76	32505.53
450.966	33713.83
451.172	33187.5
451.378	33908.39
451.584	33046.19
451.791	34254.5
451.997	34178.72
452.203	34502.3
452.409	34897.56
452.615	34653.85
452.821	33177.26
453.027	32870.07
453.233	34610.84
453.44	33265.33
453.646	33582.76
453.852	33748.65
454.058	34500.25
454.264	33425.07
454.47	33463.98
454.676	33062.58
454.882	33820.33
455.088	31524.55
455.294	31876.8
455.5	32212.67
455.705	32628.41
455.911	31160.02
456.117	30699.22
456.323	30129.89
456.529	28755.7
456.735	29904.61
456.941	29212.4
457.147	28555
457.352	27762.44
457.558	27430.66
457.764	27387.66
457.97	27111.18
458.176	26183.45
458.381	26267.42
458.587	25100.08
458.793	24848.18
458.999	23705.41
459.204	25431.85
459.41	24624.95
459.616	23062.35
459.821	23301.96
460.027	22949.71
460.233	22777.68
460.438	21395.3
460.644	21749.6
460.85	20670.32
461.055	20586.35
461.261	20508.53
461.466	18771.85
461.672	18134.93
461.878	19394.43
462.083	18302.87
462.289	17971.1
462.494	17491.87
462.7	16912.3
462.905	16482.22
463.111	17217.44
463.316	17256.36
463.522	16664.49
463.727	16840.62
463.932	16646.06
464.138	16385.97
464.343	16687.02
464.549	16263.09
464.754	16631.72
464.959	16439.22
465.165	16547.76
465.37	15554.49
465.575	15394.75
465.781	15804.35
465.986	15695.8
466.191	15628.22
466.397	15157.19
466.602	14274.51
466.807	14958.53
467.012	15044.55
467.218	14688.2
467.423	14675.91
467.628	14809.03
467.833	15226.82
468.038	14860.23
468.244	14479.31
468.449	14882.76
468.654	14546.89
468.859	14487.5
469.064	14587.85
469.269	13750.23
469.474	14047.19
469.679	13995.99
469.885	13938.65
470.09	14006.23
470.295	14022.61
470.5	13467.61
470.705	13428.7
470.91	13215.71
471.115	13062.12
471.32	13258.72
471.525	13371.36
471.73	13062.12
471.935	12808.17
472.139	12683.24
472.344	12584.94
472.549	12613.61
472.754	12474.35
472.959	12277.74
473.164	11966.45
473.369	11870.2
473.574	12382.19
473.778	11999.22
473.983	11794.42
474.188	11929.59
474.393	11261.95
474.598	11440.12
474.802	11161.6
475.007	11479.04
475.212	11098.11
475.417	10735.62
475.621	10723.34
475.826	10788.87
476.031	10889.22
476.235	10399.76
476.44	10555.4
476.645	10579.98
476.849	10283.02
477.054	10215.44
477.259	10135.57
477.463	10172.43
477.668	10078.22
477.872	10010.64
478.077	9603.1
478.282	9588.76
478.486	9543.71
478.691	9422.87
478.895	9531.42
479.1	9525.27
479.304	9515.03
479.509	9224.22
479.713	9297.95
479.918	9195.55
480.122	8878.12
480.326	9345.05
480.531	9025.57
480.735	9003.04
480.94	8894.5
481.144	9222.17
481.348	8835.11
481.553	8697.89
481.757	8527.91
481.961	8652.84
482.166	9039.9
482.37	8869.92
482.574	8900.64
482.778	8855.59
482.983	8845.35
483.187	8790.05
483.391	8704.04
483.595	8640.55
483.8	8618.02
484.004	8874.02
484.208	8849.44
484.412	8673.32
484.616	8849.44
484.821	8808.48
485.025	8572.97
485.229	8751.14
485.433	8642.6
485.637	9017.38
485.841	8732.71
486.045	8534.06
486.249	8654.89
486.453	8605.74
486.657	8730.66
486.861	8618.02
487.065	8419.37
487.269	8790.05
487.473	8613.93
487.677	8845.35
487.881	8933.41
488.085	8597.54
488.289	8769.57
488.493	8652.84
488.697	8884.26
488.901	8882.21
489.105	8796.2
489.309	8869.92
489.512	9003.04
489.716	9058.34
489.92	8837.16
490.124	8808.48
490.328	9087.01
490.531	9021.47
490.735	9080.86
490.939	8863.78
491.143	8880.16
491.346	9011.23
491.55	9259.04
491.754	9179.17
491.958	9304.09
492.161	9068.58
492.365	9232.41
492.569	9170.97
492.772	9234.46
492.976	9490.46
493.18	9310.24
493.383	9492.51
493.587	9539.61
493.79	9689.11
493.994	9422.87
494.197	9658.39
494.401	9801.75
494.605	9654.3
494.808	9697.3
495.012	9867.28
495.215	10061.84
495.419	9912.34
495.622	10041.36
495.825	10311.69
496.029	10192.91
496.232	10225.68
496.436	10342.41
496.639	10512.39
496.843	10446.86
497.046	10684.42
497.249	10850.31
497.453	11022.34
497.656	10911.75
497.859	10909.7
498.063	11100.16
498.266	11438.08
498.469	11223.04
498.673	11378.69
498.876	11644.92
499.079	11636.73
499.282	11536.38
499.485	12277.74
499.689	12132.34
499.892	12324.85
500.095	12404.72
500.298	12586.99
500.501	12335.09
500.705	12734.44
500.908	12777.45
501.111	13289.44
501.314	13109.22
501.517	13375.45
501.72	13408.22
501.923	13195.23
502.126	13731.8
502.329	14022.61
502.532	14059.48
502.735	14024.66
502.938	14213.07
503.141	14399.44
503.344	14735.31
503.547	14682.06
503.75	14825.42
503.953	15065.03
504.156	15208.39
504.359	15153.09
504.562	15562.69
504.765	15863.74
504.968	15970.23
505.17	16013.24
505.373	16326.58
505.576	16519.09
505.779	16484.27
505.982	16531.37
506.185	16998.31
506.387	17000.36
506.59	17401.76
506.793	17457.06
506.996	17301.41
507.198	17868.7
507.401	18053.02
507.604	17899.42
507.807	18347.92
508.009	18368.4
508.212	18628.49
508.415	18708.37
508.617	19163.01
508.82	18902.92
509.022	19408.77
509.225	19431.3
509.428	19416.96
509.63	19904.38
509.833	19863.42
510.035	20377.46
510.238	20152.18
510.44	20256.63
510.643	20789.1
510.845	21147.5
511.048	20805.49
511.25	20987.75
511.453	21079.91
511.655	22394.71
511.858	21784.41
512.06	22097.75
512.262	22091.61
512.465	22267.73
512.667	22517.59
512.87	22552.4
513.072	22785.87
513.274	23306.06
513.477	23387.97
513.679	23867.2
513.881	23643.97
514.084	23744.32
514.286	23719.74
514.488	24170.3
514.69	24895.28
514.893	24635.19
515.095	24917.81
515.297	24919.85
515.499	25349.93
515.701	25237.29
515.904	25872.16
516.106	25614.12
516.308	26117.92
516.51	26373.91
516.712	26326.81
516.914	26701.59
517.116	27301.64
517.318	26728.21
517.52	27184.91
517.722	27150.09
517.925	27690.76
518.127	28122.88
518.329	28102.4
518.531	27889.41
518.733	28643.06
518.935	28833.52
519.136	28657.4
519.338	29128.43
519.54	29064.94
519.742	29472.49
519.944	29540.07
520.146	29898.47
520.348	30179.04
520.55	29755.11
520.752	30324.44
520.954	30725.85
521.155	30103.26
521.357	30873.3
521.559	31082.19
521.761	31477.45
521.963	31061.71
522.164	31547.08
522.366	31375.05
522.568	31749.83
522.77	32038.59
522.971	32444.09
523.173	31895.24
523.375	32624.31
523.576	32245.44
523.778	32493.24
523.98	32775.86
524.181	32980.66
524.383	33023.67
524.584	33617.58
524.786	33326.77
524.988	32841.4
525.189	33863.33
525.391	33769.13
525.592	33879.72
525.794	34018.98
525.995	33986.21
526.197	34018.98
526.398	34164.39
526.6	33992.36
526.801	34344.61
527.003	34168.48
527.204	34696.86
527.406	34590.36
527.607	34424.48
527.808	34932.37
528.01	34395.81
528.211	34815.64
528.412	35264.14
528.614	34909.85
528.815	35124.88
529.016	35616.4
529.218	35042.96
529.419	35253.9
529.62	35190.42
529.822	35348.11
530.023	35243.66
530.224	35139.22
530.425	35407.5
530.626	35196.56
530.828	35235.47
531.029	35960.45
531.23	35380.88
531.431	35456.65
531.632	35495.57
531.833	35663.5
532.035	35464.85
532.236	35370.64
532.437	35702.41
532.638	35190.42
532.839	35573.39
533.04	35976.84
533.241	35657.35
533.442	35679.88
533.643	35503.76
533.844	35759.75
534.045	35978.89
534.246	35258
534.447	35937.93
534.648	35831.43
534.849	35837.58
535.05	35139.22
535.251	35587.72
535.451	35640.97
535.652	36173.44
535.853	35350.16
536.054	35704.46
536.255	36050.56
536.456	35243.66
536.657	36216.45
536.857	35315.34
537.058	35630.73
537.259	35626.64
537.46	35516.04
537.66	35559.05
537.861	35534.48
538.062	35616.4
538.263	35565.2
538.463	35290.77
538.664	35446.41
538.865	35982.98
539.065	35790.47
539.266	35042.96
539.466	35618.44
539.667	35104.4
539.868	35819.14
540.068	35407.5
540.269	35182.23
540.469	35847.82
540.67	35657.35
540.87	35544.72
541.071	35501.71
541.271	35643.02
541.472	35288.72
541.672	35354.26
541.873	35036.82
542.073	34903.7
542.274	35577.48
542.474	35384.97
542.675	35030.68
542.875	35690.12
543.075	35026.58
543.276	34696.86
543.476	35630.73
543.676	34963.09
543.877	35477.13
544.077	35409.55
544.277	35470.99
544.478	35233.43
544.678	35427.98
544.878	35382.93
545.078	35284.62
545.279	35376.78
545.479	35139.22
545.679	35333.78
545.879	35270.29
546.079	35589.77
546.28	35284.62
546.48	34780.82
546.68	35407.5
546.88	35417.74
547.08	35436.17
547.28	34887.32
547.48	34535.07
547.68	35118.74
547.88	34862.74
548.081	35145.36
548.281	35104.4
548.481	34836.12
548.681	35141.27
548.881	35454.61
549.081	34944.66
549.28	34715.29
549.48	35094.16
549.68	34795.16
549.88	35346.06
550.08	34686.62
550.28	34893.46
550.48	35141.27
550.68	35147.41
550.88	34662.04
551.08	34563.74
551.279	35049.11
551.479	34791.06
551.679	35036.82
551.879	34807.45
552.079	34729.62
552.278	34682.52
552.478	34856.6
552.678	34922.13
552.878	35223.19
553.077	34846.36
553.277	34891.41
553.477	35430.03
553.676	34809.5
553.876	34360.99
554.076	34610.84
554.275	34545.31
554.475	34352.8
554.674	34829.98
554.874	34643.61
555.074	34346.65
555.273	34985.62
555.473	34905.75
555.672	34700.95
555.872	34666.14
556.071	34770.58
556.271	34782.87
556.47	34557.6
556.67	34270.88
556.869	34270.88
557.068	34543.26
557.268	34528.92
557.467	34516.64
557.667	34467.48
557.866	34383.52
558.065	34510.49
558.265	34211.49
558.464	34274.98
558.663	34813.59
558.863	34074.27
559.062	34614.94
559.261	34377.37
559.461	34549.4
559.66	33797.8
559.859	34414.24
560.058	33842.85
560.258	34485.92
560.457	34004.64
560.656	34664.09
560.855	33963.68
561.054	34487.96
561.253	33961.64
561.453	34455.2
561.652	33928.87
561.851	34090.66
562.05	34064.03
562.249	33791.66
562.448	34332.32
562.647	34174.63
562.846	33957.54
563.045	34174.63
563.244	33748.65
563.443	34580.12
563.642	33527.47
563.841	33926.82
564.04	33984.16
564.239	34266.78
564.438	33601.19
564.637	33947.3
564.836	33812.13
565.035	33410.73
565.234	33771.18
565.432	33590.95
565.631	33562.28
565.83	33666.73
566.029	33394.35
566.228	33527.47
566.427	33681.06
566.625	33298.09
566.824	33205.94
567.023	33932.96
567.222	32857.78
567.42	33451.69
567.619	33181.36
567.818	33382.06
568.016	33474.22
568.215	33437.36
568.414	33496.75
568.612	33916.58
568.811	33195.7
569.01	33463.98
569.208	33046.19
569.407	33347.25
569.605	32886.45
569.804	33169.07
570.002	33394.35
570.201	33128.11
570.4	32911.03
570.598	32906.93
570.797	32796.34
570.995	33171.12
571.193	32634.55
571.392	33124.02
571.59	32614.07
571.789	32853.69
571.987	32814.77
572.186	32927.41
572.384	32542.39
572.582	32954.04
572.781	32661.18
572.979	32425.66
573.177	32470.72
573.376	32665.27
573.574	32399.04
573.772	32673.46
573.971	32224.96
574.169	32497.34
574.367	32374.46
574.565	32360.12
574.763	32370.36
574.962	32120.51
575.16	32169.66
575.358	32431.8
575.556	31780.55
575.754	32351.93
575.952	31747.78
576.151	31833.8
576.349	31739.59
576.547	31968.96
576.745	31624.9
576.943	32024.26
577.141	31682.25
577.339	31911.62
577.537	31583.94
577.735	31575.75
577.933	31602.38
578.131	31225.55
578.329	31319.76
578.527	31239.89
578.725	31323.85
578.923	31274.7
579.121	31243.98
579.319	31162.06
579.516	30990.03
579.714	31430.35
579.912	30985.94
580.11	30977.75
580.308	31006.42
580.506	31313.61
580.704	30191.33
580.901	30813.91
581.099	30910.16
581.297	30605.02
581.495	30543.58
581.692	31012.56
581.89	30121.7
582.088	30699.22
582.285	30717.65
582.483	30578.39
582.681	30865.11
582.878	30154.46
583.076	30154.46
583.274	30250.72
583.471	29826.79
583.669	30224.09
583.866	30095.07
584.064	29994.72
584.262	29628.13
584.459	30133.98
584.657	29781.73
584.854	29976.29
585.052	29497.06
585.249	29996.77
585.447	29535.98
585.644	29359.85
585.841	29740.77
586.039	29814.5
586.236	29474.54
586.434	29535.98
586.631	29220.59
586.828	29228.78
587.026	29015.79
587.223	29112.05
587.42	28954.35
587.618	29239.02
587.815	29144.81
588.012	28841.71
588.21	28825.33
588.407	29081.33
588.604	28684.02
588.801	28622.58
588.999	28690.16
589.196	28708.6
589.393	28720.88
589.59	28120.83
589.787	28561.14
589.984	28118.78
590.182	27936.51
590.379	28419.83
590.576	27703.04
590.773	28372.73
590.97	27940.61
591.167	28202.75
591.364	27891.46
591.561	28094.21
591.758	27903.74
591.955	27789.06
592.152	28071.68
592.349	27619.08
592.546	27696.9
592.743	27717.38
592.94	27438.86
593.137	27950.85
593.334	27690.76
593.531	26853.14
593.727	27309.83
593.924	27191.05
594.121	26963.73
594.318	27264.78
594.515	27049.74
594.712	27062.03
594.908	26752.79
595.105	26763.03
595.302	26744.59
595.499	27016.97
595.696	27043.6
595.892	26304.28
596.089	26720.02
596.286	26423.06
596.482	26634
596.679	26517.27
596.876	26498.84
597.072	26552.09
597.269	26185.5
597.466	26326.81
597.662	26302.23
597.859	26089.24
598.055	26169.12
598.252	25814.82
598.448	25982.75
598.645	26167.07
598.841	25714.47
599.038	26083.1
599.234	25954.08
599.431	25829.15
599.627	25460.52
599.824	25564.96
600.02	25102.12
600.217	25274.15
600.413	25208.62
600.609	25270.06
600.806	25444.13
601.002	25462.57
601.198	25085.74
601.395	25083.69
601.591	24872.75
601.787	25063.21
601.984	24946.48
602.18	25333.54
602.376	24905.52
602.572	24756.02
602.769	24891.18
602.965	24459.06
603.161	24727.35
603.357	24598.32
603.553	24364.85
603.75	24448.82
603.946	24336.18
604.142	24721.2
604.338	24014.65
604.534	24317.75
604.73	23926.59
604.926	24225.59
605.122	24168.25
605.318	23777.09
605.514	23846.72
605.71	23822.14
605.906	24221.5
606.102	24225.59
606.298	24223.55
606.494	23875.39
606.69	24115
606.886	23912.25
607.082	23523.14
607.278	23596.87
607.474	23301.96
607.67	23650.11
607.866	23285.58
608.062	23691.07
608.257	23312.2
608.453	23213.9
608.649	23439.17
608.845	23349.06
609.041	23574.34
609.236	23054.15
609.432	23328.58
609.628	23285.58
609.824	23224.14
610.019	23005
610.215	22910.8
610.411	23410.5
610.606	22908.75
610.802	23185.22
610.998	22953.8
611.193	23025.48
611.389	22558.55
611.584	22835.02
611.78	22947.66
611.976	22937.42
612.171	22802.25
612.367	22597.46
612.562	22470.48
612.758	22624.08
612.953	22511.44
613.149	22722.38
613.344	22587.22
613.539	22865.74
613.735	22531.92
613.93	22476.63
614.126	22239.06
614.321	22419.28
614.517	22255.45
614.712	22570.83
614.907	22202.2
615.103	22650.71
615.298	22120.28
615.493	22171.48
615.688	21956.44
615.884	22351.7
616.079	21872.48
616.274	22320.98
616.47	22241.11
616.665	21778.27
616.86	22017.88
617.055	21825.37
617.25	21749.6
617.445	22138.71
617.641	21747.55
617.836	21743.45
618.031	21393.25
618.226	21731.17
618.421	21528.42
618.616	21677.92
618.811	21106.54
619.006	21649.25
619.201	21032.81
619.396	21348.2
619.591	21045.1
619.786	20950.89
619.981	20696.94
620.176	21122.92
620.371	20733.81
620.566	20856.68
620.761	20735.85
620.956	20602.74
621.151	20365.17
621.346	20291.45
621.541	20164.47
621.735	20377.46
621.93	19726.21
622.125	20223.86
622.32	19945.34
622.515	20057.98
622.709	19855.23
622.904	19820.41
623.099	19705.73
623.294	19517.31
623.488	19404.67
623.683	19709.82
623.878	18958.22
624.072	19259.27
624.267	19169.16
624.462	19031.94
624.656	18661.26
624.851	18706.32
625.046	18706.32
625.24	18548.62
625.435	18274.2
625.629	18487.18
625.824	17944.47
626.018	18268.05
626.213	17770.4
626.407	18098.07
626.602	17604.51
626.796	17983.38
626.991	17940.38
627.185	17811.35
627.38	17772.44
627.574	17592.22
627.768	17624.99
627.963	17362.85
628.157	17160.1
628.352	17000.36
628.546	16971.69
628.74	17194.92
628.935	16742.32
629.129	17022.89
629.323	16703.4
629.517	16811.95
629.712	16574.38
629.906	16527.28
630.1	16207.8
630.294	16316.34
630.489	16484.27
630.683	16349.11
630.877	16015.29
631.071	16107.44
631.265	16207.8
631.459	15914.94
631.653	15708.09
631.848	15857.59
632.042	15634.36
632.236	15845.3
632.43	15747
632.624	15634.36
632.818	15503.29
633.012	15179.72
633.206	15351.74
633.4	15235.01
633.594	15056.84
633.788	15112.13
633.982	15089.6
634.176	14882.76
634.369	14712.78
634.563	14720.97
634.757	14399.44
634.951	14768.07
635.145	14786.51
635.339	14614.48
635.533	14297.04
635.726	14446.54
635.92	14305.23
636.114	14143.44
636.308	14086.1
636.501	13991.89
636.695	13955.03
636.889	13764.57
637.083	13656.03
637.276	13711.32
637.47	13739.99
637.664	13756.38
637.857	13613.02
638.051	13696.99
638.244	13275.1
638.438	13285.34
638.632	13160.42
638.825	13238.24
639.019	13178.85
639.212	12998.63
639.406	12896.23
639.599	12972
639.793	12902.37
639.986	12812.26
640.18	12703.72
640.373	12607.47
640.567	12490.73
640.76	12460.01
640.954	12435.44
641.147	12462.06
641.34	12349.42
641.534	12156.91
641.727	12009.46
641.92	12124.15
642.114	12029.94
642.307	11968.5
642.5	11964.4
642.694	11853.81
642.887	11771.9
643.08	11839.48
643.273	11739.13
643.467	11667.45
643.66	11362.3
643.853	11218.94
644.046	11137.02
644.239	11294.72
644.432	11278.33
644.626	11051.01
644.819	11100.16
645.012	11153.41
645.205	11096.07
645.398	10975.24
645.591	10827.78
645.784	10885.12
645.977	10762.25
646.17	10709
646.363	10616.84
646.556	10584.07
646.749	10526.73
646.942	10508.3
647.135	10561.55
647.328	10551.31
647.521	10270.73
647.714	10276.88
647.907	10211.34
648.099	10287.12
648.292	10428.43
648.485	10137.62
648.678	9904.15
648.871	10113.04
649.064	9949.2
649.256	9953.3
649.449	9797.65
649.642	9920.53
649.835	9797.65
650.027	9707.54
650.22	9547.8
650.413	9519.13
650.605	9685.01
650.798	9400.35
650.991	9414.68
651.183	9422.87
651.376	9320.48
651.568	9222.17
651.761	9218.08
651.954	9234.46
652.146	9205.79
652.339	9056.29
652.531	9201.69
652.724	9000.99
652.916	8841.25
653.109	9111.58
653.301	8871.97
653.494	9037.86
653.686	8767.52
653.879	9017.38
654.071	8554.54
654.263	8595.5
654.456	8464.43
654.648	8654.89
654.84	8306.73
655.033	8532.01
655.225	8552.49
655.417	8441.9
655.61	8417.32
655.802	8335.4
655.994	8282.16
656.186	8413.23
656.379	8233.01
656.571	8140.85
656.763	8200.24
656.955	8073.26
657.148	8255.53
657.34	8142.89
657.532	7917.62
657.724	7821.36
657.916	8050.74
658.108	8020.02
658.3	7835.7
658.492	7899.19
658.684	7788.6
658.876	7669.81
659.068	7626.81
659.26	7604.28
659.452	7456.82
659.644	7622.71
659.836	7483.45
660.028	7569.46
660.22	7352.38
660.412	7331.9
660.604	7477.3
660.796	7456.82
660.988	7278.65
661.18	7239.74
661.372	7196.73
661.563	7186.49
661.755	7082.05
661.947	7127.1
662.139	7137.34
662.331	6965.31
662.522	6948.93
662.714	6815.81
662.906	6770.76
663.097	6875.2
663.289	7002.18
663.481	6705.22
663.673	6756.42
663.864	6828.1
664.056	6666.31
664.247	6623.3
664.439	6623.3
664.631	6629.45
664.822	6764.61
665.014	6647.88
665.205	6570.05
665.397	6555.72
665.588	6477.9
665.78	6365.26
665.971	6363.21
666.163	6436.94
666.354	6461.51
666.546	6498.38
666.737	6277.19
666.929	6299.72
667.12	6205.52
667.311	6289.48
667.503	6250.57
667.694	6203.47
667.885	6107.21
668.077	6228.04
668.268	6205.52
668.459	6049.87
668.651	6135.89
668.842	6101.07
669.033	6004.82
669.224	5959.76
669.416	6127.69
669.607	6082.64
669.798	6135.89
669.989	5949.52
670.18	5951.57
670.371	5943.38
670.563	5892.18
670.754	5818.45
670.945	6008.91
671.136	5851.22
671.327	5816.4
671.518	5838.93
671.709	5787.73
671.9	5724.24
672.091	5718.1
672.282	5656.66
672.473	5699.67
672.664	5732.44
672.855	5572.69
673.046	5705.81
673.237	5746.77
673.428	5621.84
673.619	5642.32
673.809	5519.45
674	5568.6
674.191	5591.13
674.382	5425.24
674.573	5582.93
674.764	5431.38
674.954	5449.82
675.145	5320.79
675.336	5501.01
675.527	5472.34
675.717	5523.54
675.908	5230.68
676.099	5412.95
676.289	5419.1
676.48	5402.71
676.671	5374.04
676.861	5234.78
677.052	5228.63
677.243	5353.56
677.433	5310.55
677.624	5492.82
677.814	5386.33
678.005	5365.85
678.195	5419.1
678.386	5140.57
678.576	5245.02
678.767	5191.77
678.957	5269.59
679.148	5304.41
679.338	5273.69
679.529	5277.79
679.719	5165.15
679.909	5273.69
680.1	5197.92
680.29	5224.54
680.481	5103.71
680.671	5183.58
680.861	5396.57
681.052	5150.81
681.242	5224.54
681.432	5208.16
681.622	5187.68
681.813	5122.14
682.003	5144.67
682.193	5097.56
682.383	5154.91
682.573	4976.73
682.764	5156.96
682.954	4968.54
683.144	5156.96
683.334	5029.98
683.524	5068.89
683.714	5054.56
683.904	4995.17
684.094	5134.43
684.284	5056.61
684.474	5120.09
684.664	5132.38
684.854	4974.69
685.044	5238.87
685.234	4976.73
685.424	4894.82
685.614	4915.3
685.804	5208.16
685.994	4946.02
686.184	4888.67
686.374	5042.27
686.564	4884.58
686.753	5066.85
686.943	4743.27
687.133	4819.04
687.323	4866.14
687.513	4829.28
687.702	4669.54
687.892	4763.75
688.082	4753.51
688.272	4786.27
688.461	4606.05
688.651	4880.48
688.841	4675.68
689.03	4728.93
689.22	4626.53
689.41	4649.06
689.599	4528.23
689.789	4675.68
689.979	4583.52
690.168	4575.33
690.358	4601.96
690.547	4493.41
690.737	4569.19
690.926	4563.05
691.116	4354.15
691.305	4520.04
691.495	4378.73
691.684	4335.72
691.874	4403.3
692.063	4429.93
692.252	4391.02
692.442	4393.06
692.631	4161.64
692.82	4411.5
693.01	4268.14
693.199	4118.64
693.388	4212.84
693.578	4354.15
693.767	4350.06
693.956	4345.96
694.146	4071.53
694.335	4135.02
694.524	4241.51
694.713	4087.92
694.902	4251.75
695.092	4218.99
695.281	4165.74
695.47	4085.87
695.659	4051.05
695.848	4065.39
696.037	4188.27
696.226	4235.37
696.415	4206.7
696.604	4202.6
696.793	4165.74
696.982	4249.71
697.171	4096.11
697.36	4083.82
697.549	4149.36
697.738	4108.4
697.927	4057.2
698.116	4188.27
698.305	4122.73
698.494	4139.12
698.683	4169.84
698.872	4038.77
699.061	4094.06
699.25	4153.45
699.438	4182.12
699.627	4067.44
699.816	4186.22
700.005	3991.66
700.193	4186.22
700.382	4200.55
700.571	4061.29
700.76	4114.54
700.948	4063.34
701.137	4137.07
701.326	4227.18
701.514	4089.96
701.703	4116.59
701.892	4100.2
702.08	4192.36
702.269	4200.55
702.457	4053.1
702.646	4188.27
702.834	4151.4
703.023	4175.98
703.212	4143.21
703.4	4108.4
703.589	4102.25
703.777	4065.39
703.965	4104.3
704.154	4087.92
704.342	4028.53
704.531	4110.44
704.719	4083.82
704.907	4128.88
705.096	4003.95
705.284	4182.12
705.472	3991.66
705.661	4159.6
705.849	4116.59
706.037	4196.46
706.226	4200.55
706.414	4169.84
706.602	4436.07
706.79	4188.27
706.979	4102.25
707.167	4325.48
707.355	4130.92
707.543	4167.79
707.731	4024.43
707.919	4147.31
708.107	4163.69
708.296	4165.74
708.484	4147.31
708.672	4104.3
708.86	4171.88
709.048	4249.71
709.236	4274.28
709.424	4206.7
709.612	4175.98
709.8	4159.6
709.988	4022.38
710.176	4204.65
710.364	4192.36
710.551	4307.05
710.739	4210.79
710.927	4362.34
711.115	4329.58
711.303	4321.38
711.491	4300.91
711.679	4130.92
711.866	4178.03
712.054	4221.03
712.242	4309.1
712.43	4319.34
712.617	4192.36
712.805	4284.52
712.993	4178.03
713.181	4102.25
713.368	4343.91
713.556	4186.22
713.744	4118.64
713.931	4403.3
714.119	4192.36
714.306	4319.34
714.494	4218.99
714.682	4286.57
714.869	4067.44
715.057	4274.28
715.244	4137.07
715.432	4343.91
715.619	4251.75
715.807	4147.31
715.994	4319.34
716.182	4356.2
716.369	4362.34
716.556	4313.19
716.744	4167.79
716.931	4173.93
717.119	4268.14
717.306	4350.06
717.493	4221.03
717.681	4311.14
717.868	4313.19
718.055	4362.34
718.242	4343.91
718.43	4292.71
718.617	4327.53
718.804	4102.25
718.991	4358.25
719.179	4251.75
719.366	4208.75
719.553	4186.22
719.74	4165.74
719.927	4159.6
720.114	4235.37
720.301	4296.81
720.488	4225.13
720.676	4147.31
720.863	4264.04
721.05	4333.67
721.237	4282.47
721.424	4280.43
721.611	4307.05
721.798	4206.7
721.985	4253.8
722.172	4159.6
722.358	4212.84
722.545	4208.75
722.732	4126.83
722.919	4329.58
723.106	4182.12
723.293	4237.42
723.48	4208.75
723.667	4186.22
723.853	4155.5
724.04	4354.15
724.227	4245.61
724.414	4132.97
724.6	4055.15
724.787	4337.77
724.974	4397.16
725.161	4356.2
725.347	4171.88
725.534	4360.3
725.72	4200.55
725.907	4155.5
726.094	4175.98
726.28	4141.16
726.467	4214.89
726.653	4235.37
726.84	4233.32
727.027	4264.04
727.213	4200.55
727.4	4268.14
727.586	4284.52
727.773	4247.66
727.959	4307.05
728.145	4229.23
728.332	4051.05
728.518	4038.77
728.705	4264.04
728.891	4114.54
729.077	4100.2
729.264	4327.53
729.45	4026.48
729.636	4182.12
729.823	4206.7
730.009	4171.88
730.195	4257.9
730.382	4135.02
730.568	4175.98
730.754	4132.97
730.94	4235.37
731.126	4122.73
731.313	4124.78
731.499	4210.79
731.685	4077.68
731.871	4161.64
732.057	4178.03
732.243	4200.55
732.429	3981.42
732.615	4118.64
732.801	4126.83
732.987	4110.44
733.173	4124.78
733.359	4122.73
733.545	4167.79
733.731	3936.37
733.917	4051.05
734.103	4139.12
734.289	3981.42
734.475	3799.15
734.661	4239.47
734.847	4051.05
735.033	3987.57
735.219	3973.23
735.404	4001.9
735.59	4044.91
735.776	3977.33
735.962	3969.13
736.148	4092.01
736.333	4067.44
736.519	3944.56
736.705	4020.33
736.89	3870.83
737.076	3799.15
737.262	3854.45
737.447	3805.3
737.633	3842.16
737.819	3850.35
738.004	3815.54
738.19	3866.74
738.375	3928.17
738.561	3934.32
738.747	3817.58
738.932	3735.67
739.118	3915.89
739.303	3778.67
739.489	3772.53
739.674	3723.38
739.859	3782.77
740.045	3870.83
740.23	3666.03
740.416	3698.8
740.601	3876.98
740.786	3813.49
740.972	3569.78
741.157	3571.83
741.342	3813.49
741.528	3637.36
741.713	3661.94
741.898	3696.75
742.084	3641.46
742.269	3594.36
742.454	3539.06
742.639	3588.21
742.824	3655.79
743.01	3532.92
743.195	3575.92
743.38	3582.07
743.565	3520.63
743.75	3446.9
743.935	3430.52
744.12	3512.44
744.305	3311.74
744.49	3410.04
744.675	3399.8
744.86	3350.65
745.045	3346.55
745.23	3336.31
745.415	3451
745.6	3299.45
745.785	3352.7
745.97	3283.06
746.155	3240.06
746.34	3223.67
746.525	3172.47
746.71	3158.14
746.895	3188.86
747.079	3156.09
747.264	3057.79
747.449	3172.47
747.634	3170.43
747.819	3053.69
748.003	3086.46
748.188	3121.28
748.373	3137.66
748.557	2975.87
748.742	3045.5
748.927	3014.78
749.111	3059.84
749.296	2898.05
749.481	2928.77
749.665	2975.87
749.85	2865.28
750.034	2934.91
750.219	2912.38
750.404	2875.52
750.588	3025.02
750.773	2883.71
750.957	2793.6
751.141	2797.7
751.326	2734.21
751.51	2730.11
751.695	2697.35
751.879	2803.84
752.064	2680.96
752.248	2664.58
752.432	2627.71
752.617	2656.39
752.801	2742.4
752.985	2537.6
753.17	2572.42
753.354	2500.74
753.538	2445.45
753.722	2402.44
753.907	2429.06
754.091	2394.25
754.275	2384.01
754.459	2420.87
754.643	2371.72
754.828	2494.6
755.012	2408.58
755.196	2259.08
755.38	2314.38
755.564	2351.24
755.748	2302.09
755.932	2404.49
756.116	2318.47
756.3	2279.56
756.484	2267.27
756.668	2218.12
756.852	2203.79
757.036	2316.42
757.22	2173.07
757.404	2216.07
757.588	2113.67
757.772	2140.3
757.956	2166.92
758.14	2175.11
758.323	2046.09
758.507	2031.76
758.691	1933.45
758.875	2003.08
759.059	2138.25
759.242	1978.51
759.426	2044.04
759.61	2033.8
759.794	2009.23
759.977	1915.02
760.161	2115.72
760.345	2033.8
760.528	1962.12
760.712	1933.45
760.895	2017.42
761.079	2027.66
761.263	1853.58
761.446	1884.3
761.63	1863.82
761.813	1898.64
761.997	1833.1
762.18	1837.2
762.364	1837.2
762.547	1761.42
762.731	1740.94
762.914	1765.52
763.098	1779.86
763.281	1786
763.464	1716.37
763.648	1763.47
763.831	1773.71
764.015	1747.09
764.198	1781.9
764.381	1628.31
764.564	1722.51
764.748	1783.95
764.931	1898.64
765.114	1742.99
765.297	1747.09
765.481	1644.69
765.664	1687.7
765.847	1611.92
766.03	1808.53
766.213	1624.21
766.397	1706.13
766.58	1632.4
766.763	1673.36
766.946	1611.92
767.129	1607.83
767.312	1603.73
767.495	1577.11
767.678	1515.67
767.861	1575.06
768.044	1628.31
768.227	1589.39
768.41	1624.21
768.593	1640.59
768.776	1646.74
768.959	1462.42
769.142	1568.91
769.324	1501.33
769.507	1476.76
769.69	1487
769.873	1400.98
770.056	1601.68
770.239	1593.49
770.421	1585.3
770.604	1476.76
770.787	1468.56
770.97	1460.37
771.152	1476.76
771.335	1403.03
771.518	1388.69
771.7	1550.48
771.883	1474.71
772.066	1390.74
772.248	1368.21
772.431	1534.1
772.613	1423.51
772.796	1355.93
772.978	1384.6
773.161	1462.42
773.343	1433.75
773.526	1390.74
773.708	1253.53
773.891	1300.63
774.073	1310.87
774.256	1312.92
774.438	1329.3
774.621	1228.95
774.803	1357.97
774.985	1251.48
775.168	1200.28
775.35	1300.63
775.532	1183.9
775.715	1159.32
775.897	1153.18
776.079	1284.25
776.261	1245.34
776.444	1210.52
776.626	1171.61
776.808	1101.98
776.99	1104.03
777.173	1163.42
777.355	1116.31
777.537	1202.33
777.719	1233.05
777.901	1063.07
778.083	1028.25
778.265	1128.6
778.447	1128.6
778.629	1104.03
778.811	1144.99
778.993	1061.02
779.175	1112.22
779.357	1220.76
779.539	948.38
779.721	1091.74
779.903	1040.54
780.085	1036.44
780.267	954.52
780.449	1073.31
780.631	1079.45
780.812	1091.74
780.994	1036.44
781.176	940.19
781.358	987.29
781.54	927.9
781.721	975
781.903	970.91
782.085	958.62
782.267	934.04
782.448	921.76
782.63	970.91
782.812	862.37
782.993	827.55
783.175	952.48
783.357	915.61
783.538	823.45
783.72	809.12
783.901	858.27
784.083	817.31
784.264	827.55
784.446	852.13
784.627	852.13
784.809	915.61
784.99	790.69
785.172	866.46
785.353	874.65
785.535	790.69
785.716	690.34
785.897	741.54
786.079	805.02
786.26	825.5
786.441	737.44
786.623	659.62
786.804	669.86
786.985	741.54
787.167	745.63
787.348	704.67
787.529	692.38
787.71	784.54
787.891	710.82
788.073	696.48
788.254	555.17
788.435	694.43
788.616	764.06
788.797	655.52
788.978	676
789.159	667.81
789.34	571.55
789.522	620.71
789.703	620.71
789.884	714.91
790.065	655.52
790.246	747.68
790.427	612.51
790.607	766.11
790.788	686.24
790.969	647.33
791.15	639.14
791.331	573.6
791.512	635.04
791.693	561.31
791.874	565.41
792.054	659.62
792.235	592.03
792.416	549.03
792.597	559.27
792.778	553.12
792.958	620.71
793.139	604.32
793.32	532.64
793.5	536.74
793.681	622.75
793.862	446.63
794.042	579.75
794.223	452.77
794.404	622.75
794.584	506.02
794.765	483.49
794.945	530.59
795.126	563.36
795.306	561.31
795.487	508.07
795.667	401.57
795.848	479.4
796.028	506.02
796.209	510.11
796.389	551.07
796.57	577.7
796.75	446.63
796.93	460.96
797.111	454.82
797.291	440.48
797.471	495.78
797.652	456.87
797.832	417.96
798.012	532.64
798.192	522.4
798.373	362.66
798.553	417.96
798.733	483.49
798.913	420
799.093	352.42
799.274	395.43
799.454	432.29
799.634	444.58
799.814	407.72
799.994	424.1
800.174	430.24
800.354	415.91
800.534	383.14
800.714	438.44
800.894	403.62
801.074	401.57
801.254	381.09
801.434	456.87
801.614	358.57
801.794	358.57
801.974	1472.66
802.154	385.19
802.334	448.68
802.514	352.42
802.693	444.58
802.873	389.28
803.053	381.09
803.233	458.92
803.413	356.52
803.592	331.94
803.772	276.65
803.952	327.85
804.131	245.93
804.311	407.72
804.491	401.57
804.67	331.94
804.85	307.37
805.03	401.57
805.209	440.48
805.389	270.5
805.568	274.6
805.748	395.43
805.928	323.75
806.107	319.65
806.287	325.8
806.466	348.33
806.646	293.03
806.825	368.81
807.004	297.13
807.184	411.81
807.363	323.75
807.543	256.17
807.722	350.37
807.901	350.37
808.081	405.67
808.26	270.5
808.439	239.78
808.619	340.13
808.798	245.93
808.977	327.85
809.156	290.98
809.336	323.75
809.515	266.41
809.694	217.26
809.873	252.07
810.052	360.61
810.231	264.36
810.411	229.54
810.59	352.42
810.769	268.45
810.948	352.42
811.127	288.93
811.306	278.69
811.485	274.6
811.664	288.93
811.843	209.06
812.022	301.22
812.201	258.21
812.38	260.26
812.559	225.45
812.737	338.09
812.916	250.02
813.095	157.86
813.274	268.45
813.453	213.16
813.632	270.5
813.811	364.71
813.989	227.5
814.168	309.41
814.347	264.36
814.526	307.37
814.704	325.8
814.883	262.31
815.062	178.34
815.24	331.94
815.419	133.29
815.598	307.37
815.776	180.39
815.955	211.11
816.133	235.69
816.312	213.16
816.49	209.06
816.669	278.69
816.847	184.49
817.026	299.17
817.204	174.25
817.383	211.11
817.561	121
817.74	233.64
817.918	272.55
818.097	180.39
818.275	274.6
818.453	250.02
818.632	327.85
818.81	102.57
818.988	180.39
819.167	194.73
819.345	297.13
819.523	172.2
819.701	217.26
819.879	233.64
820.058	92.33
820.236	151.72
820.414	254.12
820.592	161.96
820.77	204.97
820.948	172.2
821.127	127.14
821.305	176.3
821.483	121
821.661	250.02
821.839	182.44
822.017	170.15
822.195	151.72
822.373	227.5
822.551	147.62
822.729	172.2
822.907	180.39
823.085	231.59
823.262	145.58
823.44	155.82
823.618	172.2
823.796	217.26
823.974	116.9
824.152	137.38
824.329	168.1
824.507	182.44
824.685	239.78
824.863	123.05
825.04	225.45
825.218	239.78
825.396	155.82
825.574	213.16
825.751	133.29
825.929	159.91
826.107	151.72
826.284	86.19
826.462	153.77
826.639	112.81
826.817	118.95
826.994	125.1
827.172	96.43
827.349	260.26
827.527	127.14
827.704	237.74
827.882	139.43
828.059	67.75
828.237	82.09
828.414	164.01
828.591	51.37
828.769	153.77
828.946	30.89
829.124	260.26
829.301	180.39
829.478	164.01
829.655	182.44
829.833	131.24
830.01	80.04
830.187	108.71
830.364	153.77
830.542	159.91
830.719	155.82
830.896	153.77
831.073	149.67
831.25	186.54
831.427	176.3
831.604	125.1
831.782	123.05
831.959	98.47
832.136	141.48
832.313	174.25
832.49	155.82
832.667	118.95
832.844	24.75
833.021	86.19
833.198	112.81
833.374	106.67
833.551	143.53
833.728	55.47
833.905	118.95
834.082	2.22
834.259	151.72
834.436	182.44
834.612	18.6
834.789	26.79
834.966	180.39
835.143	102.57
835.319	65.71
835.496	172.2
835.673	180.39
835.85	65.71
836.026	141.48
836.203	112.81
836.38	2.22
836.556	47.27
836.733	82.09
836.909	241.83
837.086	45.23
837.262	59.56
837.439	110.76
837.616	55.47
837.792	94.38
837.968	114.86
838.145	32.94
838.321	49.32
838.498	80.04
838.674	24.75
838.851	170.15
839.027	88.23
839.203	90.28
839.38	71.85
839.556	69.8
839.732	127.14
839.909	127.14
840.085	125.1
840.261	57.51
840.437	118.95
840.614	80.04
840.79	127.14
840.966	67.75
841.142	14.51
841.318	104.62
841.494	80.04
841.671	75.95
841.847	80.04
842.023	26.79
842.199	145.58
842.375	141.48
842.551	2.22
842.727	-20.31
842.903	190.63
843.079	14.51
843.255	174.25
843.431	37.03
843.607	102.57
843.783	59.56
843.959	94.38
844.134	6.31
844.31	96.43
844.486	14.51
844.662	51.37
844.838	94.38
845.013	135.34
845.189	0.17
845.365	75.95
845.541	61.61
845.716	80.04
845.892	116.9
846.068	82.09
846.244	14.51
846.419	84.14
846.595	92.33
846.77	-3.93
846.946	41.13
847.122	65.71
847.297	37.03
847.473	94.38
847.648	51.37
847.824	32.94
847.999	22.7
848.175	-12.12
848.35	73.9
848.526	94.38
848.701	45.23
848.876	127.14
849.052	98.47
849.227	41.13
849.403	12.46
849.578	-5.97
849.753	86.19
849.929	104.62
850.104	-55.12
850.279	34.99
850.454	141.48
850.63	30.89
850.805	-28.5
850.98	18.6
851.155	26.79
851.33	73.9
851.505	2.22
851.681	90.28
851.856	-12.12
852.031	-3.93
852.206	-5.97
852.381	69.8
852.556	12.46
852.731	47.27
852.906	90.28
853.081	41.13
853.256	94.38
853.431	24.75
853.606	28.84
853.781	-12.12
853.956	-61.27
854.131	88.23
854.305	41.13
854.48	45.23
854.655	-40.79
854.83	39.08
855.005	-20.31
855.18	39.08
855.354	135.34
855.529	94.38
855.704	-22.36
855.879	77.99
856.053	-69.46
856.228	12.46
856.403	-20.31
856.577	24.75
856.752	-48.98
856.926	51.37
857.101	20.65
857.276	-24.4
857.45	2.22
857.625	24.75
857.799	53.42
857.974	88.23
858.148	-30.55
858.323	45.23
858.497	28.84
858.672	69.8
858.846	-44.88
859.02	63.66
859.195	-28.5
859.369	43.18
859.543	-24.4
859.718	32.94
859.892	41.13
860.066	98.47
860.241	-38.74
860.415	45.23
860.589	-40.79
860.763	-1.88
860.938	59.56
861.112	22.7
861.286	-24.4
861.46	30.89
861.634	-59.22
861.808	65.71
861.982	-42.84
862.157	20.65
862.331	-22.36
862.505	47.27
862.679	-51.03
862.853	55.47
863.027	10.41
863.201	80.04
863.375	28.84
863.549	8.36
863.722	63.66
863.896	82.09
864.07	-55.12
864.244	-22.36
864.418	-16.21
864.592	-18.26
864.766	28.84
864.939	22.7
865.113	4.27
865.287	18.6
865.461	-44.88
865.634	26.79
865.808	24.75
865.982	-3.93
866.156	-28.5
866.329	22.7
866.503	41.13
866.676	57.51
866.85	59.56
867.024	24.75
867.197	71.85
867.371	100.52
867.544	73.9
867.718	-5.97
867.891	84.14
868.065	-1.88
868.238	73.9
868.412	63.66
868.585	65.71
868.759	-12.12
868.932	-18.26
869.105	-12.12
869.279	14.51
869.452	14.51
869.625	8.36
869.799	47.27
869.972	-36.69
870.145	-10.07
870.319	49.32
870.492	-48.98
870.665	37.03
870.838	-77.65
871.011	-40.79
871.185	-98.13
871.358	-42.84
871.531	-53.08
871.704	-51.03
871.877	16.55
872.05	47.27
872.223	45.23
872.396	65.71
872.569	63.66
872.742	-102.23
872.915	-61.27
873.088	26.79
873.261	2.22
873.434	75.95
873.607	-3.93
873.78	14.51
873.953	-79.7
874.126	-22.36
874.299	37.03
874.471	22.7
874.644	-1.88
874.817	-40.79
874.99	102.57
875.163	-22.36
875.335	-55.12
875.508	-73.56
875.681	121
875.853	-61.27
876.026	63.66
876.199	-20.31
876.371	-65.36
876.544	-46.93
876.717	-14.17
876.889	-46.93
877.062	59.56
877.234	-1.88
877.407	18.6
877.579	67.75
877.752	16.55
877.924	69.8
878.097	14.51
878.269	-3.93
878.442	69.8
878.614	-5.97
878.786	59.56
878.959	43.18
879.131	16.55
879.303	-34.64
879.476	-26.45
879.648	39.08
879.82	-18.26
879.993	-55.12
880.165	-36.69
880.337	-51.03
880.509	10.41
880.681	-10.07
880.854	-28.5
881.026	28.84
881.198	102.57
881.37	26.79
881.542	18.6
881.714	49.32
881.886	22.7
882.058	12.46
882.23	24.75
882.402	-12.12
882.574	-40.79
882.746	0.17
882.918	159.91
883.09	45.23
883.262	-53.08
883.434	41.13
883.606	-34.64
883.778	30.89
883.95	129.19
884.122	-16.21
884.293	34.99
884.465	10.41
884.637	14.51
884.809	-57.17
884.98	-14.17
885.152	49.32
885.324	10.41
885.496	-32.6
885.667	-28.5
885.839	-14.17
886.011	104.62
886.182	12.46
886.354	53.42
886.525	-18.26
886.697	20.65
886.869	-30.55
887.04	37.03
887.212	47.27
887.383	84.14
887.555	20.65
887.726	-57.17
887.897	-20.31
888.069	18.6
888.24	53.42
888.412	26.79
888.583	75.95
888.754	-108.37
888.926	-10.07
889.097	-53.08
889.268	-42.84
889.44	-28.5
889.611	-79.7
889.782	-48.98
889.953	-63.32
890.125	-3.93
890.296	-75.6
890.467	22.7
890.638	-108.37
890.809	0.17
890.98	-51.03
891.151	20.65
891.323	47.27
891.494	2.22
891.665	45.23
891.836	10.41
892.007	-83.8
892.178	34.99
892.349	-14.17
892.52	-69.46
892.691	4.27
892.862	-1.88
893.032	-55.12
893.203	-116.56
893.374	-1.88
893.545	16.55
893.716	-14.17
893.887	34.99
894.057	-8.02
894.228	-34.64
894.399	18.6
894.57	-42.84
894.74	-8.02
894.911	30.89
895.082	32.94
895.253	-63.32
895.423	-18.26
895.594	61.61
895.764	-87.89
895.935	-100.18
896.106	24.75
896.276	8.36
896.447	51.37
896.617	24.75
896.788	-48.98
896.958	20.65
897.129	-77.65
897.299	-42.84
897.47	-16.21
897.64	-8.02
897.81	-59.22
897.981	-28.5
898.151	20.65
898.322	4.27
898.492	110.76
898.662	16.55
898.832	-42.84
899.003	30.89
899.173	22.7
899.343	-65.36
899.513	-63.32
