Data from USB4F104151__74__12-12-40-902.txt Node

Date: Fri Mar 14 12:12:40 EDT 2025
User: louis
Spectrometer: USB4F10415
Trigger mode: 4
Integration Time (sec): 5.000000E-2
Scans to average: 1
Electric dark correction enabled: true
Nonlinearity correction enabled: false
Boxcar width: 0
XAxis mode: Wavelengths
Number of Pixels in Spectrum: 3648
>>>>>Begin Spectral Data<<<<<
178.204	-232.44
178.424	-232.44
178.644	-232.44
178.864	-193.53
179.084	-261.12
179.304	9.22
179.524	56.32
179.744	-46.08
179.964	68.61
180.184	-54.27
180.404	-7.17
180.624	19.46
180.844	19.46
181.064	-15.36
181.283	5.12
181.503	3.07
181.723	-58.37
181.943	-33.79
182.163	84.99
182.383	9.22
182.602	37.89
182.822	41.98
183.042	-3.07
183.262	3.07
183.482	5.12
183.701	-9.22
183.921	23.55
184.141	-19.46
184.361	-1.02
184.58	27.65
184.8	56.32
185.02	-48.13
185.239	95.23
185.459	25.6
185.679	56.32
185.898	35.84
186.118	105.47
186.338	33.79
186.557	109.57
186.777	9.22
186.997	-25.6
187.216	1.02
187.436	125.95
187.655	5.12
187.875	99.33
188.095	-29.7
188.314	52.22
188.534	148.48
188.753	-5.12
188.973	-7.17
189.192	5.12
189.412	9.22
189.631	9.22
189.851	52.22
190.07	78.85
190.29	3.07
190.509	15.36
190.729	29.7
190.948	31.74
191.168	189.44
191.387	115.71
191.607	50.18
191.826	3.07
192.045	-5.12
192.265	-13.31
192.484	52.22
192.704	48.13
192.923	-23.55
193.142	132.09
193.362	15.36
193.581	70.65
193.8	39.94
194.02	17.41
194.239	54.27
194.458	93.18
194.678	29.7
194.897	31.74
195.116	21.5
195.335	48.13
195.555	35.84
195.774	62.46
195.993	130.05
196.212	-11.26
196.432	19.46
196.651	-50.18
196.87	-46.08
197.089	142.33
197.308	111.61
197.528	21.5
197.747	-23.55
197.966	54.27
198.185	80.89
198.404	-13.31
198.623	46.08
198.842	68.61
199.062	78.85
199.281	68.61
199.5	-3.07
199.719	93.18
199.938	27.65
200.157	54.27
200.376	-7.17
200.595	58.37
200.814	66.56
201.033	54.27
201.252	56.32
201.471	-48.13
201.69	84.99
201.909	56.32
202.128	78.85
202.347	99.33
202.566	37.89
202.785	-29.7
203.004	-19.46
203.223	142.33
203.442	44.03
203.661	17.41
203.879	-68.61
204.098	25.6
204.317	-11.26
204.536	27.65
204.755	21.5
204.974	-21.5
205.193	27.65
205.411	117.76
205.63	44.03
205.849	66.56
206.068	5.12
206.287	11.26
206.505	95.23
206.724	-50.18
206.943	39.94
207.162	-48.13
207.381	82.94
207.599	-29.7
207.818	35.84
208.037	-46.08
208.255	113.66
208.474	48.13
208.693	78.85
208.911	-29.7
209.13	109.57
209.349	48.13
209.567	62.46
209.786	48.13
210.005	-21.5
210.223	-64.51
210.442	-13.31
210.661	33.79
210.879	19.46
211.098	-15.36
211.316	17.41
211.535	62.46
211.753	50.18
211.972	48.13
212.191	9.22
212.409	48.13
212.628	29.7
212.846	58.37
213.065	56.32
213.283	48.13
213.502	-17.41
213.72	50.18
213.938	5.12
214.157	29.7
214.375	70.65
214.594	35.84
214.812	142.33
215.031	29.7
215.249	21.5
215.467	121.85
215.686	39.94
215.904	70.65
216.122	-5.12
216.341	78.85
216.559	33.79
216.778	56.32
216.996	29.7
217.214	-17.41
217.432	76.8
217.651	-17.41
217.869	-60.42
218.087	113.66
218.306	7.17
218.524	64.51
218.742	-27.65
218.96	56.32
219.179	5.12
219.397	-35.84
219.615	140.29
219.833	23.55
220.051	-33.79
220.27	132.09
220.488	105.47
220.706	33.79
220.924	29.7
221.142	50.18
221.36	84.99
221.578	113.66
221.796	23.55
222.015	60.42
222.233	-44.03
222.451	76.8
222.669	-95.23
222.887	46.08
223.105	41.98
223.323	19.46
223.541	19.46
223.759	33.79
223.977	3.07
224.195	105.47
224.413	54.27
224.631	-3.07
224.849	25.6
225.067	91.13
225.285	-56.32
225.503	-5.12
225.721	-35.84
225.939	-7.17
226.157	35.84
226.375	240.64
226.592	-21.5
226.81	23.55
227.028	109.57
227.246	91.13
227.464	-9.22
227.682	62.46
227.9	3.07
228.117	13.31
228.335	33.79
228.553	35.84
228.771	66.56
228.989	-9.22
229.206	27.65
229.424	50.18
229.642	-29.7
229.86	-66.56
230.077	56.32
230.295	31.74
230.513	97.28
230.731	87.04
230.948	115.71
231.166	46.08
231.384	82.94
231.601	-15.36
231.819	62.46
232.037	-54.27
232.254	-56.32
232.472	7.17
232.689	-44.03
232.907	78.85
233.125	39.94
233.342	11.26
233.56	35.84
233.777	62.46
233.995	48.13
234.213	21.5
234.43	1.02
234.648	48.13
234.865	39.94
235.083	52.22
235.3	29.7
235.518	35.84
235.735	95.23
235.953	62.46
236.17	15.36
236.388	-21.5
236.605	1.02
236.822	64.51
237.04	123.9
237.257	39.94
237.475	-29.7
237.692	87.04
237.909	39.94
238.127	11.26
238.344	107.52
238.562	41.98
238.779	7.17
238.996	-35.84
239.214	80.89
239.431	64.51
239.648	-3.07
239.865	-15.36
240.083	41.98
240.3	-50.18
240.517	-46.08
240.735	54.27
240.952	13.31
241.169	58.37
241.386	89.09
241.603	25.6
241.821	19.46
242.038	103.42
242.255	52.22
242.472	-60.42
242.689	48.13
242.907	60.42
243.124	-35.84
243.341	13.31
243.558	-3.07
243.775	-87.04
243.992	46.08
244.209	107.52
244.426	91.13
244.643	103.42
244.86	60.42
245.078	31.74
245.295	23.55
245.512	13.31
245.729	-13.31
245.946	-1.02
246.163	46.08
246.38	23.55
246.597	-15.36
246.814	60.42
247.031	50.18
247.248	62.46
247.464	-23.55
247.681	-5.12
247.898	70.65
248.115	15.36
248.332	-17.41
248.549	66.56
248.766	171.01
248.983	39.94
249.2	46.08
249.417	21.5
249.633	-19.46
249.85	-9.22
250.067	25.6
250.284	50.18
250.501	33.79
250.717	41.98
250.934	-17.41
251.151	21.5
251.368	19.46
251.585	58.37
251.801	-5.12
252.018	23.55
252.235	-17.41
252.451	3.07
252.668	15.36
252.885	66.56
253.102	52.22
253.318	89.09
253.535	-35.84
253.752	19.46
253.968	-48.13
254.185	-72.7
254.401	50.18
254.618	78.85
254.835	5.12
255.051	78.85
255.268	140.29
255.484	19.46
255.701	7.17
255.917	19.46
256.134	17.41
256.351	17.41
256.567	-29.7
256.784	50.18
257	-123.9
257.217	23.55
257.433	41.98
257.65	84.99
257.866	91.13
258.082	-19.46
258.299	-27.65
258.515	74.75
258.732	-39.94
258.948	-3.07
259.165	62.46
259.381	-60.42
259.597	-29.7
259.814	-25.6
260.03	-37.89
260.246	72.7
260.463	123.9
260.679	87.04
260.895	5.12
261.112	62.46
261.328	29.7
261.544	27.65
261.761	84.99
261.977	23.55
262.193	35.84
262.409	125.95
262.626	13.31
262.842	13.31
263.058	-91.13
263.274	-7.17
263.49	-27.65
263.707	68.61
263.923	66.56
264.139	19.46
264.355	3.07
264.571	97.28
264.787	52.22
265.004	70.65
265.22	31.74
265.436	-21.5
265.652	29.7
265.868	-27.65
266.084	-9.22
266.3	-7.17
266.516	41.98
266.732	-23.55
266.948	99.33
267.164	31.74
267.38	31.74
267.596	60.42
267.812	56.32
268.028	80.89
268.244	35.84
268.46	33.79
268.676	-50.18
268.892	62.46
269.108	52.22
269.324	15.36
269.54	-27.65
269.756	113.66
269.972	-5.12
270.188	7.17
270.403	68.61
270.619	52.22
270.835	-78.85
271.051	68.61
271.267	52.22
271.483	3.07
271.698	17.41
271.914	27.65
272.13	17.41
272.346	33.79
272.562	33.79
272.777	50.18
272.993	56.32
273.209	-19.46
273.425	-25.6
273.64	-31.74
273.856	89.09
274.072	-62.46
274.287	5.12
274.503	19.46
274.719	66.56
274.934	58.37
275.15	-52.22
275.366	44.03
275.581	21.5
275.797	68.61
276.012	33.79
276.228	-31.74
276.444	21.5
276.659	52.22
276.875	-1.02
277.09	9.22
277.306	-7.17
277.521	46.08
277.737	-7.17
277.952	64.51
278.168	-7.17
278.383	-33.79
278.599	39.94
278.814	37.89
279.03	9.22
279.245	95.23
279.461	48.13
279.676	25.6
279.892	41.98
280.107	-9.22
280.322	-9.22
280.538	101.37
280.753	21.5
280.969	103.42
281.184	-19.46
281.399	70.65
281.615	3.07
281.83	46.08
282.045	-29.7
282.26	-50.18
282.476	46.08
282.691	46.08
282.906	54.27
283.122	7.17
283.337	17.41
283.552	50.18
283.767	15.36
283.983	64.51
284.198	27.65
284.413	19.46
284.628	-35.84
284.843	15.36
285.058	41.98
285.274	74.75
285.489	-46.08
285.704	54.27
285.919	39.94
286.134	87.04
286.349	19.46
286.564	-58.37
286.779	121.85
286.995	-13.31
287.21	-1.02
287.425	48.13
287.64	3.07
287.855	31.74
288.07	-37.89
288.285	1.02
288.5	60.42
288.715	-19.46
288.93	33.79
289.145	-13.31
289.36	80.89
289.575	35.84
289.79	76.8
290.004	-39.94
290.219	56.32
290.434	-1.02
290.649	-89.09
290.864	29.7
291.079	37.89
291.294	-44.03
291.509	46.08
291.724	-56.32
291.938	-5.12
292.153	-33.79
292.368	60.42
292.583	-21.5
292.798	105.47
293.012	37.89
293.227	31.74
293.442	-35.84
293.657	74.75
293.871	80.89
294.086	11.26
294.301	54.27
294.516	58.37
294.73	44.03
294.945	-41.98
295.16	60.42
295.374	21.5
295.589	125.95
295.804	21.5
296.018	33.79
296.233	115.71
296.447	33.79
296.662	-7.17
296.877	48.13
297.091	44.03
297.306	-21.5
297.52	66.56
297.735	-27.65
297.949	41.98
298.164	15.36
298.378	74.75
298.593	-56.32
298.807	-13.31
299.022	-1.02
299.236	46.08
299.451	33.79
299.665	-1.02
299.88	13.31
300.094	37.89
300.309	27.65
300.523	25.6
300.737	-37.89
300.952	97.28
301.166	21.5
301.381	25.6
301.595	7.17
301.809	35.84
302.024	-39.94
302.238	3.07
302.452	78.85
302.667	11.26
302.881	101.37
303.095	74.75
303.309	39.94
303.524	17.41
303.738	19.46
303.952	-35.84
304.166	84.99
304.381	-87.04
304.595	117.76
304.809	-13.31
305.023	19.46
305.237	48.13
305.452	-37.89
305.666	52.22
305.88	70.65
306.094	-31.74
306.308	48.13
306.522	50.18
306.736	33.79
306.95	13.31
307.164	66.56
307.379	-13.31
307.593	111.61
307.807	19.46
308.021	68.61
308.235	80.89
308.449	-82.94
308.663	-41.98
308.877	99.33
309.091	76.8
309.305	5.12
309.519	-70.65
309.733	52.22
309.947	-44.03
310.161	5.12
310.374	25.6
310.588	84.99
310.802	-19.46
311.016	13.31
311.23	113.66
311.444	37.89
311.658	-23.55
311.872	37.89
312.085	56.32
312.299	68.61
312.513	35.84
312.727	-23.55
312.941	-29.7
313.154	11.26
313.368	-11.26
313.582	58.37
313.796	25.6
314.009	-3.07
314.223	48.13
314.437	27.65
314.651	107.52
314.864	19.46
315.078	-50.18
315.292	21.5
315.505	-11.26
315.719	58.37
315.933	13.31
316.146	74.75
316.36	-50.18
316.573	44.03
316.787	111.61
317.001	66.56
317.214	-7.17
317.428	74.75
317.641	-62.46
317.855	-29.7
318.068	78.85
318.282	39.94
318.495	177.15
318.709	41.98
318.922	-39.94
319.136	117.76
319.349	31.74
319.563	56.32
319.776	1.02
319.99	-21.5
320.203	31.74
320.417	115.71
320.63	-3.07
320.843	91.13
321.057	15.36
321.27	29.7
321.483	31.74
321.697	111.61
321.91	9.22
322.124	101.37
322.337	15.36
322.55	-17.41
322.763	-35.84
322.977	54.27
323.19	60.42
323.403	29.7
323.617	62.46
323.83	1.02
324.043	76.8
324.256	-9.22
324.469	-13.31
324.683	-33.79
324.896	5.12
325.109	56.32
325.322	5.12
325.535	11.26
325.748	39.94
325.962	-19.46
326.175	93.18
326.388	50.18
326.601	1.02
326.814	33.79
327.027	-1.02
327.24	74.75
327.453	-54.27
327.666	66.56
327.879	66.56
328.092	123.9
328.305	21.5
328.518	52.22
328.731	-95.23
328.944	58.37
329.157	52.22
329.37	29.7
329.583	52.22
329.796	68.61
330.009	1.02
330.222	17.41
330.435	11.26
330.648	1.02
330.861	-23.55
331.073	-1.02
331.286	29.7
331.499	78.85
331.712	-7.17
331.925	13.31
332.138	-109.57
332.35	60.42
332.563	7.17
332.776	115.71
332.989	3.07
333.202	-58.37
333.414	62.46
333.627	-50.18
333.84	-11.26
334.053	13.31
334.265	-17.41
334.478	9.22
334.691	-87.04
334.903	76.8
335.116	-9.22
335.329	35.84
335.541	84.99
335.754	82.94
335.966	23.55
336.179	17.41
336.392	-68.61
336.604	17.41
336.817	37.89
337.029	15.36
337.242	29.7
337.454	107.52
337.667	33.79
337.88	82.94
338.092	66.56
338.305	-37.89
338.517	37.89
338.729	64.51
338.942	-3.07
339.154	-41.98
339.367	-33.79
339.579	31.74
339.792	-29.7
340.004	21.5
340.217	11.26
340.429	27.65
340.641	-72.7
340.854	-3.07
341.066	-54.27
341.278	52.22
341.491	109.57
341.703	-13.31
341.915	5.12
342.128	74.75
342.34	37.89
342.552	-13.31
342.764	-29.7
342.977	-5.12
343.189	19.46
343.401	-21.5
343.613	-5.12
343.826	7.17
344.038	-21.5
344.25	74.75
344.462	-68.61
344.674	17.41
344.886	33.79
345.099	19.46
345.311	82.94
345.523	-35.84
345.735	-72.7
345.947	17.41
346.159	33.79
346.371	13.31
346.583	39.94
346.795	125.95
347.007	11.26
347.219	58.37
347.431	-23.55
347.643	72.7
347.855	-11.26
348.067	128
348.279	21.5
348.491	21.5
348.703	15.36
348.915	-15.36
349.127	5.12
349.339	56.32
349.551	-19.46
349.763	9.22
349.975	23.55
350.187	78.85
350.399	89.09
350.61	33.79
350.822	-78.85
351.034	5.12
351.246	44.03
351.458	1.02
351.669	33.79
351.881	148.48
352.093	50.18
352.305	64.51
352.517	17.41
352.728	62.46
352.94	35.84
353.152	5.12
353.363	15.36
353.575	46.08
353.787	35.84
353.999	140.29
354.21	117.76
354.422	-11.26
354.633	29.7
354.845	9.22
355.057	56.32
355.268	-1.02
355.48	29.7
355.692	-70.65
355.903	9.22
356.115	-27.65
356.326	-66.56
356.538	107.52
356.749	37.89
356.961	46.08
357.172	-7.17
357.384	-17.41
357.595	171.01
357.807	-52.22
358.018	25.6
358.23	-19.46
358.441	175.1
358.653	21.5
358.864	23.55
359.075	84.99
359.287	52.22
359.498	95.23
359.709	46.08
359.921	-31.74
360.132	89.09
360.344	13.31
360.555	52.22
360.766	35.84
360.977	-25.6
361.189	39.94
361.4	17.41
361.611	82.94
361.823	70.65
362.034	19.46
362.245	27.65
362.456	-33.79
362.667	-33.79
362.879	-13.31
363.09	7.17
363.301	9.22
363.512	46.08
363.723	-15.36
363.935	-52.22
364.146	50.18
364.357	-44.03
364.568	35.84
364.779	13.31
364.99	35.84
365.201	-19.46
365.412	80.89
365.623	-25.6
365.834	-11.26
366.045	-25.6
366.256	66.56
366.467	-44.03
366.678	-46.08
366.889	60.42
367.1	-1.02
367.311	72.7
367.522	3.07
367.733	99.33
367.944	37.89
368.155	-1.02
368.366	84.99
368.577	91.13
368.788	158.72
368.999	-52.22
369.209	-21.5
369.42	136.19
369.631	164.86
369.842	82.94
370.053	84.99
370.264	48.13
370.474	-58.37
370.685	-3.07
370.896	-70.65
371.107	70.65
371.317	35.84
371.528	-44.03
371.739	99.33
371.95	99.33
372.16	62.46
372.371	-15.36
372.582	-27.65
372.792	78.85
373.003	7.17
373.214	58.37
373.424	25.6
373.635	-21.5
373.846	72.7
374.056	-58.37
374.267	11.26
374.477	130.05
374.688	5.12
374.898	70.65
375.109	70.65
375.319	-1.02
375.53	82.94
375.74	7.17
375.951	25.6
376.161	-11.26
376.372	13.31
376.582	-33.79
376.793	109.57
377.003	3.07
377.214	5.12
377.424	-13.31
377.635	62.46
377.845	-25.6
378.055	87.04
378.266	-11.26
378.476	39.94
378.686	93.18
378.897	23.55
379.107	19.46
379.317	25.6
379.528	23.55
379.738	31.74
379.948	-91.13
380.158	64.51
380.369	25.6
380.579	-39.94
380.789	33.79
380.999	78.85
381.21	93.18
381.42	125.95
381.63	48.13
381.84	25.6
382.05	105.47
382.261	125.95
382.471	97.28
382.681	41.98
382.891	95.23
383.101	70.65
383.311	-19.46
383.521	89.09
383.731	44.03
383.941	37.89
384.151	-5.12
384.361	-23.55
384.571	37.89
384.781	48.13
384.991	103.42
385.201	125.95
385.411	105.47
385.621	52.22
385.831	95.23
386.041	78.85
386.251	29.7
386.461	99.33
386.671	39.94
386.881	27.65
387.091	31.74
387.301	33.79
387.511	11.26
387.72	60.42
387.93	82.94
388.14	-5.12
388.35	23.55
388.56	113.66
388.769	27.65
388.979	62.46
389.189	-9.22
389.399	1.02
389.609	101.37
389.818	101.37
390.028	41.98
390.238	136.19
390.447	41.98
390.657	84.99
390.867	3.07
391.076	-25.6
391.286	7.17
391.496	37.89
391.705	78.85
391.915	68.61
392.125	101.37
392.334	-5.12
392.544	119.81
392.753	54.27
392.963	3.07
393.172	-54.27
393.382	-15.36
393.591	115.71
393.801	35.84
394.01	119.81
394.22	68.61
394.429	70.65
394.639	87.04
394.848	97.28
395.058	41.98
395.267	21.5
395.477	46.08
395.686	7.17
395.895	185.34
396.105	119.81
396.314	72.7
396.524	72.7
396.733	64.51
396.942	66.56
397.152	134.14
397.361	52.22
397.57	1.02
397.78	46.08
397.989	97.28
398.198	121.85
398.407	27.65
398.617	105.47
398.826	70.65
399.035	91.13
399.244	95.23
399.453	150.53
399.663	74.75
399.872	5.12
400.081	52.22
400.29	158.72
400.499	-19.46
400.708	87.04
400.917	44.03
401.127	84.99
401.336	68.61
401.545	166.91
401.754	121.85
401.963	27.65
402.172	99.33
402.381	5.12
402.59	48.13
402.799	50.18
403.008	99.33
403.217	117.76
403.426	66.56
403.635	31.74
403.844	107.52
404.053	80.89
404.262	62.46
404.471	66.56
404.68	68.61
404.888	11.26
405.097	128
405.306	101.37
405.515	58.37
405.724	48.13
405.933	109.57
406.142	109.57
406.35	66.56
406.559	113.66
406.768	128
406.977	168.96
407.185	181.25
407.394	220.16
407.603	31.74
407.812	138.24
408.02	232.44
408.229	168.96
408.438	140.29
408.646	146.43
408.855	117.76
409.064	168.96
409.272	130.05
409.481	150.53
409.69	136.19
409.898	140.29
410.107	177.15
410.315	207.87
410.524	111.61
410.733	181.25
410.941	201.72
411.15	218.11
411.358	291.84
411.567	287.74
411.775	250.88
411.984	285.69
412.192	338.94
412.401	254.97
412.609	312.32
412.818	373.75
413.026	250.88
413.234	244.73
413.443	302.08
413.651	338.94
413.86	297.98
414.068	365.56
414.276	435.19
414.485	293.88
414.693	488.44
414.901	439.29
415.11	408.57
415.318	406.52
415.526	398.33
415.734	478.2
415.943	502.78
416.151	547.83
416.359	404.47
416.567	467.96
416.776	549.88
416.984	543.74
417.192	680.95
417.4	521.21
417.608	545.78
417.817	590.84
418.025	584.7
418.233	754.68
418.441	666.61
418.649	676.85
418.857	730.1
419.065	752.63
419.273	750.58
419.481	832.5
419.689	822.26
419.897	883.7
420.105	846.84
420.313	941.04
420.521	961.52
420.729	912.37
420.937	951.28
421.145	975.86
421.353	1053.68
421.561	1197.04
421.769	1139.69
421.977	1252.33
422.185	1240.05
422.393	1272.81
422.601	1258.48
422.809	1321.96
423.017	1385.45
423.224	1469.42
423.432	1563.62
423.64	1461.23
423.848	1487.85
424.056	1500.14
424.263	1674.21
424.471	1633.26
424.679	1723.37
424.887	1805.28
425.094	1850.34
425.302	1905.63
425.51	1907.68
425.718	1950.69
425.925	1903.59
426.133	2046.94
426.341	2223.07
426.548	2296.8
426.756	2241.5
426.964	2257.89
427.171	2280.41
427.379	2575.32
427.586	2491.35
427.794	2573.27
428.001	2755.54
428.209	2720.73
428.417	2757.59
428.624	3007.44
428.832	3003.35
429.039	3081.17
429.247	2927.57
429.454	3234.77
429.662	3580.87
429.869	3367.88
430.076	3384.27
430.284	3390.41
430.491	3529.67
430.699	3804.1
430.906	3746.76
431.114	3757
431.321	3834.82
431.528	4006.85
431.736	4203.46
431.943	4361.15
432.15	4178.88
432.358	4383.68
432.565	4633.53
432.772	4441.02
432.979	4660.15
433.187	4719.54
433.394	4805.56
433.601	5063.6
433.808	5284.78
434.016	5157.81
434.223	5311.41
434.43	5761.96
434.637	5608.36
434.844	6056.87
435.052	6091.68
435.259	6042.53
435.466	6011.81
435.673	6134.69
435.88	6554.52
436.087	6648.73
436.294	6632.35
436.501	6605.72
436.708	6652.83
436.915	6837.14
437.122	7435.15
437.329	7240.59
437.537	7447.44
437.743	7441.29
437.95	7512.97
438.157	7953.29
438.364	8035.21
438.571	8076.16
438.778	8209.28
438.985	8778.62
439.192	8614.78
439.399	8919.93
439.606	8522.62
439.813	9110.39
440.02	9698.16
440.227	9554.8
440.433	9436.02
440.64	9485.17
440.847	9782.12
441.054	9892.71
441.261	10460
441.467	10447.71
441.674	10900.31
441.881	11033.43
442.088	10849.11
442.294	11031.38
442.501	11115.35
442.708	11387.73
442.914	11821.9
443.121	12501.83
443.328	11877.19
443.534	12942.14
443.741	12286.79
443.948	12172.1
444.154	12933.95
444.361	13005.63
444.568	13099.83
444.774	13366.07
444.981	13280.05
445.187	13671.22
445.394	14377.76
445.6	14125.86
445.807	15536.91
446.013	14705.44
446.22	15094.55
446.426	15713.04
446.633	15774.48
446.839	16452.36
447.046	15604.5
447.252	16780.03
447.459	16507.65
447.665	16474.88
447.871	17277.69
448.078	18297.58
448.284	17105.66
448.491	17515.25
448.697	18322.15
448.903	18557.67
449.11	18373.35
449.316	18193.13
449.522	18563.81
449.728	19141.34
449.935	19159.77
450.141	19077.85
450.347	19960.53
450.553	19210.97
450.76	19223.26
450.966	20030.16
451.172	19546.84
451.378	20298.44
451.584	19815.12
451.791	20202.19
451.997	20396.74
452.203	20730.56
452.409	20660.93
452.615	20556.49
452.821	19729.11
453.027	19407.58
453.233	20474.57
453.44	19614.42
453.646	19931.86
453.852	20120.27
454.058	20431.56
454.264	19710.68
454.47	20097.74
454.676	19673.81
454.882	20615.88
455.088	18922.21
455.294	18780.9
455.5	19122.91
455.705	19215.07
455.911	18549.48
456.117	18252.52
456.323	17974
456.529	17007.36
456.735	17828.59
456.941	17484.53
457.147	17146.62
457.352	16691.97
457.558	16118.54
457.764	16532.23
457.97	15874.83
458.176	15782.67
458.381	15596.31
458.587	15039.26
458.793	15035.16
458.999	14007.08
459.204	15018.78
459.41	14627.62
459.616	13798.19
459.821	14041.9
460.027	13587.25
460.233	13683.5
460.438	12620.61
460.644	12917.56
460.85	12223.3
461.055	12143.43
461.261	12055.37
461.466	11035.48
461.672	10826.59
461.878	11533.14
462.083	11002.71
462.289	10732.38
462.494	10513.25
462.7	10169.19
462.905	9888.62
463.111	10292.07
463.316	10492.77
463.522	9861.99
463.727	9706.35
463.932	9786.22
464.138	9780.07
464.343	9900.9
464.549	9646.96
464.754	9833.32
464.959	9782.12
465.165	9673.58
465.37	9220.98
465.575	8962.94
465.781	9337.71
465.986	9446.26
466.191	9202.55
466.397	8848.25
466.602	8469.37
466.807	8686.46
467.012	8995.7
467.218	8868.73
467.423	8635.26
467.628	8772.47
467.833	9073.53
468.038	8921.98
468.244	8409.98
468.449	8625.02
468.654	8528.77
468.859	8321.92
469.064	8377.22
469.269	8223.62
469.474	8371.07
469.679	8416.13
469.885	8164.23
470.09	8104.84
470.295	7922.57
470.5	8043.4
470.705	8096.64
470.91	7850.89
471.115	7775.11
471.32	7738.25
471.525	7715.72
471.73	7824.26
471.935	7519.12
472.139	7371.66
472.344	7504.78
472.549	7492.49
472.754	7437.2
472.959	7064.47
473.164	6904.73
473.369	6888.34
473.574	7170.96
473.778	7066.52
473.983	7082.9
474.188	7000.98
474.393	6587.29
474.598	6763.42
474.802	6527.9
475.007	6787.99
475.212	6646.68
475.417	6341.54
475.621	6366.11
475.826	6392.73
476.031	6243.23
476.235	6208.42
476.44	6243.23
476.645	6093.73
476.849	5946.28
477.054	6118.31
477.259	5954.47
477.463	6091.68
477.668	5872.55
477.872	5915.56
478.077	5872.55
478.282	5616.55
478.486	5587.88
478.691	5520.3
478.895	5557.16
479.1	5403.57
479.304	5632.94
479.509	5434.29
479.713	5471.15
479.918	5569.45
480.122	5303.22
480.326	5309.36
480.531	5327.79
480.735	5168.05
480.94	5256.11
481.144	5512.11
481.348	5211.06
481.553	5194.67
481.757	4955.06
481.961	5141.43
482.166	5020.6
482.37	5188.53
482.574	5045.17
482.778	5061.55
482.983	5071.79
483.187	5290.93
483.391	5215.15
483.595	5065.65
483.8	5045.17
484.004	5127.09
484.208	5174.19
484.412	5137.33
484.616	5157.81
484.821	5116.85
485.025	5000.12
485.229	5034.93
485.433	5051.31
485.637	4912.05
485.841	5030.84
486.045	5008.31
486.249	5135.28
486.453	5006.26
486.657	5098.42
486.861	5010.36
487.065	4996.02
487.269	5049.27
487.473	4973.49
487.677	4971.44
487.881	5102.51
488.085	5096.37
488.289	5110.71
488.493	4873.14
488.697	5098.42
488.901	5168.05
489.105	5024.69
489.309	5039.03
489.512	5206.96
489.716	5163.95
489.92	5125.04
490.124	5100.47
490.328	5190.58
490.531	5182.38
490.735	5262.26
490.939	5254.06
491.143	5270.45
491.346	5180.34
491.55	5335.98
491.754	5268.4
491.958	5417.9
492.161	5325.74
492.365	5458.86
492.569	5317.55
492.772	5401.52
492.976	5413.81
493.18	5424.05
493.383	5448.62
493.587	5301.17
493.79	5600.17
493.994	5348.27
494.197	5442.48
494.401	5692.33
494.605	5288.88
494.808	5729.19
495.012	5790.63
495.215	5532.59
495.419	5850.02
495.622	5768.1
495.825	5772.2
496.029	5753.77
496.232	5938.09
496.436	6058.92
496.639	6058.92
496.843	5991.33
497.046	6167.46
497.249	6230.94
497.453	6138.79
497.656	6101.92
497.859	6282.14
498.063	6407.07
498.266	6595.48
498.469	6376.35
498.673	6589.34
498.876	6642.59
499.079	6759.32
499.282	6810.52
499.485	6906.77
499.689	6849.43
499.892	6849.43
500.095	7060.37
500.298	7039.89
500.501	7072.66
500.705	7439.25
500.908	7453.58
501.111	7437.2
501.314	7474.06
501.517	7672.71
501.72	7736.2
501.923	7547.79
502.126	7719.82
502.329	7764.87
502.532	7969.67
502.735	8063.88
502.938	8264.58
503.141	8301.44
503.344	8285.06
503.547	8455.04
503.75	8500.09
503.953	8586.11
504.156	8614.78
504.359	8895.35
504.562	8754.04
504.765	8921.98
504.968	9159.54
505.17	9091.96
505.373	9210.74
505.576	9306.99
505.779	9405.3
505.982	9569.13
506.185	9663.34
506.387	9505.65
506.59	9757.55
506.793	9876.33
506.996	9939.82
507.198	10136.42
507.401	10175.33
507.604	10304.35
507.807	10519.39
508.009	10433.38
508.212	10576.73
508.415	10847.07
508.617	10595.17
508.82	10775.39
509.022	10742.62
509.225	10941.27
509.428	11293.52
509.63	11223.89
509.833	11203.41
510.035	11754.32
510.238	11314
510.44	11418.45
510.643	11813.71
510.845	11838.28
511.048	11613.01
511.25	11776.84
511.453	11856.72
511.655	12333.89
511.858	12182.34
512.06	12372.8
512.262	12659.52
512.465	12598.08
512.667	12874.56
512.87	12710.72
513.072	12989.24
513.274	13079.35
513.477	13271.86
513.679	13435.7
513.881	13423.41
514.084	13472.56
514.286	13534
514.488	13644.59
514.69	14207.78
514.893	14062.38
515.095	13734.7
515.297	14023.47
515.499	14144.3
515.701	14265.13
515.904	14369.57
516.106	14756.64
516.308	14572.32
516.51	14752.54
516.712	14881.56
516.914	15014.68
517.116	15289.11
517.318	15219.48
517.52	15371.03
517.722	15508.24
517.925	15694.61
518.127	15926.03
518.329	15803.15
518.531	15555.35
518.733	16087.82
518.935	16179.98
519.136	16212.74
519.338	16321.29
519.54	16464.64
519.742	16485.12
519.944	16630.53
520.146	16804.61
520.348	16968.45
520.55	16843.52
520.752	16618.24
520.954	17130.23
521.155	17048.32
521.357	17337.08
521.559	17439.48
521.761	17654.51
521.963	17400.57
522.164	17711.86
522.366	17767.15
522.568	17937.13
522.77	17828.59
522.971	18139.88
523.173	17922.8
523.375	18191.08
523.576	18000.62
523.778	18199.27
523.98	18565.86
524.181	18477.8
524.383	18330.34
524.584	18641.64
524.786	18604.77
524.988	18445.03
525.189	18651.88
525.391	18580.2
525.592	18807.52
525.794	18514.66
525.995	18840.29
526.197	18965.21
526.398	19174.11
526.6	19040.99
526.801	19159.77
527.003	18879.2
527.204	19124.96
527.406	19675.86
527.607	19122.91
527.808	19399.38
528.01	19264.22
528.211	19483.35
528.412	19563.22
528.614	19677.91
528.815	19483.35
529.016	19866.32
529.218	19632.85
529.419	19483.35
529.62	19233.5
529.822	19528.41
530.023	19221.21
530.224	19495.64
530.425	19661.52
530.626	19540.69
530.828	19282.65
531.029	19679.96
531.23	19823.31
531.431	19436.25
531.632	19722.96
531.833	19739.35
532.035	19749.59
532.236	19851.99
532.437	19811.03
532.638	19802.83
532.839	19682
533.04	19843.79
533.241	19657.43
533.442	20017.87
533.643	19792.59
533.844	19604.18
534.045	19645.14
534.246	19479.25
534.447	19544.79
534.648	19534.55
534.849	19731.15
535.05	19688.15
535.251	19659.48
535.451	19481.3
535.652	19823.31
535.853	19569.37
536.054	19645.14
536.255	19829.46
536.456	19403.48
536.657	19935.95
536.857	19532.5
537.058	19663.57
537.259	19532.5
537.46	19862.22
537.66	19753.68
537.861	19423.96
538.062	19389.14
538.263	19626.71
538.463	19639
538.664	19677.91
538.865	19569.37
539.065	19829.46
539.266	19319.51
539.466	19854.03
539.667	19196.64
539.868	19772.11
540.068	19565.27
540.269	19595.99
540.469	19368.66
540.67	19565.27
540.87	19806.93
541.071	19286.75
541.271	19821.27
541.472	19444.44
541.672	19266.27
541.873	19374.81
542.073	19184.35
542.274	19481.3
542.474	19208.92
542.675	19266.27
542.875	19600.08
543.075	19002.08
543.276	19256.03
543.476	19485.4
543.676	19270.36
543.877	19290.84
544.077	19292.89
544.277	19354.33
544.478	18995.93
544.678	19428.06
544.878	19344.09
545.078	19071.71
545.279	19096.28
545.479	19225.31
545.679	19550.93
545.879	19190.49
546.079	19258.07
546.28	19415.77
546.48	19208.92
546.68	19374.81
546.88	19344.09
547.08	19231.45
547.28	19030.75
547.48	19075.8
547.68	19444.44
547.88	19077.85
548.081	19317.47
548.281	19075.8
548.481	18881.25
548.681	19440.34
548.881	18866.91
549.081	19114.72
549.28	19315.42
549.48	19032.8
549.68	18899.68
549.88	19419.86
550.08	18770.66
550.28	19069.66
550.48	19120.86
550.68	19219.16
550.88	18930.4
551.08	19241.69
551.279	19213.02
551.479	18651.88
551.679	18942.69
551.879	18969.31
552.079	18983.65
552.278	18703.07
552.478	19303.13
552.678	19196.64
552.878	19098.33
553.077	18997.98
553.277	18676.45
553.477	19030.75
553.676	19141.34
553.876	19235.55
554.076	18680.55
554.275	18680.55
554.475	18864.86
554.674	19180.25
554.874	18959.07
555.074	18811.62
555.273	18985.69
555.473	19110.62
555.672	18680.55
555.872	18883.3
556.071	19102.43
556.271	18897.63
556.47	18793.19
556.67	18787.04
556.869	18883.3
557.068	19040.99
557.268	18725.6
557.467	18715.36
557.667	18905.82
557.866	18752.23
558.065	18838.24
558.265	18744.03
558.464	18756.32
558.663	18877.15
558.863	18518.76
559.062	18877.15
559.261	18852.58
559.461	18690.79
559.66	18457.32
559.859	18375.4
560.058	18741.99
560.258	18580.2
560.457	18545.38
560.656	18735.84
560.855	18701.03
561.054	18643.68
561.253	18651.88
561.453	18582.24
561.652	18682.59
561.851	18612.96
562.05	18420.45
562.249	18551.52
562.448	18676.45
562.647	18516.71
562.846	18580.2
563.045	18723.55
563.244	18442.98
563.443	18469.61
563.642	18262.76
563.841	18516.71
564.04	18672.36
564.239	18535.14
564.438	18334.44
564.637	18379.5
564.836	18447.08
565.035	18363.11
565.234	18418.41
565.432	18465.51
565.631	18430.69
565.83	18270.95
566.029	18143.98
566.228	18223.85
566.427	18363.11
566.625	18080.49
566.824	18273
567.023	18281.19
567.222	18260.71
567.42	18238.19
567.619	18135.79
567.818	18387.69
568.016	17965.81
568.215	18549.48
568.414	18166.51
568.612	18223.85
568.811	18092.78
569.01	18092.78
569.208	17894.13
569.407	18254.57
569.605	17844.98
569.804	17937.13
570.002	17988.33
570.201	18146.03
570.4	17928.94
570.598	17744.63
570.797	17795.82
570.995	18184.94
571.193	17640.18
571.392	17967.85
571.59	17849.07
571.789	18010.86
571.987	17820.4
572.186	17787.63
572.384	17502.96
572.582	17668.85
572.781	18107.12
572.979	17838.83
573.177	17752.82
573.376	17953.52
573.574	17705.71
573.772	17662.71
573.971	17423.09
574.169	17642.23
574.367	17455.86
574.565	17728.24
574.763	17631.99
574.962	17496.82
575.16	17337.08
575.358	17316.6
575.556	17326.84
575.754	17621.75
575.952	17343.22
576.151	17462.01
576.349	17277.69
576.547	17273.59
576.745	17421.05
576.943	17249.02
577.141	17435.38
577.339	17410.81
577.537	17474.29
577.735	17416.95
577.933	16847.61
578.131	17165.05
578.329	17216.25
578.527	17031.93
578.725	17007.36
578.923	17269.5
579.121	17066.75
579.319	16997.12
579.516	17187.58
579.714	17226.49
579.912	16820.99
580.11	16925.44
580.308	16954.11
580.506	16900.86
580.704	16708.35
580.901	16651.01
581.099	17003.26
581.297	17003.26
581.495	16730.88
581.692	16560.9
581.89	16677.63
582.088	16800.51
582.285	16530.18
582.483	16638.72
582.681	16851.71
582.878	16476.93
583.076	16384.77
583.274	16458.5
583.471	16253.7
583.669	16655.11
583.866	16323.33
584.064	16440.07
584.262	16075.53
584.459	16583.43
584.657	16222.98
584.854	16358.15
585.052	15833.87
585.249	16014.09
585.447	16309
585.644	16071.43
585.841	16212.74
586.039	16433.93
586.236	16032.52
586.434	16237.32
586.631	16106.25
586.828	16274.18
587.026	16091.91
587.223	15704.85
587.42	15739.66
587.618	15899.41
587.815	15545.11
588.012	15610.64
588.21	15692.56
588.407	15919.89
588.604	15678.22
588.801	15643.41
588.999	15512.34
589.196	15665.94
589.393	15672.08
589.59	15500.05
589.787	15334.17
589.984	15442.71
590.182	15360.79
590.379	15442.71
590.576	15270.68
590.773	15538.96
590.97	15194.9
591.167	15356.69
591.364	15221.53
591.561	15268.63
591.758	15252.25
591.955	15098.65
592.152	15512.34
592.349	15039.26
592.546	14961.44
592.743	15129.37
592.94	14904.09
593.137	15031.07
593.334	15244.06
593.531	14773.02
593.727	14943
593.924	15004.44
594.121	14775.07
594.318	14799.65
594.515	14680.86
594.712	15041.31
594.908	14801.69
595.105	14658.34
595.302	14560.03
595.499	14951.2
595.696	14998.3
595.892	14682.91
596.089	14553.89
596.286	14588.71
596.482	14562.08
596.679	14713.63
596.876	14570.27
597.072	14471.97
597.269	14592.8
597.466	14297.89
597.662	14183.21
597.859	14279.46
598.055	14388
598.252	14453.54
598.448	14240.55
598.645	14474.02
598.841	14158.63
599.038	14293.8
599.234	14408.48
599.431	14035.75
599.627	14164.78
599.824	14248.74
600.02	14033.71
600.217	14115.62
600.413	13816.62
600.609	14031.66
600.806	14295.85
601.002	13976.36
601.198	13880.11
601.395	13898.54
601.591	13865.77
601.787	13679.41
601.984	13859.63
602.18	14039.85
602.376	13785.9
602.572	13812.53
602.769	13808.43
602.965	13603.63
603.161	13800.24
603.357	13564.72
603.553	13693.74
603.75	13597.49
603.946	13343.54
604.142	13488.95
604.338	13251.38
604.534	13359.92
604.73	13329.2
604.926	13445.94
605.122	13452.08
605.318	13298.49
605.514	13452.08
605.71	13163.32
605.906	13458.23
606.102	13429.56
606.298	13200.18
606.494	13189.94
606.69	13280.05
606.886	13308.72
607.082	13159.22
607.278	13327.16
607.474	12919.61
607.67	13132.6
607.866	12852.03
608.062	13218.61
608.257	13116.22
608.453	12849.98
608.649	13116.22
608.845	13011.77
609.041	12610.37
609.236	13054.78
609.432	12860.22
609.628	13001.53
609.824	12940.09
610.019	12593.98
610.215	12684.09
610.411	12985.15
610.606	12583.74
610.802	12669.76
610.998	12577.6
611.193	12942.14
611.389	12485.44
611.584	12557.12
611.78	12698.43
611.976	12696.38
612.171	12634.94
612.367	12557.12
612.562	12514.11
612.758	12548.93
612.953	12407.62
613.149	12892.99
613.344	12366.66
613.539	12598.08
613.735	12221.25
613.93	12249.93
614.126	12393.28
614.321	12622.66
614.517	12434.24
614.712	12374.85
614.907	12401.47
615.103	12557.12
615.298	12337.99
615.493	12483.39
615.688	12215.11
615.884	12415.81
616.079	12182.34
616.274	12337.99
616.47	12381
616.665	12254.02
616.86	12303.17
617.055	12219.21
617.25	12168.01
617.445	12131.14
617.641	12090.18
617.836	12075.85
618.031	12032.84
618.226	12262.21
618.421	11952.97
618.616	12081.99
618.811	11762.51
619.006	11928.39
619.201	11905.87
619.396	11815.76
619.591	11567.95
619.786	11866.95
619.981	11598.67
620.176	11803.47
620.371	11668.3
620.566	11858.76
620.761	11758.41
620.956	11256.66
621.151	11264.85
621.346	11381.59
621.541	11139.93
621.735	11746.12
621.93	11137.88
622.125	11301.72
622.32	10939.23
622.515	11121.49
622.709	11144.02
622.904	11139.93
623.099	11137.88
623.294	11027.29
623.488	10906.46
623.683	10752.86
623.878	10629.98
624.072	10871.64
624.267	10593.12
624.462	10853.21
624.656	10519.39
624.851	10619.74
625.046	10455.9
625.24	10546.02
625.435	10322.79
625.629	10298.21
625.824	10330.98
626.018	10290.02
626.213	10259.3
626.407	10345.31
626.602	10111.85
626.796	10111.85
626.991	10154.85
627.185	9886.57
627.38	9843.56
627.574	9907.05
627.768	9784.17
627.963	9741.16
628.157	9644.91
628.352	9644.91
628.546	9507.69
628.74	9585.52
628.935	9306.99
629.129	9409.39
629.323	9268.08
629.517	9368.43
629.712	9415.54
629.906	9421.68
630.1	9180.02
630.294	9360.24
630.489	9233.27
630.683	9278.32
630.877	8993.65
631.071	8985.46
631.265	9061.24
631.459	8905.59
631.653	8665.98
631.848	8917.88
632.042	8815.48
632.236	8739.71
632.43	8883.06
632.624	8764.28
632.818	8749.95
633.012	8547.2
633.206	8604.54
633.4	8508.29
633.594	8328.06
633.788	8561.53
633.982	8604.54
634.176	8188.8
634.369	8373.12
634.563	8336.26
634.757	8299.39
634.951	8256.39
635.145	8205.19
635.339	8123.27
635.533	8274.82
635.726	8172.42
635.92	7951.24
636.114	8141.7
636.308	7721.87
636.501	8002.44
636.695	7762.83
636.889	7787.4
637.083	7826.31
637.276	7809.93
637.47	7615.37
637.664	7791.5
637.857	7744.39
638.051	7553.93
638.244	7539.6
638.438	7590.8
638.632	7529.36
638.825	7338.9
639.019	7435.15
639.212	7455.63
639.406	7424.91
639.599	7265.17
639.793	7424.91
639.986	7041.94
640.18	7248.79
640.373	7138.2
640.567	7103.38
640.76	7076.76
640.954	6892.44
641.147	6939.54
641.34	6951.83
641.534	6736.79
641.727	6863.77
641.92	6843.29
642.114	6720.41
642.307	6673.31
642.5	6695.83
642.694	6550.43
642.887	6599.58
643.08	6681.5
643.273	6523.8
643.467	6572.96
643.66	6497.18
643.853	6376.35
644.046	6382.49
644.239	6331.3
644.432	6269.86
644.626	6212.51
644.819	6185.89
645.012	6243.23
645.205	6196.13
645.398	6134.69
645.591	6155.17
645.784	5933.99
645.977	6032.29
646.17	5897.13
646.363	6011.81
646.556	5827.5
646.749	5970.85
646.942	6034.34
647.135	5979.04
647.328	5841.83
647.521	5862.31
647.714	5825.45
647.907	5637.03
648.099	5596.07
648.292	5714.86
648.485	5487.53
648.678	5643.18
648.871	5585.83
649.064	5313.45
649.256	5606.31
649.449	5417.9
649.642	5505.96
649.835	5407.66
650.027	5469.1
650.22	5465
650.413	5209.01
650.605	5376.94
650.798	5354.41
650.991	5219.25
651.183	5276.59
651.376	5217.2
651.568	5180.34
651.761	5202.86
651.954	4993.97
652.146	5051.31
652.339	5049.27
652.531	4914.1
652.724	4953.01
652.916	4959.16
653.109	4809.65
653.301	5092.27
653.494	4965.3
653.686	4735.93
653.879	4860.85
654.071	4903.86
654.263	4678.58
654.456	4664.25
654.648	4873.14
654.84	4535.23
655.033	4641.72
655.225	4672.44
655.417	4651.96
655.61	4576.19
655.802	4635.58
655.994	4709.3
656.186	4471.74
656.379	4432.83
656.571	4338.62
656.763	4334.53
656.955	4350.91
657.148	4279.23
657.34	4375.49
657.532	4189.12
657.724	4135.87
657.916	4336.57
658.108	4273.09
658.3	4340.67
658.492	4271.04
658.684	4189.12
658.876	4123.59
659.068	4094.91
659.26	4135.87
659.452	4213.7
659.644	4135.87
659.836	4037.57
660.028	4060.1
660.22	3988.42
660.412	3959.75
660.604	4019.14
660.796	3984.32
660.988	4045.76
661.18	4021.19
661.372	3996.61
661.563	3894.21
661.755	3892.16
661.947	3750.85
662.139	3681.22
662.331	3783.62
662.522	3757
662.714	3791.81
662.906	3734.47
663.097	3736.52
663.289	3744.71
663.481	3599.31
663.673	3634.12
663.864	3644.36
664.056	3673.03
664.247	3552.2
664.439	3664.84
664.631	3640.26
664.822	3462.09
665.014	3607.5
665.205	3576.78
665.397	3431.37
665.588	3425.23
665.78	3458
665.971	3447.76
666.163	3550.15
666.354	3417.04
666.546	3423.18
666.737	3365.84
666.929	3349.45
667.12	3392.46
667.311	3363.79
667.503	3382.22
667.694	3357.64
667.885	3310.54
668.077	3302.35
668.268	3290.06
668.459	3277.77
668.651	3277.77
668.842	3234.77
669.033	3335.12
669.224	3310.54
669.416	3361.74
669.607	3259.34
669.798	3062.74
669.989	3279.82
670.18	3228.62
670.371	3222.48
670.563	3187.66
670.754	3294.16
670.945	3120.08
671.136	3210.19
671.327	3171.28
671.518	3140.56
671.709	3138.51
671.9	3226.57
672.091	3062.74
672.282	3056.59
672.473	3089.36
672.664	2946
672.855	3118.03
673.046	3077.07
673.237	3142.61
673.428	3183.57
673.619	3091.41
673.809	2972.63
674	3068.88
674.191	3003.35
674.382	3007.44
674.573	3032.02
674.764	3025.87
674.954	3197.9
675.145	2911.19
675.336	3005.39
675.527	2923.48
675.717	3050.45
675.908	2978.77
676.099	3042.26
676.289	3068.88
676.48	2995.15
676.671	3060.69
676.861	2903
677.052	3021.78
677.243	2784.21
677.433	3001.3
677.624	3064.79
677.814	3179.47
678.005	2991.06
678.195	3077.07
678.386	3015.63
678.576	2999.25
678.767	2966.48
678.957	3044.31
679.148	3019.73
679.338	3009.49
679.529	2931.67
679.719	2972.63
679.909	3017.68
680.1	3101.65
680.29	2972.63
680.481	2968.53
680.671	2958.29
680.861	3003.35
681.052	2952.15
681.242	2882.52
681.432	3034.07
681.622	2933.72
681.813	2866.13
682.003	3077.07
682.193	3003.35
682.383	3093.46
682.573	2982.87
682.764	2769.88
682.954	2905.04
683.144	2982.87
683.334	2999.25
683.524	3036.11
683.714	2974.67
683.904	2915.28
684.094	2841.56
684.284	2859.99
684.474	2962.39
684.664	2950.1
684.854	3040.21
685.044	3025.87
685.234	2862.04
685.424	2954.19
685.614	2948.05
685.804	2907.09
685.994	2958.29
686.184	2964.43
686.374	2882.52
686.564	2812.89
686.753	2870.23
686.943	2823.12
687.133	2876.37
687.323	2726.87
687.513	2921.43
687.702	2855.89
687.892	2812.89
688.082	2720.73
688.272	2876.37
688.461	2845.65
688.651	2923.48
688.841	2677.72
689.03	2737.11
689.22	2683.86
689.41	2706.39
689.599	2667.48
689.789	2644.95
689.979	2788.31
690.168	2733.01
690.358	2784.21
690.547	2714.58
690.737	2620.38
690.926	2556.89
691.116	2671.58
691.305	2692.05
691.495	2663.38
691.684	2706.39
691.874	2567.13
692.063	2517.98
692.252	2597.85
692.442	2685.91
692.631	2563.03
692.82	2546.65
693.01	2608.09
693.199	2552.79
693.388	2622.42
693.578	2538.46
693.767	2507.74
693.956	2548.7
694.146	2614.23
694.335	2438.11
694.524	2638.81
694.713	2479.07
694.902	2577.37
695.092	2397.15
695.281	2567.13
695.47	2618.33
695.659	2546.65
695.848	2462.68
696.037	2552.79
696.226	2554.84
696.415	2495.45
696.604	2636.76
696.793	2507.74
696.982	2477.02
697.171	2685.91
697.36	2503.64
697.549	2612.18
697.738	2505.69
697.927	2591.7
698.116	2544.6
698.305	2536.41
698.494	2601.94
698.683	2628.57
698.872	2661.34
699.061	2550.75
699.25	2683.86
699.438	2651.1
699.627	2591.7
699.816	2487.26
700.005	2552.79
700.193	2509.79
700.382	2630.62
700.571	2673.62
700.76	2661.34
700.948	2538.46
701.137	2579.42
701.326	2610.14
701.514	2544.6
701.703	2706.39
701.892	2585.56
702.08	2771.93
702.269	2595.8
702.457	2534.36
702.646	2659.29
702.834	2659.29
703.023	2720.73
703.212	2563.03
703.4	2618.33
703.589	2630.62
703.777	2614.23
703.965	2741.21
704.154	2722.77
704.342	2636.76
704.531	2647
704.719	2677.72
704.907	2780.12
705.096	2593.75
705.284	2663.38
705.472	2763.73
705.661	2636.76
705.849	2831.32
706.037	2829.27
706.226	2798.55
706.414	2864.08
706.602	2683.86
706.79	2679.77
706.979	2651.1
707.167	2632.66
707.355	2722.77
707.543	2816.98
707.731	2819.03
707.919	2657.24
708.107	2763.73
708.296	2651.1
708.484	2788.31
708.672	2763.73
708.86	2837.46
709.048	2892.76
709.236	2712.53
709.424	2874.32
709.612	2919.38
709.8	2804.69
709.988	2851.8
710.176	2794.45
710.364	2819.03
710.551	2786.26
710.739	2755.54
710.927	2829.27
711.115	2798.55
711.303	2862.04
711.491	2804.69
711.679	2900.95
711.866	2876.37
712.054	2909.14
712.242	2823.12
712.43	2976.72
712.617	2753.49
712.805	2927.57
712.993	2790.36
713.181	2712.53
713.368	2927.57
713.556	2905.04
713.744	2806.74
713.931	3081.17
714.119	2857.94
714.306	2905.04
714.494	2843.6
714.682	2862.04
714.869	2712.53
715.057	2907.09
715.244	2855.89
715.432	2905.04
715.619	2929.62
715.807	2919.38
715.994	2853.84
716.182	2845.65
716.369	3072.98
716.556	2962.39
716.744	2796.5
716.931	2954.19
717.119	3054.55
717.306	2911.19
717.493	3091.41
717.681	2982.87
717.868	3001.3
718.055	2956.24
718.242	3001.3
718.43	2948.05
718.617	3027.92
718.804	2888.66
718.991	3056.59
719.179	3038.16
719.366	2982.87
719.553	2853.84
719.74	2882.52
719.927	2956.24
720.114	2989.01
720.301	2919.38
720.488	2917.33
720.676	2790.36
720.863	2978.77
721.05	3029.97
721.237	2937.81
721.424	3126.22
721.611	2970.58
721.798	2872.28
721.985	2921.43
722.172	2964.43
722.358	3007.44
722.545	3075.03
722.732	3027.92
722.919	2991.06
723.106	2946
723.293	2966.48
723.48	3013.59
723.667	2909.14
723.853	3175.38
724.04	2984.91
724.227	2884.56
724.414	2956.24
724.6	2986.96
724.787	2968.53
724.974	3107.79
725.161	3101.65
725.347	2997.2
725.534	3048.4
725.72	3038.16
725.907	2952.15
726.094	2966.48
726.28	2905.04
726.467	3005.39
726.653	2964.43
726.84	3070.93
727.027	3040.21
727.213	2823.12
727.4	2995.15
727.586	2923.48
727.773	3158.99
727.959	3009.49
728.145	2907.09
728.332	2827.22
728.518	3011.54
728.705	3023.83
728.891	2986.96
729.077	2991.06
729.264	2859.99
729.45	2972.63
729.636	2952.15
729.823	2876.37
730.009	3107.79
730.195	2892.76
730.382	3042.26
730.568	2835.41
730.754	3001.3
730.94	2931.67
731.126	3044.31
731.313	3079.12
731.499	2890.71
731.685	2929.62
731.871	2907.09
732.057	3052.5
732.243	2974.67
732.429	3023.83
732.615	2982.87
732.801	3023.83
732.987	2989.01
733.173	2837.46
733.359	2900.95
733.545	2903
733.731	2814.93
733.917	2831.32
734.103	2839.51
734.289	3009.49
734.475	2876.37
734.661	3177.42
734.847	2903
735.033	2806.74
735.219	2870.23
735.404	2765.78
735.59	3011.54
735.776	2749.4
735.962	2913.24
736.148	2862.04
736.333	2919.38
736.519	2851.8
736.705	2694.1
736.89	2831.32
737.076	2976.72
737.262	2716.63
737.447	2798.55
737.633	2882.52
737.819	2837.46
738.004	2900.95
738.19	2767.83
738.375	2819.03
738.561	2972.63
738.747	2794.45
738.932	2718.68
739.118	2874.32
739.303	2831.32
739.489	2769.88
739.674	2673.62
739.859	2638.81
740.045	2683.86
740.23	2747.35
740.416	2667.48
740.601	2712.53
740.786	2769.88
740.972	2653.14
741.157	2610.14
741.342	2601.94
741.528	2651.1
741.713	2667.48
741.898	2517.98
742.084	2706.39
742.269	2606.04
742.454	2692.05
742.639	2595.8
742.824	2579.42
743.01	2640.86
743.195	2548.7
743.38	2460.63
743.565	2585.56
743.75	2616.28
743.935	2630.62
744.12	2540.51
744.305	2421.72
744.49	2454.49
744.675	2444.25
744.86	2524.12
745.045	2405.34
745.23	2444.25
745.415	2548.7
745.6	2577.37
745.785	2421.72
745.97	2401.24
746.155	2411.48
746.34	2372.57
746.525	2444.25
746.71	2286.56
746.895	2366.43
747.079	2284.51
747.264	2309.08
747.449	2290.65
747.634	2368.48
747.819	2304.99
748.003	2352.09
748.188	2272.22
748.373	2247.65
748.557	2198.49
748.742	2175.97
748.927	2190.3
749.111	2204.64
749.296	2120.67
749.481	2180.06
749.665	2180.06
749.85	2102.24
750.034	2065.38
750.219	2094.05
750.404	2001.89
750.588	2202.59
750.773	2071.52
750.957	1979.36
751.141	2010.08
751.326	1913.83
751.51	2053.09
751.695	2014.18
751.879	1977.31
752.064	2096.1
752.248	1928.16
752.432	1868.77
752.617	1901.54
752.801	1881.06
752.985	1926.11
753.17	1885.16
753.354	1819.62
753.538	1850.34
753.722	1754.09
753.907	1672.17
754.091	1803.24
754.275	1942.5
754.459	1758.18
754.643	1743.85
754.828	1829.86
755.012	1780.71
755.196	1698.79
755.38	1735.65
755.564	1623.02
755.748	1741.8
755.932	1702.89
756.116	1643.49
756.3	1747.94
756.484	1641.45
756.668	1643.49
756.852	1608.68
757.036	1530.86
757.22	1639.4
757.404	1586.15
757.588	1588.2
757.772	1563.62
757.956	1655.78
758.14	1567.72
758.323	1510.38
758.507	1569.77
758.691	1498.09
758.875	1493.99
759.059	1580.01
759.242	1453.03
759.426	1453.03
759.61	1426.41
759.794	1444.84
759.977	1457.13
760.161	1502.19
760.345	1422.31
760.528	1436.65
760.712	1512.42
760.895	1440.75
761.079	1297.39
761.263	1434.6
761.446	1340.4
761.63	1395.69
761.813	1426.41
761.997	1256.43
762.18	1348.59
762.364	1315.82
762.547	1311.72
762.731	1272.81
762.914	1321.96
763.098	1287.15
763.281	1383.4
763.464	1274.86
763.648	1354.73
763.831	1278.96
764.015	1223.66
764.198	1301.48
764.381	1291.24
764.564	1346.54
764.748	1235.95
764.931	1315.82
765.114	1244.14
765.297	1223.66
765.481	1145.84
765.664	1223.66
765.847	1319.92
766.03	1266.67
766.213	1158.13
766.397	1201.13
766.58	1192.94
766.763	1233.9
766.946	1213.42
767.129	1203.18
767.312	1180.65
767.495	1092.59
767.678	1188.85
767.861	1211.37
768.044	1281
768.227	1227.76
768.41	1078.26
768.593	1137.65
768.776	1129.45
768.959	1190.89
769.142	1188.85
769.324	1035.25
769.507	1168.37
769.69	1104.88
769.873	961.52
770.056	1162.22
770.239	1133.55
770.421	1129.45
770.604	1141.74
770.787	1078.26
770.97	988.14
771.152	959.47
771.335	1061.87
771.518	965.62
771.7	1154.03
771.883	1141.74
772.066	1076.21
772.248	1025.01
772.431	1063.92
772.613	1033.2
772.796	1086.45
772.978	1047.54
773.161	1098.74
773.343	998.38
773.526	883.7
773.708	961.52
773.891	1020.91
774.073	936.95
774.256	930.8
774.438	1047.54
774.621	918.51
774.803	1029.1
774.985	934.9
775.168	961.52
775.35	855.03
775.532	877.55
775.715	959.47
775.897	918.51
776.079	967.67
776.261	967.67
776.444	877.55
776.626	936.95
776.808	994.29
776.99	918.51
777.173	873.46
777.355	881.65
777.537	887.79
777.719	842.74
777.901	797.68
778.083	836.6
778.265	711.67
778.447	828.4
778.629	822.26
778.811	805.88
778.993	875.51
779.175	781.3
779.357	734.2
779.539	713.72
779.721	852.98
779.903	848.88
780.085	762.87
780.267	785.4
780.449	781.3
780.631	791.54
780.812	773.11
780.994	750.58
781.176	779.25
781.358	697.33
781.54	680.95
781.721	742.39
781.903	742.39
782.085	705.53
782.267	707.57
782.448	633.85
782.63	658.42
782.812	627.7
782.993	642.04
783.175	631.8
783.357	613.37
783.538	709.62
783.72	715.77
783.901	637.94
784.083	699.38
784.264	627.7
784.446	633.85
784.627	576.5
784.809	672.76
784.99	578.55
785.172	654.33
785.353	537.59
785.535	728.05
785.716	543.74
785.897	560.12
786.079	623.61
786.26	498.68
786.441	549.88
786.623	498.68
786.804	517.11
786.985	496.63
787.167	535.54
787.348	535.54
787.529	564.22
787.71	625.65
787.891	547.83
788.073	445.43
788.254	386.04
788.435	535.54
788.616	467.96
788.797	418.81
788.978	439.29
789.159	435.19
789.34	648.18
789.522	445.43
789.703	463.86
789.884	478.2
790.065	476.15
790.246	508.92
790.427	406.52
790.607	531.45
790.788	488.44
790.969	451.58
791.15	461.82
791.331	476.15
791.512	474.1
791.693	435.19
791.874	476.15
792.054	605.17
792.235	494.58
792.416	373.75
792.597	326.65
792.778	461.82
792.958	412.67
793.139	449.53
793.32	455.67
793.5	441.34
793.681	461.82
793.862	316.41
794.042	334.84
794.223	295.93
794.404	363.51
794.584	357.37
794.765	373.75
794.945	336.89
795.126	404.47
795.306	449.53
795.487	367.61
795.667	308.22
795.848	429.05
796.028	373.75
796.209	293.88
796.389	459.77
796.57	373.75
796.75	295.93
796.93	328.7
797.111	300.03
797.291	304.12
797.471	422.91
797.652	367.61
797.832	244.73
798.012	340.99
798.192	328.7
798.373	312.32
798.553	371.71
798.733	295.93
798.913	302.08
799.093	371.71
799.274	240.64
799.454	267.26
799.634	302.08
799.814	388.09
799.994	304.12
800.174	306.17
800.354	281.6
800.534	265.21
800.714	340.99
800.894	248.83
801.074	228.35
801.254	211.96
801.434	379.9
801.614	320.51
801.794	205.82
801.974	1158.13
802.154	279.55
802.334	345.08
802.514	224.25
802.693	232.44
802.873	353.27
803.053	295.93
803.233	388.09
803.413	306.17
803.592	300.03
803.772	259.07
803.952	277.5
804.131	277.5
804.311	259.07
804.491	207.87
804.67	248.83
804.85	183.29
805.03	361.47
805.209	279.55
805.389	224.25
805.568	300.03
805.748	259.07
805.928	252.92
806.107	185.34
806.287	211.96
806.466	297.98
806.646	291.84
806.825	234.49
807.004	152.57
807.184	263.16
807.363	322.56
807.543	275.45
807.722	109.57
807.901	226.3
808.081	273.4
808.26	275.45
808.439	328.7
808.619	150.53
808.798	185.34
808.977	216.06
809.156	285.69
809.336	228.35
809.515	265.21
809.694	177.15
809.873	222.2
810.052	246.78
810.231	238.59
810.411	205.82
810.59	244.73
810.769	220.16
810.948	205.82
811.127	62.46
811.306	187.39
811.485	138.24
811.664	214.01
811.843	199.68
812.022	207.87
812.201	250.88
812.38	191.49
812.559	95.23
812.737	230.4
812.916	168.96
813.095	99.33
813.274	216.06
813.453	181.25
813.632	273.4
813.811	205.82
813.989	181.25
814.168	185.34
814.347	162.81
814.526	261.12
814.704	248.83
814.883	189.44
815.062	113.66
815.24	207.87
815.419	93.18
815.598	211.96
815.776	140.29
815.955	171.01
816.133	97.28
816.312	146.43
816.49	121.85
816.669	205.82
816.847	203.77
817.026	136.19
817.204	125.95
817.383	140.29
817.561	89.09
817.74	234.49
817.918	228.35
818.097	113.66
818.275	179.2
818.453	162.81
818.632	250.88
818.81	35.84
818.988	121.85
819.167	177.15
819.345	162.81
819.523	121.85
819.701	128
819.879	105.47
820.058	164.86
820.236	175.1
820.414	156.67
820.592	160.77
820.77	142.33
820.948	27.65
821.127	144.38
821.305	93.18
821.483	64.51
821.661	142.33
821.839	199.68
822.017	121.85
822.195	84.99
822.373	189.44
822.551	105.47
822.729	193.53
822.907	78.85
823.085	132.09
823.262	70.65
823.44	37.89
823.618	136.19
823.796	82.94
823.974	130.05
824.152	70.65
824.329	152.57
824.507	134.14
824.685	132.09
824.863	80.89
825.04	140.29
825.218	207.87
825.396	93.18
825.574	105.47
825.751	99.33
825.929	82.94
826.107	50.18
826.284	160.77
826.462	189.44
826.639	87.04
826.817	91.13
826.994	93.18
827.172	23.55
827.349	177.15
827.527	146.43
827.704	48.13
827.882	91.13
828.059	117.76
828.237	99.33
828.414	119.81
828.591	29.7
828.769	107.52
828.946	46.08
829.124	164.86
829.301	103.42
829.478	134.14
829.655	148.48
829.833	111.61
830.01	89.09
830.187	84.99
830.364	84.99
830.542	181.25
830.719	171.01
830.896	128
831.073	179.2
831.25	62.46
831.427	87.04
831.604	66.56
831.782	35.84
831.959	87.04
832.136	52.22
832.313	128
832.49	23.55
832.667	111.61
832.844	41.98
833.021	171.01
833.198	46.08
833.374	50.18
833.551	37.89
833.728	54.27
833.905	136.19
834.082	27.65
834.259	132.09
834.436	103.42
834.612	52.22
834.789	33.79
834.966	19.46
835.143	-3.07
835.319	25.6
835.496	123.9
835.673	138.24
835.85	-5.12
836.026	109.57
836.203	107.52
836.38	27.65
836.556	66.56
836.733	-11.26
836.909	111.61
837.086	68.61
837.262	3.07
837.439	150.53
837.616	68.61
837.792	78.85
837.968	138.24
838.145	-54.27
838.321	27.65
838.498	103.42
838.674	113.66
838.851	74.75
839.027	23.55
839.203	54.27
839.38	105.47
839.556	115.71
839.732	113.66
839.909	-19.46
840.085	35.84
840.261	15.36
840.437	35.84
840.614	50.18
840.79	189.44
840.966	148.48
841.142	60.42
841.318	115.71
841.494	117.76
841.671	144.38
841.847	52.22
842.023	-7.17
842.199	25.6
842.375	93.18
842.551	66.56
842.727	-37.89
842.903	138.24
843.079	17.41
843.255	21.5
843.431	54.27
843.607	58.37
843.783	-33.79
843.959	76.8
844.134	-25.6
844.31	39.94
844.486	54.27
844.662	31.74
844.838	5.12
845.013	115.71
845.189	78.85
845.365	33.79
845.541	91.13
845.716	19.46
845.892	140.29
846.068	58.37
846.244	13.31
846.419	44.03
846.595	44.03
846.77	-11.26
846.946	70.65
847.122	37.89
847.297	52.22
847.473	195.58
847.648	7.17
847.824	3.07
847.999	-1.02
848.175	-31.74
848.35	52.22
848.526	111.61
848.701	105.47
848.876	13.31
849.052	80.89
849.227	-29.7
849.403	23.55
849.578	52.22
849.753	19.46
849.929	132.09
850.104	7.17
850.279	23.55
850.454	70.65
850.63	25.6
850.805	11.26
850.98	-5.12
851.155	46.08
851.33	66.56
851.505	31.74
851.681	121.85
851.856	39.94
852.031	89.09
852.206	-1.02
852.381	-19.46
852.556	-5.12
852.731	54.27
852.906	46.08
853.081	37.89
853.256	21.5
853.431	11.26
853.606	11.26
853.781	-11.26
853.956	-19.46
854.131	5.12
854.305	17.41
854.48	11.26
854.655	48.13
854.83	-21.5
855.005	56.32
855.18	39.94
855.354	56.32
855.529	125.95
855.704	48.13
855.879	99.33
856.053	39.94
856.228	54.27
856.403	35.84
856.577	33.79
856.752	-13.31
856.926	48.13
857.101	33.79
857.276	-1.02
857.45	3.07
857.625	7.17
857.799	54.27
857.974	-35.84
858.148	-58.37
858.323	23.55
858.497	-13.31
858.672	31.74
858.846	-1.02
859.02	74.75
859.195	-72.7
859.369	35.84
859.543	5.12
859.718	-15.36
859.892	48.13
860.066	148.48
860.241	35.84
860.415	33.79
860.589	23.55
860.763	1.02
860.938	-91.13
861.112	29.7
861.286	39.94
861.46	1.02
861.634	-19.46
861.808	50.18
861.982	-54.27
862.157	-25.6
862.331	50.18
862.505	-23.55
862.679	-5.12
862.853	-23.55
863.027	95.23
863.201	39.94
863.375	76.8
863.549	-3.07
863.722	46.08
863.896	17.41
864.07	-39.94
864.244	56.32
864.418	-27.65
864.592	35.84
864.766	-35.84
864.939	-29.7
865.113	-74.75
865.287	84.99
865.461	1.02
865.634	-23.55
865.808	-17.41
865.982	3.07
866.156	25.6
866.329	-23.55
866.503	62.46
866.676	-25.6
866.85	52.22
867.024	-78.85
867.197	27.65
867.371	39.94
867.544	-3.07
867.718	-25.6
867.891	52.22
868.065	-82.94
868.238	44.03
868.412	54.27
868.585	27.65
868.759	35.84
868.932	-97.28
869.105	-62.46
869.279	-15.36
869.452	-37.89
869.625	39.94
869.799	33.79
869.972	-11.26
870.145	39.94
870.319	107.52
870.492	44.03
870.665	15.36
870.838	15.36
871.011	-76.8
871.185	-15.36
871.358	29.7
871.531	56.32
871.704	-7.17
871.877	29.7
872.05	25.6
872.223	1.02
872.396	21.5
872.569	68.61
872.742	-64.51
872.915	72.7
873.088	-37.89
873.261	-13.31
873.434	62.46
873.607	3.07
873.78	66.56
873.953	19.46
874.126	70.65
874.299	-19.46
874.471	-44.03
874.644	23.55
874.817	-15.36
874.99	95.23
875.163	-33.79
875.335	11.26
875.508	-64.51
875.681	70.65
875.853	3.07
876.026	-1.02
876.199	72.7
876.371	119.81
876.544	11.26
876.717	-13.31
876.889	-25.6
877.062	70.65
877.234	-62.46
877.407	27.65
877.579	-50.18
877.752	-15.36
877.924	93.18
878.097	68.61
878.269	-7.17
878.442	7.17
878.614	5.12
878.786	-1.02
878.959	95.23
879.131	66.56
879.303	-80.89
879.476	-9.22
879.648	7.17
879.82	95.23
879.993	-7.17
880.165	23.55
880.337	-74.75
880.509	23.55
880.681	-87.04
880.854	-58.37
881.026	35.84
881.198	125.95
881.37	-46.08
881.542	21.5
881.714	-7.17
881.886	35.84
882.058	7.17
882.23	48.13
882.402	44.03
882.574	15.36
882.746	44.03
882.918	113.66
883.09	-1.02
883.262	3.07
883.434	9.22
883.606	-15.36
883.778	-13.31
883.95	87.04
884.122	56.32
884.293	15.36
884.465	23.55
884.637	41.98
884.809	-39.94
884.98	95.23
885.152	19.46
885.324	-5.12
885.496	-89.09
885.667	-1.02
885.839	-7.17
886.011	123.9
886.182	23.55
886.354	91.13
886.525	-74.75
886.697	7.17
886.869	19.46
887.04	-64.51
887.212	82.94
887.383	150.53
887.555	41.98
887.726	-80.89
887.897	11.26
888.069	-11.26
888.24	91.13
888.412	13.31
888.583	-13.31
888.754	5.12
888.926	-23.55
889.097	-41.98
889.268	3.07
889.44	-41.98
889.611	13.31
889.782	-99.33
889.953	7.17
890.125	33.79
890.296	13.31
890.467	33.79
890.638	-33.79
890.809	3.07
890.98	-72.7
891.151	-17.41
891.323	17.41
891.494	48.13
891.665	-48.13
891.836	19.46
892.007	37.89
892.178	-7.17
892.349	-19.46
892.52	41.98
892.691	54.27
892.862	-37.89
893.032	-13.31
893.203	-1.02
893.374	-29.7
893.545	23.55
893.716	-74.75
893.887	41.98
894.057	-5.12
894.228	-39.94
894.399	-35.84
894.57	23.55
894.74	46.08
894.911	46.08
895.082	-84.99
895.253	13.31
895.423	70.65
895.594	-29.7
895.764	29.7
895.935	11.26
896.106	-9.22
896.276	-41.98
896.447	101.37
896.617	13.31
896.788	-58.37
896.958	-15.36
897.129	-46.08
897.299	35.84
897.47	-7.17
897.64	-17.41
897.81	15.36
897.981	-95.23
898.151	-41.98
898.322	-13.31
898.492	-39.94
898.662	68.61
898.832	5.12
899.003	37.89
899.173	-25.6
899.343	-66.56
899.513	-62.46
