Data from USB4F104151__58__12-12-25-704.txt Node

Date: Fri Mar 14 12:12:25 EDT 2025
User: louis
Spectrometer: USB4F10415
Trigger mode: 4
Integration Time (sec): 5.000000E-2
Scans to average: 1
Electric dark correction enabled: true
Nonlinearity correction enabled: false
Boxcar width: 0
XAxis mode: Wavelengths
Number of Pixels in Spectrum: 3648
>>>>>Begin Spectral Data<<<<<
178.204	-205.65
178.424	-205.65
178.644	-205.65
178.864	-166.74
179.084	-179.03
179.304	-60.24
179.524	-19.29
179.744	-4.95
179.964	119.98
180.184	9.39
180.404	-68.44
180.624	-72.53
180.844	7.34
181.064	25.77
181.283	11.43
181.503	21.67
181.723	29.87
181.943	-70.48
182.163	107.69
182.383	105.64
182.602	46.25
182.822	81.07
183.042	58.54
183.262	33.96
183.482	38.06
183.701	185.51
183.921	38.06
184.141	33.96
184.361	72.87
184.58	7.34
184.8	66.73
185.02	21.67
185.239	160.94
185.459	15.53
185.679	13.48
185.898	-17.24
186.118	107.69
186.338	15.53
186.557	46.25
186.777	-2.9
186.997	5.29
187.216	25.77
187.436	95.4
187.655	89.26
187.875	95.4
188.095	19.63
188.314	111.78
188.534	99.5
188.753	48.3
188.973	36.01
189.192	134.31
189.412	60.59
189.631	50.35
189.851	33.96
190.07	136.36
190.29	-7
190.509	-21.33
190.729	36.01
190.948	85.16
191.168	273.57
191.387	144.55
191.607	-2.9
191.826	23.72
192.045	-9.05
192.265	122.02
192.484	109.74
192.704	36.01
192.923	-0.85
193.142	128.17
193.362	76.97
193.581	64.68
193.8	70.83
194.02	5.29
194.239	79.02
194.458	81.07
194.678	101.55
194.897	76.97
195.116	9.39
195.335	44.2
195.555	15.53
195.774	89.26
195.993	17.58
196.212	-23.38
196.432	60.59
196.651	7.34
196.87	95.4
197.089	99.5
197.308	56.49
197.528	-23.38
197.747	72.87
197.966	-27.48
198.185	162.98
198.404	74.92
198.623	162.98
198.842	40.11
199.062	58.54
199.281	60.59
199.5	29.87
199.719	44.2
199.938	64.68
200.157	115.88
200.376	111.78
200.595	60.59
200.814	56.49
201.033	66.73
201.252	38.06
201.471	31.91
201.69	81.07
201.909	140.46
202.128	81.07
202.347	99.5
202.566	48.3
202.785	7.34
203.004	9.39
203.223	205.99
203.442	15.53
203.661	9.39
203.879	44.2
204.098	91.31
204.317	-0.85
204.536	115.88
204.755	93.35
204.974	46.25
205.193	74.92
205.411	128.17
205.63	89.26
205.849	42.15
206.068	54.44
206.287	33.96
206.505	31.91
206.724	48.3
206.943	76.97
207.162	5.29
207.381	44.2
207.599	3.24
207.818	36.01
208.037	25.77
208.255	27.82
208.474	27.82
208.693	89.26
208.911	-37.72
209.13	107.69
209.349	74.92
209.567	89.26
209.786	87.21
210.005	117.93
210.223	58.54
210.442	-41.81
210.661	23.72
210.879	91.31
211.098	74.92
211.316	50.35
211.535	74.92
211.753	38.06
211.972	138.41
212.191	27.82
212.409	74.92
212.628	44.2
212.846	52.39
213.065	93.35
213.283	111.78
213.502	15.53
213.72	-29.52
213.938	38.06
214.157	44.2
214.375	60.59
214.594	74.92
214.812	44.2
215.031	40.11
215.249	17.58
215.467	21.67
215.686	66.73
215.904	154.79
216.122	-15.19
216.341	167.08
216.559	173.22
216.778	42.15
216.996	72.87
217.214	-29.52
217.432	72.87
217.651	36.01
217.869	15.53
218.087	156.84
218.306	97.45
218.524	54.44
218.742	17.58
218.96	89.26
219.179	70.83
219.397	105.64
219.615	117.93
219.833	76.97
220.051	44.2
220.27	124.07
220.488	50.35
220.706	58.54
220.924	7.34
221.142	42.15
221.36	36.01
221.578	126.12
221.796	23.72
222.015	-7
222.233	81.07
222.451	148.65
222.669	27.82
222.887	81.07
223.105	29.87
223.323	-7
223.541	-13.14
223.759	9.39
223.977	17.58
224.195	138.41
224.413	124.07
224.631	132.26
224.849	60.59
225.067	128.17
225.285	44.2
225.503	27.82
225.721	-33.62
225.939	107.69
226.157	50.35
226.375	173.22
226.592	46.25
226.81	68.78
227.028	83.11
227.246	152.74
227.464	85.16
227.682	31.91
227.9	85.16
228.117	97.45
228.335	103.59
228.553	7.34
228.771	48.3
228.989	66.73
229.206	91.31
229.424	46.25
229.642	44.2
229.86	7.34
230.077	103.59
230.295	66.73
230.513	154.79
230.731	83.11
230.948	68.78
231.166	79.02
231.384	-19.29
231.601	122.02
231.819	68.78
232.037	70.83
232.254	29.87
232.472	27.82
232.689	-41.81
232.907	74.92
233.125	70.83
233.342	74.92
233.56	29.87
233.777	70.83
233.995	15.53
234.213	132.26
234.43	115.88
234.648	-2.9
234.865	25.77
235.083	70.83
235.3	76.97
235.518	9.39
235.735	117.93
235.953	113.83
236.17	17.58
236.388	-0.85
236.605	44.2
236.822	56.49
237.04	124.07
237.257	31.91
237.475	50.35
237.692	52.39
237.909	117.93
238.127	-0.85
238.344	64.68
238.562	54.44
238.779	68.78
238.996	25.77
239.214	38.06
239.431	40.11
239.648	-21.33
239.865	74.92
240.083	134.31
240.3	93.35
240.517	-11.09
240.735	89.26
240.952	156.84
241.169	48.3
241.386	-9.05
241.603	38.06
241.821	25.77
242.038	79.02
242.255	146.6
242.472	-15.19
242.689	31.91
242.907	46.25
243.124	50.35
243.341	95.4
243.558	74.92
243.775	-2.9
243.992	46.25
244.209	-0.85
244.426	136.36
244.643	46.25
244.86	42.15
245.078	31.91
245.295	15.53
245.512	52.39
245.729	38.06
245.946	74.92
246.163	97.45
246.38	79.02
246.597	89.26
246.814	103.59
247.031	93.35
247.248	-7
247.464	89.26
247.681	68.78
247.898	99.5
248.115	103.59
248.332	-27.48
248.549	81.07
248.766	40.11
248.983	91.31
249.2	7.34
249.417	79.02
249.633	50.35
249.85	154.79
250.067	27.82
250.284	81.07
250.501	91.31
250.717	124.07
250.934	-33.62
251.151	64.68
251.368	58.54
251.585	95.4
251.801	31.91
252.018	-29.52
252.235	70.83
252.451	46.25
252.668	5.29
252.885	68.78
253.102	91.31
253.318	64.68
253.535	-25.43
253.752	38.06
253.968	40.11
254.185	-31.57
254.401	60.59
254.618	54.44
254.835	97.45
255.051	95.4
255.268	44.2
255.484	36.01
255.701	62.63
255.917	115.88
256.134	19.63
256.351	31.91
256.567	11.43
256.784	-39.76
257	81.07
257.217	74.92
257.433	87.21
257.65	87.21
257.866	70.83
258.082	40.11
258.299	29.87
258.515	113.83
258.732	29.87
258.948	29.87
259.165	122.02
259.381	40.11
259.597	62.63
259.814	-56.15
260.03	60.59
260.246	36.01
260.463	130.22
260.679	79.02
260.895	-0.85
261.112	70.83
261.328	11.43
261.544	-39.76
261.761	162.98
261.977	15.53
262.193	-33.62
262.409	138.41
262.626	126.12
262.842	66.73
263.058	40.11
263.274	11.43
263.49	29.87
263.707	70.83
263.923	38.06
264.139	-45.91
264.355	15.53
264.571	74.92
264.787	83.11
265.004	89.26
265.22	93.35
265.436	60.59
265.652	79.02
265.868	81.07
266.084	15.53
266.3	42.15
266.516	1.19
266.732	36.01
266.948	128.17
267.164	93.35
267.38	111.78
267.596	115.88
267.812	158.89
268.028	13.48
268.244	-2.9
268.46	70.83
268.676	-9.05
268.892	91.31
269.108	11.43
269.324	-31.57
269.54	-0.85
269.756	38.06
269.972	33.96
270.188	-4.95
270.403	-7
270.619	83.11
270.835	-9.05
271.051	56.49
271.267	9.39
271.483	-7
271.698	33.96
271.914	95.4
272.13	-13.14
272.346	13.48
272.562	87.21
272.777	87.21
272.993	70.83
273.209	48.3
273.425	27.82
273.64	72.87
273.856	27.82
274.072	48.3
274.287	54.44
274.503	87.21
274.719	64.68
274.934	-2.9
275.15	-23.38
275.366	42.15
275.581	27.82
275.797	81.07
276.012	103.59
276.228	68.78
276.444	85.16
276.659	81.07
276.875	-47.96
277.09	62.63
277.306	-35.67
277.521	44.2
277.737	76.97
277.952	89.26
278.168	25.77
278.383	81.07
278.599	89.26
278.814	126.12
279.03	54.44
279.245	89.26
279.461	81.07
279.676	171.18
279.892	-33.62
280.107	-25.43
280.322	-52.05
280.538	42.15
280.753	66.73
280.969	74.92
281.184	21.67
281.399	99.5
281.615	74.92
281.83	97.45
282.045	38.06
282.26	17.58
282.476	48.3
282.691	58.54
282.906	7.34
283.122	99.5
283.337	23.72
283.552	50.35
283.767	-19.29
283.983	64.68
284.198	3.24
284.413	132.26
284.628	31.91
284.843	33.96
285.058	81.07
285.274	95.4
285.489	124.07
285.704	50.35
285.919	40.11
286.134	48.3
286.349	46.25
286.564	33.96
286.779	140.46
286.995	113.83
287.21	-13.14
287.425	101.55
287.64	7.34
287.855	66.73
288.07	11.43
288.285	89.26
288.5	128.17
288.715	138.41
288.93	79.02
289.145	11.43
289.36	38.06
289.575	31.91
289.79	85.16
290.004	89.26
290.219	122.02
290.434	40.11
290.649	36.01
290.864	89.26
291.079	27.82
291.294	87.21
291.509	83.11
291.724	-25.43
291.938	15.53
292.153	46.25
292.368	79.02
292.583	95.4
292.798	48.3
293.012	56.49
293.227	44.2
293.442	117.93
293.657	33.96
293.871	62.63
294.086	72.87
294.301	87.21
294.516	17.58
294.73	54.44
294.945	-2.9
295.16	11.43
295.374	119.98
295.589	54.44
295.804	-13.14
296.018	85.16
296.233	109.74
296.447	97.45
296.662	21.67
296.877	126.12
297.091	68.78
297.306	64.68
297.52	38.06
297.735	62.63
297.949	48.3
298.164	103.59
298.378	33.96
298.593	-15.19
298.807	66.73
299.022	97.45
299.236	111.78
299.451	85.16
299.665	74.92
299.88	-0.85
300.094	44.2
300.309	46.25
300.523	64.68
300.737	68.78
300.952	79.02
301.166	48.3
301.381	40.11
301.595	29.87
301.809	9.39
302.024	-17.24
302.238	79.02
302.452	79.02
302.667	-2.9
302.881	126.12
303.095	68.78
303.309	60.59
303.524	23.72
303.738	-25.43
303.952	33.96
304.166	117.93
304.381	17.58
304.595	109.74
304.809	15.53
305.023	23.72
305.237	31.91
305.452	-2.9
305.666	119.98
305.88	93.35
306.094	76.97
306.308	56.49
306.522	111.78
306.736	130.22
306.95	124.07
307.164	54.44
307.379	62.63
307.593	134.31
307.807	132.26
308.021	160.94
308.235	52.39
308.449	23.72
308.663	52.39
308.877	99.5
309.091	54.44
309.305	85.16
309.519	-52.05
309.733	105.64
309.947	-7
310.161	76.97
310.374	193.7
310.588	144.55
310.802	-7
311.016	25.77
311.23	103.59
311.444	33.96
311.658	19.63
311.872	91.31
312.085	76.97
312.299	193.7
312.513	111.78
312.727	9.39
312.941	7.34
313.154	95.4
313.368	60.59
313.582	54.44
313.796	111.78
314.009	50.35
314.223	119.98
314.437	95.4
314.651	107.69
314.864	-23.38
315.078	-9.05
315.292	60.59
315.505	-4.95
315.719	76.97
315.933	107.69
316.146	7.34
316.36	17.58
316.573	74.92
316.787	58.54
317.001	85.16
317.214	15.53
317.428	66.73
317.641	93.35
317.855	-0.85
318.068	132.26
318.282	11.43
318.495	148.65
318.709	134.31
318.922	-45.91
319.136	68.78
319.349	119.98
319.563	19.63
319.776	17.58
319.99	15.53
320.203	101.55
320.417	13.48
320.63	148.65
320.843	115.88
321.057	44.2
321.27	72.87
321.483	60.59
321.697	122.02
321.91	44.2
322.124	122.02
322.337	109.74
322.55	36.01
322.763	68.78
322.977	-33.62
323.19	64.68
323.403	89.26
323.617	54.44
323.83	117.93
324.043	27.82
324.256	109.74
324.469	-7
324.683	130.22
324.896	-68.44
325.109	81.07
325.322	7.34
325.535	134.31
325.748	70.83
325.962	-62.29
326.175	-27.48
326.388	150.7
326.601	132.26
326.814	-4.95
327.027	89.26
327.24	83.11
327.453	-37.72
327.666	117.93
327.879	93.35
328.092	89.26
328.305	29.87
328.518	52.39
328.731	93.35
328.944	68.78
329.157	105.64
329.37	38.06
329.583	115.88
329.796	79.02
330.009	23.72
330.222	101.55
330.435	60.59
330.648	68.78
330.861	68.78
331.073	64.68
331.286	60.59
331.499	109.74
331.712	29.87
331.925	68.78
332.138	9.39
332.35	95.4
332.563	58.54
332.776	148.65
332.989	107.69
333.202	99.5
333.414	54.44
333.627	19.63
333.84	23.72
334.053	138.41
334.265	68.78
334.478	19.63
334.691	48.3
334.903	64.68
335.116	13.48
335.329	29.87
335.541	115.88
335.754	103.59
335.966	66.73
336.179	48.3
336.392	150.7
336.604	111.78
336.817	66.73
337.029	91.31
337.242	48.3
337.454	154.79
337.667	68.78
337.88	119.98
338.092	44.2
338.305	97.45
338.517	58.54
338.729	74.92
338.942	132.26
339.154	-11.09
339.367	56.49
339.579	113.83
339.792	52.39
340.004	111.78
340.217	85.16
340.429	99.5
340.641	68.78
340.854	31.91
341.066	-19.29
341.278	48.3
341.491	165.03
341.703	117.93
341.915	-25.43
342.128	70.83
342.34	111.78
342.552	95.4
342.764	132.26
342.977	64.68
343.189	87.21
343.401	62.63
343.613	-0.85
343.826	70.83
344.038	25.77
344.25	42.15
344.462	97.45
344.674	62.63
344.886	19.63
345.099	7.34
345.311	128.17
345.523	54.44
345.735	-45.91
345.947	46.25
346.159	95.4
346.371	74.92
346.583	-27.48
346.795	177.32
347.007	25.77
347.219	44.2
347.431	40.11
347.643	83.11
347.855	48.3
348.067	122.02
348.279	17.58
348.491	15.53
348.703	117.93
348.915	27.82
349.127	15.53
349.339	27.82
349.551	-74.58
349.763	87.21
349.975	87.21
350.187	111.78
350.399	72.87
350.61	87.21
350.822	50.35
351.034	9.39
351.246	89.26
351.458	60.59
351.669	122.02
351.881	197.8
352.093	91.31
352.305	162.98
352.517	81.07
352.728	126.12
352.94	50.35
353.152	87.21
353.363	7.34
353.575	68.78
353.787	124.07
353.999	97.45
354.21	105.64
354.422	42.15
354.633	56.49
354.845	101.55
355.057	138.41
355.268	93.35
355.48	97.45
355.692	56.49
355.903	89.26
356.115	124.07
356.326	58.54
356.538	152.74
356.749	83.11
356.961	130.22
357.172	56.49
357.384	36.01
357.595	177.32
357.807	33.96
358.018	-13.14
358.23	113.83
358.441	128.17
358.653	132.26
358.864	60.59
359.075	46.25
359.287	85.16
359.498	150.7
359.709	56.49
359.921	70.83
360.132	62.63
360.344	124.07
360.555	66.73
360.766	74.92
360.977	-4.95
361.189	113.83
361.4	1.19
361.611	85.16
361.823	89.26
362.034	72.87
362.245	3.24
362.456	23.72
362.667	52.39
362.879	68.78
363.09	27.82
363.301	93.35
363.512	119.98
363.723	105.64
363.935	124.07
364.146	122.02
364.357	19.63
364.568	132.26
364.779	31.91
364.99	109.74
365.201	44.2
365.412	66.73
365.623	11.43
365.834	68.78
366.045	60.59
366.256	107.69
366.467	58.54
366.678	64.68
366.889	-19.29
367.1	50.35
367.311	72.87
367.522	21.67
367.733	56.49
367.944	81.07
368.155	68.78
368.366	48.3
368.577	146.6
368.788	119.98
368.999	-0.85
369.209	81.07
369.42	136.36
369.631	195.75
369.842	74.92
370.053	52.39
370.264	117.93
370.474	-2.9
370.685	64.68
370.896	91.31
371.107	109.74
371.317	70.83
371.528	23.72
371.739	132.26
371.95	-7
372.16	56.49
372.371	-2.9
372.582	107.69
372.792	113.83
373.003	68.78
373.214	76.97
373.424	150.7
373.635	-33.62
373.846	113.83
374.056	124.07
374.267	111.78
374.477	56.49
374.688	50.35
374.898	113.83
375.109	17.58
375.319	13.48
375.53	103.59
375.74	162.98
375.951	25.77
376.161	89.26
376.372	128.17
376.582	101.55
376.793	56.49
377.003	-25.43
377.214	15.53
377.424	91.31
377.635	70.83
377.845	62.63
378.055	148.65
378.266	13.48
378.476	44.2
378.686	142.5
378.897	48.3
379.107	165.03
379.317	72.87
379.528	-54.1
379.738	154.79
379.948	99.5
380.158	95.4
380.369	33.96
380.579	140.46
380.789	76.97
380.999	64.68
381.21	109.74
381.42	171.18
381.63	13.48
381.84	105.64
382.05	23.72
382.261	79.02
382.471	197.8
382.681	15.53
382.891	136.36
383.101	70.83
383.311	66.73
383.521	17.58
383.731	134.31
383.941	68.78
384.151	87.21
384.361	87.21
384.571	50.35
384.781	15.53
384.991	128.17
385.201	183.46
385.411	126.12
385.621	113.83
385.831	-13.14
386.041	64.68
386.251	44.2
386.461	62.63
386.671	134.31
386.881	160.94
387.091	72.87
387.301	107.69
387.511	44.2
387.72	3.24
387.93	103.59
388.14	31.91
388.35	119.98
388.56	81.07
388.769	130.22
388.979	44.2
389.189	46.25
389.399	44.2
389.609	68.78
389.818	148.65
390.028	101.55
390.238	124.07
390.447	76.97
390.657	56.49
390.867	205.99
391.076	15.53
391.286	81.07
391.496	105.64
391.705	105.64
391.915	128.17
392.125	156.84
392.334	122.02
392.544	99.5
392.753	171.18
392.963	-13.14
393.172	89.26
393.382	31.91
393.591	167.08
393.801	48.3
394.01	140.46
394.22	134.31
394.429	83.11
394.639	50.35
394.848	146.6
395.058	48.3
395.267	23.72
395.477	128.17
395.686	119.98
395.895	232.62
396.105	136.36
396.314	177.32
396.524	97.45
396.733	162.98
396.942	165.03
397.152	126.12
397.361	238.76
397.57	99.5
397.78	79.02
397.989	165.03
398.198	160.94
398.407	93.35
398.617	154.79
398.826	177.32
399.035	187.56
399.244	124.07
399.453	99.5
399.663	134.31
399.872	193.7
400.081	83.11
400.29	177.32
400.499	95.4
400.708	107.69
400.917	148.65
401.127	85.16
401.336	169.13
401.545	171.18
401.754	216.23
401.963	105.64
402.172	124.07
402.381	199.85
402.59	156.84
402.799	152.74
403.008	232.62
403.217	117.93
403.426	158.89
403.635	107.69
403.844	109.74
404.053	220.33
404.262	140.46
404.471	279.72
404.68	269.48
404.888	117.93
405.097	185.51
405.306	115.88
405.515	218.28
405.724	261.29
405.933	197.8
406.142	195.75
406.35	265.38
406.559	197.8
406.768	222.38
406.977	226.47
407.185	267.43
407.394	201.9
407.603	160.94
407.812	261.29
408.02	273.57
408.229	214.18
408.438	300.2
408.646	234.66
408.855	283.81
409.064	382.12
409.272	324.77
409.481	418.98
409.69	226.47
409.898	308.39
410.107	359.59
410.315	433.32
410.524	234.66
410.733	388.26
410.941	371.88
411.15	441.51
411.358	412.84
411.567	461.99
411.775	427.17
411.984	492.71
412.192	502.95
412.401	486.56
412.609	564.39
412.818	560.29
413.026	611.49
413.234	580.77
413.443	500.9
413.651	658.59
413.86	580.77
414.068	674.98
414.276	795.81
414.485	713.89
414.693	801.95
414.901	791.71
415.11	818.33
415.318	781.47
415.526	871.58
415.734	896.16
415.943	832.67
416.151	965.79
416.359	871.58
416.567	926.88
416.776	906.4
416.984	1051.8
417.192	1125.53
417.4	1168.54
417.608	1096.86
417.817	1057.95
418.025	1311.89
418.233	1270.94
418.441	1258.65
418.649	1320.09
418.857	1350.81
419.065	1449.11
419.273	1365.14
419.481	1555.6
419.689	1524.88
419.897	1621.14
420.105	1664.15
420.313	1649.81
420.521	1805.46
420.729	1764.5
420.937	1899.66
421.145	1893.52
421.353	1981.58
421.561	2016.4
421.769	2188.43
421.977	2147.47
422.185	2270.34
422.393	2335.88
422.601	2417.8
422.809	2376.84
423.017	2497.67
423.224	2698.37
423.432	2690.18
423.64	2577.54
423.848	2925.69
424.056	2704.51
424.263	3189.88
424.471	3101.82
424.679	3169.4
424.887	3286.14
425.094	3472.5
425.302	3474.55
425.51	3492.98
425.718	3626.1
425.925	3800.18
426.133	3900.53
426.341	4129.9
426.548	4099.18
426.756	4236.39
426.964	4394.09
427.171	4480.1
427.379	4627.56
427.586	4521.06
427.794	4854.88
428.001	5102.68
428.209	5219.42
428.417	5069.92
428.624	5602.39
428.832	5565.53
429.039	5532.76
429.247	5413.98
429.454	5815.38
429.662	6245.45
429.869	5987.41
430.076	6372.43
430.284	6421.58
430.491	6511.69
430.699	6915.14
430.906	6730.82
431.114	6947.9
431.321	7203.9
431.528	7273.53
431.736	7734.32
431.943	8109.1
432.15	7818.29
432.358	7963.7
432.565	8326.19
432.772	8328.24
432.979	8772.64
433.187	8930.34
433.394	9102.37
433.601	9591.83
433.808	9638.94
434.016	9460.76
434.223	9970.71
434.43	10343.44
434.637	10216.46
434.844	10894.34
435.052	11056.13
435.259	10871.81
435.466	11246.59
435.673	11125.76
435.88	11764.73
436.087	12383.21
436.294	12307.44
436.501	12004.34
436.708	12106.74
436.915	12540.91
437.122	13253.6
437.329	13034.47
437.537	13620.19
437.743	13741.02
437.95	13525.98
438.157	14379.98
438.364	14787.53
438.571	14828.49
438.778	14918.6
438.985	16217.01
439.192	15504.32
439.399	15915.96
439.606	15573.95
439.813	16690.09
440.02	17458.08
440.227	16997.29
440.433	17013.67
440.64	17898.39
440.847	17394.59
441.054	17896.35
441.261	19184.52
441.467	18858.89
441.674	19020.68
441.881	19643.26
442.088	19751.81
442.294	19932.03
442.501	20122.49
442.708	20278.13
442.914	21255.01
443.121	22043.48
443.328	21531.49
443.534	23118.67
443.741	22272.85
443.948	21902.17
444.154	23696.19
444.361	23268.17
444.568	23733.06
444.774	23358.28
444.981	23804.74
445.187	24953.65
445.394	25637.67
445.6	25183.02
445.807	27591.43
446.013	26317.59
446.22	26923.79
446.426	27859.71
446.633	28130.05
446.839	29162.22
447.046	27699.97
447.252	29487.85
447.459	29455.08
447.665	29076.21
447.871	30448.35
448.078	32158.4
448.284	30315.23
448.491	31216.33
448.697	32072.39
448.903	32799.41
449.11	32832.18
449.316	32608.95
449.522	32815.8
449.728	33634.99
449.935	34216.61
450.141	33661.61
450.347	34609.82
450.553	33677.99
450.76	34214.56
450.966	35310.22
451.172	34609.82
451.378	35519.12
451.584	34734.74
451.791	35717.77
451.997	35613.32
452.203	36172.42
452.409	36246.15
452.615	35779.21
452.821	34409.12
453.027	34187.94
453.233	36254.34
453.44	34605.72
453.646	34953.88
453.852	35244.69
454.058	35723.91
454.264	34454.17
454.47	35375.76
454.676	34382.49
454.882	35340.94
455.088	32260.8
455.294	32791.22
455.5	33254.06
455.705	33456.81
455.911	32416.44
456.117	31660.74
456.323	31382.22
456.529	29151.98
456.735	30640.86
456.941	30284.51
457.147	29733.6
457.352	28326.65
457.558	28312.31
457.764	28246.78
457.97	27564.81
458.176	27124.49
458.381	26968.85
458.587	25748.26
458.793	25830.18
458.999	24243
459.204	25641.76
459.41	25223.98
459.616	23536.45
459.821	23808.83
460.027	23249.74
460.233	23083.85
460.438	22080.35
460.644	21941.08
460.85	20972.39
461.055	20525.94
461.261	20503.41
461.466	19016.58
461.672	18332.56
461.878	19704.7
462.083	18191.25
462.289	18064.28
462.494	17736.6
462.7	16982.95
462.905	16524.21
463.111	17292.19
463.316	17294.24
463.522	16737.2
463.727	16473.01
463.932	16745.39
464.138	16485.3
464.343	16470.96
464.549	16010.17
464.754	16864.17
464.959	16438.19
465.165	16311.22
465.37	15219.65
465.575	14967.75
465.781	16020.41
465.986	16100.28
466.191	15369.15
466.397	14912.46
466.602	14506.96
466.807	14478.29
467.012	14732.23
467.218	14595.02
467.423	14502.86
467.628	14564.3
467.833	14988.23
468.038	14205.91
468.244	13867.99
468.449	15080.39
468.654	14369.74
468.859	13890.52
469.064	14185.43
469.269	13390.81
469.474	13417.44
469.679	13759.45
469.885	13249.5
470.09	13489.12
470.295	13482.97
470.5	13212.64
470.705	13171.68
470.91	13016.04
471.115	12647.4
471.32	12938.21
471.525	12827.62
471.73	12508.14
471.935	12602.35
472.139	11932.66
472.344	12229.62
472.549	12073.97
472.754	11944.95
472.959	11854.84
473.164	11322.37
473.369	11170.82
473.574	11555.83
473.778	11748.34
473.983	11430.91
474.188	11156.48
474.393	10679.3
474.598	10908.68
474.802	10816.52
475.007	10877.96
475.212	10753.03
475.417	10140.69
475.621	10353.68
475.826	10325.01
476.031	10124.3
476.235	10062.87
476.44	10112.02
476.645	9753.62
476.849	9761.81
477.054	9735.19
477.259	9673.75
477.463	9694.23
477.668	9507.87
477.872	9464.86
478.077	9235.49
478.282	8979.49
478.486	9188.38
478.691	9057.31
478.895	8913.95
479.1	8913.95
479.304	8948.77
479.509	8510.5
479.713	8676.39
479.918	8547.37
480.122	8444.97
480.326	8625.19
480.531	8465.45
480.735	8295.47
480.94	8367.15
481.144	8643.62
481.348	8248.36
481.553	8211.5
481.757	8201.26
481.961	8266.8
482.166	8293.42
482.37	8270.89
482.574	8109.1
482.778	8082.48
482.983	8303.66
483.187	8115.25
483.391	8158.25
483.595	8203.31
483.8	8172.59
484.004	8066.1
484.208	8225.84
484.412	8182.83
484.616	8121.39
484.821	8078.38
485.025	7935.03
485.229	8158.25
485.433	8010.8
485.637	7992.37
485.841	7887.92
486.045	8018.99
486.249	8037.42
486.453	7881.78
486.657	8000.56
486.861	7961.65
487.065	7859.25
487.269	8051.76
487.473	8068.14
487.677	8014.9
487.881	7892.02
488.085	7707.7
488.289	7908.4
488.493	7916.59
488.697	8094.77
488.901	8191.02
489.105	8188.97
489.309	8051.76
489.512	7959.6
489.716	8180.78
489.92	7996.46
490.124	8111.15
490.328	8318
490.531	8004.66
490.735	8203.31
490.939	8080.43
491.143	8029.23
491.346	8213.55
491.55	8277.04
491.754	8303.66
491.958	8180.78
492.161	8371.24
492.365	8309.8
492.569	8166.45
492.772	8399.91
492.976	8612.9
493.18	8490.03
493.383	8516.65
493.587	8647.72
493.79	8711.21
493.994	8623.14
494.197	8563.75
494.401	8797.22
494.605	8733.73
494.808	8934.43
495.012	8877.09
495.215	9157.66
495.419	9083.94
495.622	8993.83
495.825	9184.29
496.029	9026.59
496.232	9223.2
496.436	9128.99
496.639	9514.01
496.843	9372.7
497.046	9487.39
497.249	9786.39
497.453	9741.33
497.656	9923.6
497.859	9927.7
498.063	10101.78
498.266	10142.74
498.469	10089.49
498.673	10249.23
498.876	10312.72
499.079	10576.91
499.282	10282
499.485	10834.95
499.689	10705.93
499.892	11115.52
500.095	10855.43
500.298	11305.98
500.501	11078.66
500.705	11295.74
500.908	11740.15
501.111	11398.14
501.314	11387.9
501.517	11832.31
501.72	11934.71
501.923	12024.82
502.126	12272.62
502.329	12463.08
502.532	12393.45
502.735	12526.57
502.938	12706.79
503.141	12737.51
503.344	12934.12
503.547	12989.41
503.75	13075.43
503.953	13315.04
504.156	13425.63
504.359	13517.79
504.562	13487.07
504.765	14144.47
504.968	14095.32
505.17	13976.53
505.373	14298.06
505.576	14371.79
505.779	14646.22
505.982	14756.81
506.185	14877.64
506.387	15246.27
506.59	15223.75
506.793	15455.17
506.996	15088.58
507.198	15872.95
507.401	15672.25
507.604	15971.25
507.807	16253.87
508.009	16229.3
508.212	16323.51
508.415	16575.41
508.617	16591.79
508.82	16831.4
509.022	16632.75
509.225	17042.34
509.428	17351.59
509.63	17234.85
509.833	17752.99
510.035	17808.28
510.238	17808.28
510.44	17802.14
510.643	18133.91
510.845	18516.88
511.048	18443.15
511.25	18592.65
511.453	18490.26
511.655	19211.14
511.858	19000.2
512.06	19282.82
512.262	19557.25
512.465	19114.89
512.667	19530.62
512.87	19776.38
513.072	20038.52
513.274	20325.24
513.477	20380.53
513.679	20704.11
513.881	20771.69
514.084	20829.04
514.286	21001.07
514.488	21181.29
514.69	21486.43
514.893	21963.61
515.095	21472.1
515.297	21660.51
515.499	21756.77
515.701	22233.94
515.904	22524.75
516.106	22537.04
516.308	22444.88
516.51	23020.36
516.712	22879.05
516.914	23214.92
517.116	23290.7
517.318	23685.95
517.52	23987
517.722	23894.85
517.925	23925.57
518.127	24116.03
518.329	24699.7
518.531	24218.43
518.733	24548.15
518.935	24793.9
519.136	24941.36
519.338	25056.04
519.54	25269.03
519.742	25461.54
519.944	25645.86
520.146	25910.05
520.348	26424.09
520.55	26278.68
520.752	26028.83
520.954	26600.21
521.155	26129.18
521.357	26606.36
521.559	27159.31
521.761	27296.52
521.963	27058.96
522.164	27394.82
522.366	27566.85
522.568	27603.72
522.77	28189.44
522.971	27927.3
523.173	27409.16
523.375	28039.93
523.576	28257.02
523.778	28117.76
523.98	28910.32
524.181	28517.11
524.383	28678.9
524.584	28945.14
524.786	28615.41
524.988	28822.26
525.189	29186.8
525.391	29012.72
525.592	29403.88
525.794	29412.07
525.995	29434.6
526.197	29207.28
526.398	29424.36
526.6	29786.85
526.801	29700.84
527.003	29872.87
527.204	29588.2
527.406	29889.25
527.607	29979.36
527.808	30186.21
528.01	29641.45
528.211	30081.76
528.412	30405.34
528.614	30370.52
528.815	30452.44
529.016	30452.44
529.218	29967.07
529.419	30411.48
529.62	30182.11
529.822	30343.9
530.023	30429.91
530.224	30421.72
530.425	30153.44
530.626	30198.49
530.828	29879.01
531.029	30548.7
531.23	30419.67
531.431	30380.76
531.632	30339.8
531.833	30608.09
532.035	30544.6
532.236	30423.77
532.437	30753.49
532.638	30597.85
532.839	30978.77
533.04	30982.87
533.241	30515.93
533.442	30718.68
533.643	30384.86
533.844	30466.78
534.045	30610.14
534.246	30651.09
534.447	31146.7
534.648	30761.69
534.849	30843.6
535.05	30372.57
535.251	30614.23
535.451	30386.91
535.652	30737.11
535.853	30700.25
536.054	30634.71
536.255	30558.94
536.456	30591.7
536.657	30978.77
536.857	30526.17
537.058	30042.85
537.259	30733.01
537.46	30470.87
537.66	30587.61
537.861	30669.53
538.062	30466.78
538.263	30647
538.463	30167.77
538.664	30474.97
538.865	30251.74
539.065	30708.44
539.266	29983.46
539.466	30606.04
539.667	29967.07
539.868	30573.27
540.068	30595.8
540.269	30157.53
540.469	30489.31
540.67	30241.5
540.87	30255.84
541.071	30485.21
541.271	30649.05
541.472	30319.32
541.672	30282.46
541.873	30001.89
542.073	29862.63
542.274	30601.94
542.474	29940.45
542.675	29979.36
542.875	30491.35
543.075	29831.91
543.276	29866.72
543.476	30405.34
543.676	30182.11
543.877	30001.89
544.077	29907.68
544.277	30116.58
544.478	29938.4
544.678	30257.88
544.878	30042.85
545.078	30280.41
545.279	29960.93
545.479	29958.88
545.679	29856.48
545.879	30008.03
546.079	30042.85
546.28	29866.72
546.48	29948.64
546.68	29842.15
546.88	30098.14
547.08	29901.54
547.28	29917.92
547.48	29565.67
547.68	30266.08
547.88	29192.94
548.081	30235.36
548.281	30069.47
548.481	29473.51
548.681	30257.88
548.881	29848.29
549.081	29838.05
549.28	29332.2
549.48	29842.15
549.68	29749.99
549.88	30206.69
550.08	29709.03
550.28	29801.19
550.48	29952.74
550.68	30096.1
550.88	29790.95
551.08	29719.27
551.279	29803.24
551.479	29383.4
551.679	29627.11
551.879	29612.77
552.079	29924.07
552.278	29831.91
552.478	30026.46
552.678	29823.72
552.878	29659.88
553.077	29563.62
553.277	29362.92
553.477	29940.45
553.676	29321.96
553.876	29463.27
554.076	29534.95
554.275	29137.65
554.475	29162.22
554.674	29606.63
554.874	29225.71
555.074	29426.41
555.273	29522.66
555.473	29815.52
555.672	29379.31
555.872	29526.76
556.071	29575.91
556.271	29635.3
556.47	29190.89
556.67	29143.79
556.869	29235.95
557.068	29528.81
557.268	29281
557.467	29201.13
557.667	29219.56
557.866	29217.52
558.065	29225.71
558.265	29135.6
558.464	28881.65
558.663	29240.04
558.863	29106.93
559.062	29586.15
559.261	29389.55
559.461	29573.86
559.66	28691.19
559.859	29070.06
560.058	28951.28
560.258	29248.24
560.457	28982
560.656	28998.38
560.855	28859.12
561.054	29319.92
561.253	28947.18
561.453	29229.8
561.652	29002.48
561.851	29211.37
562.05	28744.44
562.249	28916.47
562.448	28998.38
562.647	28670.71
562.846	28728.05
563.045	29012.72
563.244	28517.11
563.443	29281
563.642	28648.18
563.841	28953.33
564.04	28543.74
564.239	29061.87
564.438	28539.64
564.637	29018.86
564.836	29059.82
565.035	28750.58
565.234	28758.77
565.432	28670.71
565.631	28470.01
565.83	28615.41
566.029	28676.85
566.228	28465.91
566.427	28500.73
566.625	28535.54
566.824	28359.42
567.023	28627.7
567.222	28201.72
567.42	28621.56
567.619	28416.76
567.818	28496.63
568.016	28224.25
568.215	28306.17
568.414	28209.92
568.612	28623.61
568.811	28261.12
569.01	28259.07
569.208	27828.99
569.407	28320.51
569.605	27947.78
569.804	28584.69
570.002	27925.25
570.201	28261.12
570.4	28177.15
570.598	28019.46
570.797	28214.01
570.995	28039.93
571.193	27761.41
571.392	28259.07
571.59	27808.51
571.789	27968.26
571.987	27769.6
572.186	27882.24
572.384	27609.86
572.582	27677.44
572.781	28150.53
572.979	27368.2
573.177	27984.64
573.376	27861.76
573.574	27345.67
573.772	27857.67
573.971	27642.63
574.169	27581.19
574.367	27452.17
574.565	27538.18
574.763	27349.77
574.962	27478.79
575.16	27261.71
575.358	27790.08
575.556	27169.55
575.754	27452.17
575.952	27190.03
576.151	27429.64
576.349	27212.56
576.547	27163.4
576.745	27206.41
576.943	27183.88
577.141	27067.15
577.339	27370.25
577.537	27108.11
577.735	27364.11
577.933	27040.53
578.131	26753.81
578.329	26745.62
578.527	26977.04
578.725	27020.05
578.923	26985.23
579.121	27142.92
579.319	26983.18
579.516	27132.68
579.714	26911.5
579.912	26659.6
580.11	26493.72
580.308	26704.66
580.506	26718.99
580.704	26061.6
580.901	26772.24
581.099	26614.55
581.297	26612.5
581.495	26616.6
581.692	26577.69
581.89	26329.88
582.088	26577.69
582.285	25815.84
582.483	26223.39
582.681	26604.31
582.878	26620.69
583.076	25994.01
583.274	26176.28
583.471	26217.24
583.669	26245.91
583.866	26243.87
584.064	26419.99
584.262	25930.53
584.459	26170.14
584.657	25967.39
584.854	26094.36
585.052	25463.59
585.249	25885.47
585.447	25969.44
585.644	25684.77
585.841	25799.46
586.039	26116.89
586.236	25600.8
586.434	25439.01
586.631	25609
586.828	25901.86
587.026	25791.27
587.223	25572.13
587.42	25565.99
587.618	25522.98
587.815	25381.67
588.012	25223.98
588.21	25320.23
588.407	25953.05
588.604	25332.52
588.801	25451.3
588.999	25391.91
589.196	25289.51
589.393	25592.61
589.59	25238.31
589.787	24924.97
589.984	25066.28
590.182	25010.99
590.379	25201.45
590.576	25160.49
590.773	25203.5
590.97	25250.6
591.167	25080.62
591.364	25037.61
591.561	24939.31
591.758	24783.66
591.955	24912.69
592.152	25232.17
592.349	25010.99
592.546	24664.88
592.743	25248.55
592.94	24896.3
593.137	25084.72
593.334	24836.91
593.531	24775.47
593.727	25287.46
593.924	24865.58
594.121	24806.19
594.318	25074.48
594.515	24757.04
594.712	24718.13
594.908	24865.58
595.105	24814.38
595.302	24605.49
595.499	24769.33
595.696	24677.17
595.892	24580.92
596.089	24455.99
596.286	24826.67
596.482	24808.24
596.679	24845.1
596.876	24810.29
597.072	24742.71
597.269	25195.31
597.466	24814.38
597.662	24589.11
597.859	25051.95
598.055	24662.83
598.252	24550.2
598.448	24408.89
598.645	24558.39
598.841	24343.35
599.038	24646.45
599.234	24927.02
599.431	24619.83
599.627	24562.48
599.824	25117.48
600.02	24638.26
600.217	24787.76
600.413	24707.89
600.609	24490.8
600.806	24818.48
601.002	24845.1
601.198	24589.11
601.395	24607.54
601.591	24746.8
601.787	24849.2
601.984	24822.58
602.18	24955.69
602.376	24677.17
602.572	24773.42
602.769	24634.16
602.965	24679.22
603.161	25228.07
603.357	24593.2
603.553	24841.01
603.75	24724.27
603.946	24826.67
604.142	24996.65
604.338	24728.37
604.534	25039.66
604.73	24748.85
604.926	24834.86
605.122	24978.22
605.318	25113.39
605.514	25033.52
605.71	25054
605.906	24871.73
606.102	24898.35
606.298	25127.72
606.494	25039.66
606.69	25084.72
606.886	25410.34
607.082	24527.67
607.278	25010.99
607.474	24638.26
607.67	25672.48
607.866	24937.26
608.062	25553.7
608.257	25402.15
608.453	25637.67
608.649	25678.63
608.845	25248.55
609.041	25037.61
609.236	25594.66
609.432	25506.6
609.628	25664.29
609.824	25465.64
610.019	25406.25
610.215	25479.97
610.411	25606.95
610.606	25525.03
610.802	25590.56
610.998	25903.9
611.193	26151.71
611.389	25867.04
611.584	25920.29
611.78	25766.69
611.976	26129.18
612.171	26372.89
612.367	26112.8
612.562	26245.91
612.758	25991.97
612.953	25731.87
613.149	26528.53
613.344	26061.6
613.539	26532.63
613.735	26305.31
613.93	26706.71
614.126	26231.58
614.321	27056.91
614.517	26723.09
614.712	26434.33
614.907	26573.59
615.103	26841.87
615.298	26667.8
615.493	27093.77
615.688	26729.23
615.884	27446.02
616.079	26632.98
616.274	26950.42
616.47	26790.67
616.665	27265.8
616.86	26759.95
617.055	26610.45
617.25	27040.53
617.445	27349.77
617.641	26792.72
617.836	27329.29
618.031	26630.93
618.226	27198.22
618.421	27218.7
618.616	27276.04
618.811	27130.64
619.006	27382.54
619.201	26784.53
619.396	27128.59
619.591	26915.6
619.786	27140.88
619.981	26800.91
620.176	27425.54
620.371	26690.32
620.566	26880.78
620.761	26764.05
620.956	27380.49
621.151	26669.84
621.346	27216.65
621.541	26723.09
621.735	26700.56
621.93	26467.09
622.125	26641.17
622.32	26323.74
622.515	26688.28
622.709	26655.51
622.904	26571.54
623.099	26360.6
623.294	26299.16
623.488	26276.63
623.683	26506.01
623.878	26284.83
624.072	26170.14
624.267	25979.68
624.462	25985.82
624.656	25803.55
624.851	25891.62
625.046	25787.17
625.24	25871.14
625.435	25582.37
625.629	25334.57
625.824	25191.21
626.018	25500.45
626.213	25180.97
626.407	25242.41
626.602	25238.31
626.796	24873.78
626.991	25078.57
627.185	24978.22
627.38	25080.62
627.574	24550.2
627.768	24568.63
627.963	24650.55
628.157	24650.55
628.352	24697.65
628.546	24085.31
628.74	24501.04
628.935	24464.18
629.129	24111.93
629.323	24169.27
629.517	23993.15
629.712	23868.22
629.906	23735.1
630.1	23520.07
630.294	23880.51
630.489	23503.68
630.683	23810.88
630.877	23407.43
631.071	23214.92
631.265	23477.06
631.459	23411.53
631.653	23249.74
631.848	23274.31
632.042	22944.59
632.236	23044.94
632.43	22733.65
632.624	22932.3
632.818	22504.28
633.012	22600.53
633.206	22559.57
633.4	22274.9
633.594	22303.57
633.788	22231.9
633.982	22373.21
634.176	22274.9
634.369	21826.4
634.563	21840.73
634.757	21898.08
634.951	21941.08
635.145	21738.33
635.339	21807.97
635.533	21543.78
635.726	21730.14
635.92	21087.08
636.114	21355.36
636.308	20919.15
636.501	21283.69
636.695	21152.62
636.889	20736.88
637.083	20906.86
637.276	20769.65
637.47	20554.61
637.664	20446.07
637.857	20724.59
638.051	20271.99
638.244	20546.42
638.438	20421.49
638.632	20427.63
638.825	19948.41
639.019	20040.57
639.212	19760
639.406	19864.44
639.599	19407.75
639.793	19721.09
639.986	19305.35
640.18	19360.64
640.373	19581.82
640.567	19104.65
640.76	19172.23
640.954	18779.02
641.147	18799.5
641.34	18934.67
641.534	18510.74
641.727	18713.49
641.92	18617.23
642.114	18549.65
642.307	18238.36
642.5	18101.14
642.694	17918.87
642.887	17920.92
643.08	18068.37
643.273	18035.61
643.467	17894.3
643.66	17533.86
643.853	17826.71
644.046	17521.57
644.239	17523.62
644.432	17245.09
644.626	17181.6
644.819	17157.03
645.012	17167.27
645.205	17200.04
645.398	17077.16
645.591	16661.42
645.784	16898.98
645.977	16503.73
646.17	16282.55
646.363	16593.84
646.556	16315.31
646.749	16251.83
646.942	16464.82
647.135	16395.18
647.328	15856.57
647.521	15995.83
647.714	15678.4
647.907	15782.84
648.099	15705.02
648.292	15866.81
648.485	15494.08
648.678	15332.29
648.871	15295.43
649.064	15236.03
649.256	15412.16
649.449	15078.34
649.642	14842.82
649.835	14787.53
650.027	14896.07
650.22	14824.39
650.413	14603.21
650.605	14478.29
650.798	14472.14
650.991	14582.73
651.183	14412.75
651.376	14275.54
651.568	14318.54
651.761	14099.41
651.954	14267.34
652.146	14011.35
652.339	14042.07
652.531	13808.6
652.724	13741.02
652.916	13607.9
653.109	13327.33
653.301	13568.99
653.494	13462.49
653.686	13198.31
653.879	13568.99
654.071	13452.25
654.263	13153.25
654.456	13204.45
654.648	12997.6
654.84	12884.97
655.033	12811.24
655.225	12893.16
655.417	12903.4
655.61	12876.77
655.802	12643.31
655.994	12430.32
656.186	12454.89
656.379	12385.26
656.571	12307.44
656.763	12012.53
656.955	12104.69
657.148	11971.57
657.34	11926.52
657.532	11787.25
657.724	11539.45
657.916	11674.62
658.108	11903.99
658.3	11512.83
658.492	11564.03
658.684	11379.71
658.876	11359.23
659.068	11250.69
659.26	11170.82
659.452	11279.36
659.644	11062.27
659.836	10699.78
660.028	10972.16
660.22	10888.2
660.412	10904.58
660.604	10540.04
660.796	10753.03
660.988	10595.34
661.18	10685.45
661.372	10322.96
661.563	10497.03
661.755	10472.46
661.947	10427.4
662.139	10245.13
662.331	10204.17
662.522	10042.39
662.714	10062.87
662.906	9923.6
663.097	9972.75
663.289	9681.94
663.481	9790.49
663.673	9808.92
663.864	9661.46
664.056	9503.77
664.247	9583.64
664.439	9352.22
664.631	9419.8
664.822	9397.28
665.014	9247.77
665.205	9303.07
665.397	9309.21
665.588	9090.08
665.78	8780.84
665.971	9042.98
666.163	9067.55
666.354	8879.14
666.546	8909.86
666.737	8807.46
666.929	9010.21
667.12	8850.47
667.311	8520.74
667.503	8361
667.694	8774.69
667.885	8373.29
668.077	8475.69
668.268	8344.62
668.459	8553.51
668.651	8385.58
668.842	8418.35
669.033	8334.38
669.224	8086.58
669.416	8231.98
669.607	8129.58
669.798	8037.42
669.989	8160.3
670.18	8109.1
670.371	7937.07
670.563	8025.14
670.754	7869.49
670.945	7844.91
671.136	7910.45
671.327	7818.29
671.518	7818.29
671.709	7748.66
671.9	7769.14
672.091	7593.01
672.282	7595.06
672.473	7695.41
672.664	7658.55
672.855	7443.51
673.046	7556.15
673.237	7556.15
673.428	7416.89
673.619	7382.07
673.809	7414.84
674	7398.46
674.191	7420.99
674.382	7236.67
674.573	7306.3
674.764	7226.43
674.954	7253.05
675.145	7175.23
675.336	7097.41
675.527	7244.86
675.717	7193.66
675.908	7013.44
676.099	7064.64
676.289	6999.1
676.48	6925.38
676.671	6767.68
676.861	7033.92
677.052	6829.12
677.243	6716.48
677.433	6952
677.624	6995.01
677.814	6839.36
678.005	6855.75
678.195	6722.63
678.386	6743.11
678.576	6564.93
678.767	6548.55
678.957	6782.02
679.148	6693.96
679.338	6671.43
679.529	6706.24
679.719	6667.33
679.909	6655.05
680.1	6700.1
680.29	6720.58
680.481	6679.62
680.671	6556.74
680.861	6624.33
681.052	6460.49
681.242	6464.58
681.432	6472.78
681.622	6468.68
681.813	6450.25
682.003	6302.79
682.193	6427.72
682.383	6433.86
682.573	6372.43
682.764	6329.42
682.954	6460.49
683.144	6419.53
683.334	6538.31
683.524	6270.03
683.714	6417.48
683.904	6253.64
684.094	6515.78
684.284	6233.16
684.474	6421.58
684.664	6511.69
684.854	6407.24
685.044	6319.18
685.234	6196.3
685.424	6333.51
685.614	6351.95
685.804	6263.88
685.994	6417.48
686.184	6192.2
686.374	6153.29
686.564	6108.24
686.753	6196.3
686.943	5954.64
687.133	6108.24
687.323	6151.24
687.513	6034.51
687.702	6161.48
687.892	6124.62
688.082	6030.41
688.272	6093.9
688.461	6057.04
688.651	5991.5
688.841	5938.26
689.03	5997.65
689.22	6050.89
689.41	5897.3
689.599	5915.73
689.789	5930.06
689.979	5854.29
690.168	5856.34
690.358	5868.63
690.547	5934.16
690.737	5885.01
690.926	5907.54
691.116	5663.83
691.305	5942.35
691.495	5727.32
691.684	5667.92
691.874	5909.58
692.063	5827.67
692.252	5672.02
692.442	5829.71
692.631	5768.27
692.82	5753.94
693.01	5852.24
693.199	5637.2
693.388	5659.73
693.578	5893.2
693.767	5786.71
693.956	5586.01
694.146	5770.32
694.335	5520.47
694.524	5684.31
694.713	5674.07
694.902	5708.88
695.092	5788.75
695.281	5616.72
695.47	5694.55
695.659	5719.12
695.848	5702.74
696.037	5637.2
696.226	5637.2
696.415	5694.55
696.604	5692.5
696.793	5543
696.982	5833.81
697.171	5725.27
697.36	5692.5
697.549	5620.82
697.738	5616.72
697.927	5639.25
698.116	5758.03
698.305	5614.68
698.494	5696.6
698.683	5667.92
698.872	5758.03
699.061	5725.27
699.25	5491.8
699.438	5653.59
699.627	5657.68
699.816	5747.79
700.005	5592.15
700.193	5528.66
700.382	5608.53
700.571	5495.89
700.76	5676.12
700.948	5547.09
701.137	5518.42
701.326	5629.01
701.514	5590.1
701.703	5626.96
701.892	5452.89
702.08	5829.71
702.269	5577.81
702.457	5422.17
702.646	5579.86
702.834	5432.41
703.023	5528.66
703.212	5551.19
703.4	5602.39
703.589	5565.53
703.777	5551.19
703.965	5448.79
704.154	5450.84
704.342	5540.95
704.531	5450.84
704.719	5344.35
704.907	5471.32
705.096	5442.65
705.284	5598.29
705.472	5499.99
705.661	5344.35
705.849	5489.75
706.037	5366.87
706.226	5323.87
706.414	5356.63
706.602	5409.88
706.79	5401.69
706.979	5366.87
707.167	5272.67
707.355	5330.01
707.543	5246.04
707.731	5291.1
707.919	5342.3
708.107	5223.51
708.296	5182.56
708.484	5317.72
708.672	5319.77
708.86	5344.35
709.048	5305.43
709.236	5352.54
709.424	5106.78
709.612	5219.42
709.8	5391.45
709.988	5184.6
710.176	5332.06
710.364	5276.76
710.551	5184.6
710.739	5231.71
710.927	5356.63
711.115	5157.98
711.303	5160.03
711.491	5172.32
711.679	5090.4
711.866	5231.71
712.054	5076.06
712.242	5024.86
712.43	5149.79
712.617	5125.21
712.805	5143.64
712.993	5059.68
713.181	4949.09
713.368	5069.92
713.556	5100.64
713.744	4961.37
713.931	5176.41
714.119	4959.33
714.306	4881.5
714.494	4932.7
714.682	4936.8
714.869	5012.57
715.057	4895.84
715.244	4949.09
715.432	5035.1
715.619	4899.94
715.807	4818.02
715.994	4922.46
716.182	4856.93
716.369	4897.89
716.556	4940.9
716.744	4697.19
716.931	4781.15
717.119	4813.92
717.306	4672.61
717.493	4785.25
717.681	4783.2
717.868	4783.2
718.055	4713.57
718.242	4695.14
718.43	4635.75
718.617	4654.18
718.804	4721.76
718.991	4727.91
719.179	4600.93
719.366	4676.71
719.553	4676.71
719.74	4525.16
719.927	4803.68
720.114	4582.5
720.301	4516.97
720.488	4582.5
720.676	4586.6
720.863	4557.93
721.05	4637.8
721.237	4570.21
721.424	4562.02
721.611	4629.6
721.798	4492.39
721.985	4383.85
722.172	4471.91
722.358	4506.73
722.545	4537.45
722.732	4498.53
722.919	4478.05
723.106	4340.84
723.293	4381.8
723.48	4553.83
723.667	4459.62
723.853	4295.79
724.04	4521.06
724.227	4420.71
724.414	4383.85
724.6	4430.95
724.787	4306.02
724.974	4346.98
725.161	4430.95
725.347	4256.87
725.534	4482.15
725.72	4138.09
725.907	4308.07
726.094	4097.13
726.28	4115.56
726.467	4250.73
726.653	4156.52
726.84	4226.15
727.027	4254.83
727.213	4107.37
727.4	4324.46
727.586	4156.52
727.773	4154.48
727.959	4076.65
728.145	4271.21
728.332	4152.43
728.518	4064.36
728.705	4021.36
728.891	4113.52
729.077	4060.27
729.264	4033.65
729.45	3980.4
729.636	4088.94
729.823	4054.12
730.009	4187.24
730.195	4045.93
730.382	4090.99
730.568	3847.28
730.754	4093.04
730.94	4054.12
731.126	3918.96
731.313	4054.12
731.499	3820.66
731.685	3943.53
731.871	3933.29
732.057	3890.29
732.243	3923.05
732.429	3957.87
732.615	3906.67
732.801	3882.1
732.987	3783.79
733.173	3775.6
733.359	3660.91
733.545	3832.94
733.731	3658.87
733.917	3871.86
734.103	3865.71
734.289	3892.34
734.475	3712.11
734.661	3843.18
734.847	3837.04
735.033	3671.15
735.219	3689.59
735.404	3644.53
735.59	3634.29
735.776	3644.53
735.962	3650.67
736.148	3683.44
736.333	3613.81
736.519	3658.87
736.705	3630.2
736.89	3556.47
737.076	3548.28
737.262	3476.6
737.447	3509.37
737.633	3535.99
737.819	3558.52
738.004	3554.42
738.19	3665.01
738.375	3425.4
738.561	3474.55
738.747	3505.27
738.932	3425.4
739.118	3482.74
739.303	3372.15
739.489	3462.26
739.674	3372.15
739.859	3271.8
740.045	3396.73
740.23	3368.06
740.416	3314.81
740.601	3214.46
740.786	3267.7
740.972	3212.41
741.157	3253.37
741.342	3282.04
741.528	3286.14
741.713	3308.66
741.898	3232.89
742.084	3138.68
742.269	3277.94
742.454	3093.63
742.639	3226.75
742.824	3032.19
743.01	3234.94
743.195	3097.72
743.38	2974.85
743.565	3153.02
743.75	3054.72
743.935	3069.05
744.12	3007.61
744.305	3054.72
744.49	3036.28
744.675	3028.09
744.86	2927.74
745.045	3060.86
745.23	2911.36
745.415	2831.49
745.6	2897.02
745.785	2968.7
745.97	2827.39
746.155	2907.26
746.34	2915.45
746.525	2763.9
746.71	2901.12
746.895	2759.81
747.079	2696.32
747.264	2878.59
747.449	2802.82
747.634	2782.34
747.819	2712.71
748.003	2700.42
748.188	2686.08
748.373	2686.08
748.557	2737.28
748.742	2600.07
748.927	2630.79
749.111	2454.66
749.296	2487.43
749.481	2577.54
749.665	2526.34
749.85	2509.96
750.034	2620.55
750.219	2458.76
750.404	2518.15
750.588	2479.24
750.773	2323.59
750.957	2438.28
751.141	2339.97
751.326	2538.63
751.51	2370.69
751.695	2344.07
751.879	2423.94
752.064	2448.52
752.248	2307.21
752.432	2393.22
752.617	2370.69
752.801	2401.41
752.985	2274.44
753.17	2321.54
753.354	2358.41
753.538	2210.95
753.722	2227.34
753.907	2063.5
754.091	2169.99
754.275	2264.2
754.459	2088.07
754.643	2071.69
754.828	2225.29
755.012	2067.6
755.196	2092.17
755.38	2063.5
755.564	2106.51
755.748	2043.02
755.932	2038.92
756.116	2018.44
756.3	2055.31
756.484	1920.14
756.668	1883.28
756.852	1914
757.036	1916.05
757.22	1959.05
757.404	1832.08
757.588	1840.27
757.772	1889.42
757.956	1891.47
758.14	1971.34
758.323	1809.55
758.507	1780.88
758.691	1815.69
758.875	1830.03
759.059	2006.16
759.242	1768.59
759.426	1807.5
759.61	1795.22
759.794	1696.91
759.977	1817.74
760.161	1821.84
760.345	1762.45
760.528	1754.26
760.712	1799.31
760.895	1789.07
761.079	1774.74
761.263	1623.19
761.446	1711.25
761.63	1639.57
761.813	1694.86
761.997	1795.22
762.18	1569.94
762.364	1590.42
762.547	1606.8
762.731	1586.32
762.914	1614.99
763.098	1559.7
763.281	1565.84
763.464	1471.64
763.648	1645.71
763.831	1502.36
764.015	1504.4
764.198	1574.03
764.381	1580.18
764.564	1477.78
764.748	1514.64
764.931	1631.38
765.114	1526.93
765.297	1623.19
765.481	1426.58
765.664	1483.92
765.847	1436.82
766.03	1496.21
766.213	1522.84
766.397	1481.88
766.58	1412.25
766.763	1520.79
766.946	1459.35
767.129	1453.2
767.312	1451.16
767.495	1467.54
767.678	1442.96
767.861	1533.08
768.044	1389.72
768.227	1485.97
768.41	1514.64
768.593	1383.57
768.776	1434.77
768.959	1371.29
769.142	1381.53
769.324	1524.88
769.507	1455.25
769.69	1377.43
769.873	1320.09
770.056	1465.49
770.239	1361.05
770.421	1354.9
770.604	1393.81
770.787	1303.7
770.97	1375.38
771.152	1307.8
771.335	1379.48
771.518	1313.94
771.7	1313.94
771.883	1402.01
772.066	1234.07
772.248	1268.89
772.431	1361.05
772.613	1301.65
772.796	1238.17
772.978	1340.57
773.161	1295.51
773.343	1268.89
773.526	1223.83
773.708	1217.69
773.891	1209.5
774.073	1193.11
774.256	1086.62
774.438	1301.65
774.621	1203.35
774.803	1275.03
774.985	1201.3
775.168	1213.59
775.35	1162.39
775.532	1078.43
775.715	1131.67
775.897	1107.1
776.079	1107.1
776.261	1111.19
776.444	1205.4
776.626	1135.77
776.808	1117.34
776.99	1059.99
777.173	1080.47
777.355	1125.53
777.537	1111.19
777.719	1131.67
777.901	1111.19
778.083	1035.42
778.265	1002.65
778.447	1115.29
778.629	1033.37
778.811	984.22
778.993	1047.71
779.175	1049.75
779.357	951.45
779.539	986.27
779.721	922.78
779.903	965.79
780.085	935.07
780.267	1016.99
780.449	894.11
780.631	969.88
780.812	984.22
780.994	953.5
781.176	918.68
781.358	949.4
781.54	930.97
781.721	906.4
781.903	916.64
782.085	885.92
782.267	830.62
782.448	953.5
782.63	885.92
782.812	857.25
782.993	808.09
783.175	924.83
783.357	758.94
783.538	875.68
783.72	789.66
783.901	808.09
784.083	877.73
784.264	832.67
784.446	701.6
784.627	601.25
784.809	816.29
784.99	758.94
785.172	783.52
785.353	760.99
785.535	875.68
785.716	785.57
785.897	670.88
786.079	763.04
786.26	746.66
786.441	720.03
786.623	668.83
786.804	730.27
786.985	677.02
787.167	650.4
787.348	691.36
787.529	648.35
787.71	763.04
787.891	763.04
788.073	685.22
788.254	609.44
788.435	717.98
788.616	640.16
788.797	588.96
788.978	726.18
789.159	580.77
789.34	713.89
789.522	681.12
789.703	595.11
789.884	642.21
790.065	689.31
790.246	717.98
790.427	584.87
790.607	593.06
790.788	664.74
790.969	523.43
791.15	580.77
791.331	607.39
791.512	502.95
791.693	572.58
791.874	548
792.054	687.26
792.235	574.63
792.416	548
792.597	517.28
792.778	562.34
792.958	562.34
793.139	642.21
793.32	539.81
793.5	556.19
793.681	574.63
793.862	550.05
794.042	509.09
794.223	425.12
794.404	502.95
794.584	490.66
794.765	504.99
794.945	455.84
795.126	552.1
795.306	556.19
795.487	482.47
795.667	494.76
795.848	478.37
796.028	496.8
796.209	545.95
796.389	486.56
796.57	449.7
796.75	507.04
796.93	421.03
797.111	482.47
797.291	461.99
797.471	550.05
797.652	449.7
797.832	457.89
798.012	507.04
798.192	476.32
798.373	418.98
798.553	414.88
798.733	449.7
798.913	404.64
799.093	416.93
799.274	531.62
799.454	490.66
799.634	429.22
799.814	568.48
799.994	455.84
800.174	386.21
800.354	390.31
800.534	283.81
800.714	500.9
800.894	296.1
801.074	330.92
801.254	423.08
801.434	439.46
801.614	314.53
801.794	339.11
801.974	1189.02
802.154	421.03
802.334	386.21
802.514	357.54
802.693	320.68
802.873	418.98
803.053	445.6
803.233	292.01
803.413	386.21
803.592	365.73
803.772	351.4
803.952	386.21
804.131	388.26
804.311	363.69
804.491	449.7
804.67	265.38
804.85	302.25
805.03	402.6
805.209	392.36
805.389	363.69
805.568	345.25
805.748	281.77
805.928	378.02
806.107	349.35
806.287	320.68
806.466	273.57
806.646	324.77
806.825	371.88
807.004	267.43
807.184	263.33
807.363	435.36
807.543	300.2
807.722	351.4
807.901	324.77
808.081	365.73
808.26	208.04
808.439	294.05
808.619	318.63
808.798	330.92
808.977	269.48
809.156	253.09
809.336	281.77
809.515	306.34
809.694	203.94
809.873	201.9
810.052	294.05
810.231	341.16
810.411	222.38
810.59	302.25
810.769	324.77
810.948	365.73
811.127	205.99
811.306	289.96
811.485	220.33
811.664	380.07
811.843	236.71
812.022	257.19
812.201	273.57
812.38	134.31
812.559	232.62
812.737	353.45
812.916	246.95
813.095	222.38
813.274	255.14
813.453	240.81
813.632	273.57
813.811	281.77
813.989	246.95
814.168	320.68
814.347	193.7
814.526	226.47
814.704	316.58
814.883	269.48
815.062	197.8
815.24	353.45
815.419	191.66
815.598	304.29
815.776	105.64
815.955	220.33
816.133	152.74
816.312	138.41
816.49	197.8
816.669	238.76
816.847	214.18
817.026	214.18
817.204	162.98
817.383	249
817.561	175.27
817.74	197.8
817.918	236.71
818.097	224.42
818.275	113.83
818.453	222.38
818.632	195.75
818.81	214.18
818.988	222.38
819.167	220.33
819.345	187.56
819.523	136.36
819.701	197.8
819.879	193.7
820.058	117.93
820.236	210.09
820.414	300.2
820.592	220.33
820.77	162.98
820.948	148.65
821.127	228.52
821.305	195.75
821.483	193.7
821.661	197.8
821.839	261.29
822.017	201.9
822.195	199.85
822.373	179.37
822.551	201.9
822.729	246.95
822.907	136.36
823.085	216.23
823.262	234.66
823.44	156.84
823.618	136.36
823.796	156.84
823.974	177.32
824.152	156.84
824.329	183.46
824.507	150.7
824.685	171.18
824.863	154.79
825.04	144.55
825.218	152.74
825.396	152.74
825.574	169.13
825.751	128.17
825.929	240.81
826.107	197.8
826.284	152.74
826.462	236.71
826.639	91.31
826.817	81.07
826.994	177.32
827.172	97.45
827.349	177.32
827.527	171.18
827.704	160.94
827.882	177.32
828.059	60.59
828.237	76.97
828.414	165.03
828.591	111.78
828.769	103.59
828.946	177.32
829.124	185.51
829.301	226.47
829.478	91.31
829.655	251.05
829.833	119.98
830.01	117.93
830.187	222.38
830.364	160.94
830.542	156.84
830.719	187.56
830.896	203.94
831.073	193.7
831.25	160.94
831.427	91.31
831.604	117.93
831.782	140.46
831.959	95.4
832.136	144.55
832.313	89.26
832.49	148.65
832.667	171.18
832.844	191.66
833.021	201.9
833.198	156.84
833.374	107.69
833.551	115.88
833.728	99.5
833.905	158.89
834.082	66.73
834.259	107.69
834.436	165.03
834.612	109.74
834.789	162.98
834.966	115.88
835.143	165.03
835.319	85.16
835.496	87.21
835.673	144.55
835.85	117.93
836.026	171.18
836.203	242.85
836.38	25.77
836.556	148.65
836.733	76.97
836.909	205.99
837.086	89.26
837.262	83.11
837.439	132.26
837.616	95.4
837.792	93.35
837.968	97.45
838.145	101.55
838.321	111.78
838.498	115.88
838.674	58.54
838.851	62.63
839.027	99.5
839.203	101.55
839.38	64.68
839.556	68.78
839.732	169.13
839.909	72.87
840.085	126.12
840.261	132.26
840.437	119.98
840.614	70.83
840.79	132.26
840.966	99.5
841.142	87.21
841.318	95.4
841.494	152.74
841.671	195.75
841.847	29.87
842.023	85.16
842.199	154.79
842.375	117.93
842.551	44.2
842.727	70.83
842.903	122.02
843.079	60.59
843.255	79.02
843.431	91.31
843.607	91.31
843.783	27.82
843.959	109.74
844.134	83.11
844.31	162.98
844.486	56.49
844.662	-9.05
844.838	46.25
845.013	138.41
845.189	169.13
845.365	91.31
845.541	56.49
845.716	119.98
845.892	160.94
846.068	7.34
846.244	79.02
846.419	54.44
846.595	-56.15
846.77	3.24
846.946	111.78
847.122	87.21
847.297	115.88
847.473	162.98
847.648	23.72
847.824	140.46
847.999	1.19
848.175	56.49
848.35	132.26
848.526	115.88
848.701	115.88
848.876	146.6
849.052	171.18
849.227	68.78
849.403	74.92
849.578	107.69
849.753	72.87
849.929	62.63
850.104	38.06
850.279	68.78
850.454	64.68
850.63	101.55
850.805	44.2
850.98	138.41
851.155	58.54
851.33	111.78
851.505	-25.43
851.681	152.74
851.856	33.96
852.031	144.55
852.206	130.22
852.381	72.87
852.556	62.63
852.731	66.73
852.906	99.5
853.081	72.87
853.256	146.6
853.431	95.4
853.606	72.87
853.781	-2.9
853.956	13.48
854.131	109.74
854.305	64.68
854.48	40.11
854.655	-35.67
854.83	19.63
855.005	68.78
855.18	-0.85
855.354	50.35
855.529	48.3
855.704	50.35
855.879	91.31
856.053	-15.19
856.228	138.41
856.403	11.43
856.577	1.19
856.752	-0.85
856.926	50.35
857.101	48.3
857.276	103.59
857.45	68.78
857.625	56.49
857.799	87.21
857.974	124.07
858.148	25.77
858.323	48.3
858.497	42.15
858.672	9.39
858.846	-23.38
859.02	66.73
859.195	1.19
859.369	81.07
859.543	40.11
859.718	54.44
859.892	50.35
860.066	76.97
860.241	79.02
860.415	93.35
860.589	154.79
860.763	81.07
860.938	64.68
861.112	29.87
861.286	64.68
861.46	103.59
861.634	74.92
861.808	91.31
861.982	52.39
862.157	58.54
862.331	21.67
862.505	-9.05
862.679	3.24
862.853	83.11
863.027	50.35
863.201	117.93
863.375	31.91
863.549	17.58
863.722	-0.85
863.896	144.55
864.07	109.74
864.244	36.01
864.418	58.54
864.592	1.19
864.766	36.01
864.939	38.06
865.113	-31.57
865.287	85.16
865.461	1.19
865.634	33.96
865.808	17.58
865.982	40.11
866.156	36.01
866.329	-7
866.503	124.07
866.676	54.44
866.85	33.96
867.024	15.53
867.197	70.83
867.371	64.68
867.544	15.53
867.718	-2.9
867.891	148.65
868.065	44.2
868.238	-7
868.412	97.45
868.585	128.17
868.759	9.39
868.932	60.59
869.105	-80.72
869.279	23.72
869.452	-21.33
869.625	50.35
869.799	-0.85
869.972	29.87
870.145	42.15
870.319	19.63
870.492	29.87
870.665	33.96
870.838	79.02
871.011	21.67
871.185	68.78
871.358	42.15
871.531	1.19
871.704	58.54
871.877	-19.29
872.05	60.59
872.223	1.19
872.396	40.11
872.569	46.25
872.742	-39.76
872.915	62.63
873.088	-37.72
873.261	7.34
873.434	21.67
873.607	-47.96
873.78	103.59
873.953	-0.85
874.126	25.77
874.299	76.97
874.471	79.02
874.644	46.25
874.817	25.77
874.99	50.35
875.163	103.59
875.335	13.48
875.508	66.73
875.681	81.07
875.853	-17.24
876.026	76.97
876.199	119.98
876.371	23.72
876.544	58.54
876.717	33.96
876.889	142.5
877.062	64.68
877.234	1.19
877.407	50.35
877.579	-7
877.752	66.73
877.924	64.68
878.097	27.82
878.269	89.26
878.442	56.49
878.614	23.72
878.786	21.67
878.959	31.91
879.131	74.92
879.303	-72.53
879.476	11.43
879.648	70.83
879.82	97.45
879.993	54.44
880.165	58.54
880.337	-2.9
880.509	-33.62
880.681	52.39
880.854	48.3
881.026	33.96
881.198	58.54
881.37	-50
881.542	-31.57
881.714	42.15
881.886	50.35
882.058	33.96
882.23	91.31
882.402	27.82
882.574	54.44
882.746	-21.33
882.918	50.35
883.09	7.34
883.262	-17.24
883.434	76.97
883.606	-11.09
883.778	-9.05
883.95	134.31
884.122	-72.53
884.293	68.78
884.465	23.72
884.637	79.02
884.809	-4.95
884.98	-31.57
885.152	105.64
885.324	62.63
885.496	-29.52
885.667	42.15
885.839	-2.9
886.011	81.07
886.182	36.01
886.354	50.35
886.525	48.3
886.697	15.53
886.869	-2.9
887.04	31.91
887.212	85.16
887.383	31.91
887.555	29.87
887.726	48.3
887.897	36.01
888.069	38.06
888.24	93.35
888.412	81.07
888.583	3.24
888.754	60.59
888.926	-17.24
889.097	66.73
889.268	-146.26
889.44	99.5
889.611	5.29
889.782	72.87
889.953	-19.29
890.125	-9.05
890.296	-60.24
890.467	38.06
890.638	-9.05
890.809	-27.48
890.98	-50
891.151	17.58
891.323	5.29
891.494	31.91
891.665	101.55
891.836	-7
892.007	27.82
892.178	1.19
892.349	66.73
892.52	-7
892.691	40.11
892.862	-7
893.032	-4.95
893.203	33.96
893.374	5.29
893.545	36.01
893.716	21.67
893.887	113.83
894.057	-19.29
894.228	-19.29
894.399	-25.43
894.57	122.02
894.74	13.48
894.911	87.21
895.082	-62.29
895.253	-9.05
895.423	42.15
895.594	60.59
895.764	31.91
895.935	-45.91
896.106	44.2
896.276	-45.91
896.447	72.87
896.617	42.15
896.788	-13.14
896.958	66.73
897.129	33.96
897.299	13.48
897.47	113.83
897.64	107.69
897.81	15.53
897.981	81.07
898.151	7.34
898.322	101.55
898.492	40.11
898.662	-50
898.832	13.48
899.003	-15.19
899.173	15.53
899.343	-11.09
899.513	44.2
