Data from USB4F104151__44__12-12-04-197.txt Node

Date: Fri Mar 14 12:12:04 EDT 2025
User: louis
Spectrometer: USB4F10415
Trigger mode: 4
Integration Time (sec): 5.000000E-2
Scans to average: 1
Electric dark correction enabled: true
Nonlinearity correction enabled: false
Boxcar width: 0
XAxis mode: Wavelengths
Number of Pixels in Spectrum: 3648
>>>>>Begin Spectral Data<<<<<
178.204	-211.62
178.424	-211.62
178.644	-211.62
178.864	-275.11
179.084	-178.86
179.304	-119.46
179.524	-6.83
179.744	-12.97
179.964	71
180.184	136.53
180.404	19.8
180.624	-15.02
180.844	56.66
181.064	-33.45
181.283	-23.21
181.503	-76.46
181.723	3.41
181.943	-35.5
182.163	103.76
182.383	-74.41
182.602	77.14
182.822	54.61
183.042	40.28
183.262	91.48
183.482	105.81
183.701	-21.16
183.921	-6.83
184.141	-31.4
184.361	85.33
184.58	-10.92
184.8	81.24
185.02	21.84
185.239	144.72
185.459	118.1
185.679	44.37
185.898	-4.78
186.118	56.66
186.338	38.23
186.557	77.14
186.777	-4.78
186.997	-10.92
187.216	1.37
187.436	191.83
187.655	120.15
187.875	101.72
188.095	1.37
188.314	89.43
188.534	75.09
188.753	7.51
188.973	87.38
189.192	60.76
189.412	-25.26
189.631	-0.68
189.851	3.41
190.07	132.44
190.29	-70.31
190.509	38.23
190.729	11.61
190.948	48.47
191.168	245.07
191.387	60.76
191.607	-12.97
191.826	93.52
192.045	68.95
192.265	23.89
192.484	36.18
192.704	75.09
192.923	-41.64
193.142	197.97
193.362	93.52
193.581	114
193.8	116.05
194.02	75.09
194.239	48.47
194.458	89.43
194.678	-2.73
194.897	-25.26
195.116	3.41
195.335	-0.68
195.555	105.81
195.774	66.9
195.993	23.89
196.212	5.46
196.432	13.65
196.651	77.14
196.87	54.61
197.089	124.24
197.308	36.18
197.528	66.9
197.747	-4.78
197.966	48.47
198.185	148.82
198.404	-12.97
198.623	62.8
198.842	111.96
199.062	36.18
199.281	111.96
199.5	66.9
199.719	81.24
199.938	97.62
200.157	111.96
200.376	68.95
200.595	48.47
200.814	3.41
201.033	77.14
201.252	79.19
201.471	-21.16
201.69	85.33
201.909	21.84
202.128	116.05
202.347	56.66
202.566	68.95
202.785	60.76
203.004	48.47
203.223	152.91
203.442	93.52
203.661	85.33
203.879	3.41
204.098	138.58
204.317	-27.31
204.536	58.71
204.755	97.62
204.974	99.67
205.193	81.24
205.411	103.76
205.63	99.67
205.849	118.1
206.068	81.24
206.287	-2.73
206.505	99.67
206.724	148.82
206.943	83.28
207.162	118.1
207.381	56.66
207.599	21.84
207.818	99.67
208.037	-33.45
208.255	87.38
208.474	-62.12
208.693	79.19
208.911	30.04
209.13	54.61
209.349	79.19
209.567	91.48
209.786	97.62
210.005	1.37
210.223	-29.35
210.442	-19.11
210.661	42.32
210.879	60.76
211.098	48.47
211.316	101.72
211.535	71
211.753	56.66
211.972	101.72
212.191	60.76
212.409	19.8
212.628	25.94
212.846	5.46
213.065	103.76
213.283	68.95
213.502	97.62
213.72	118.1
213.938	-4.78
214.157	3.41
214.375	60.76
214.594	36.18
214.812	116.05
215.031	19.8
215.249	60.76
215.467	40.28
215.686	27.99
215.904	75.09
216.122	97.62
216.341	105.81
216.559	42.32
216.778	58.71
216.996	62.8
217.214	54.61
217.432	-62.12
217.651	-35.5
217.869	38.23
218.087	11.61
218.306	13.65
218.524	-27.31
218.742	52.56
218.96	73.04
219.179	-60.07
219.397	21.84
219.615	140.63
219.833	52.56
220.051	73.04
220.27	97.62
220.488	97.62
220.706	34.13
220.924	-19.11
221.142	5.46
221.36	60.76
221.578	50.52
221.796	99.67
222.015	73.04
222.233	56.66
222.451	105.81
222.669	7.51
222.887	64.85
223.105	-35.5
223.323	38.23
223.541	3.41
223.759	11.61
223.977	23.89
224.195	56.66
224.413	144.72
224.631	114
224.849	73.04
225.067	56.66
225.285	13.65
225.503	27.99
225.721	-78.51
225.939	62.8
226.157	73.04
226.375	193.87
226.592	-29.35
226.81	15.7
227.028	136.53
227.246	68.95
227.464	-64.17
227.682	30.04
227.9	64.85
228.117	1.37
228.335	-39.59
228.553	95.57
228.771	79.19
228.989	79.19
229.206	68.95
229.424	-0.68
229.642	7.51
229.86	7.51
230.077	46.42
230.295	23.89
230.513	85.33
230.731	50.52
230.948	77.14
231.166	48.47
231.384	23.89
231.601	-27.31
231.819	89.43
232.037	36.18
232.254	-45.74
232.472	77.14
232.689	38.23
232.907	148.82
233.125	15.7
233.342	68.95
233.56	-0.68
233.777	7.51
233.995	3.41
234.213	179.54
234.43	81.24
234.648	52.56
234.865	79.19
235.083	122.2
235.3	120.15
235.518	103.76
235.735	73.04
235.953	111.96
236.17	60.76
236.388	-6.83
236.605	91.48
236.822	95.57
237.04	101.72
237.257	64.85
237.475	32.08
237.692	91.48
237.909	81.24
238.127	-15.02
238.344	68.95
238.562	60.76
238.779	-60.07
238.996	30.04
239.214	58.71
239.431	150.87
239.648	27.99
239.865	75.09
240.083	44.37
240.3	11.61
240.517	75.09
240.735	52.56
240.952	114
241.169	93.52
241.386	91.48
241.603	17.75
241.821	60.76
242.038	118.1
242.255	11.61
242.472	27.99
242.689	114
242.907	83.28
243.124	23.89
243.341	-19.11
243.558	19.8
243.775	-27.31
243.992	7.51
244.209	17.75
244.426	152.91
244.643	83.28
244.86	71
245.078	25.94
245.295	1.37
245.512	175.44
245.729	27.99
245.946	44.37
246.163	71
246.38	13.65
246.597	54.61
246.814	68.95
247.031	42.32
247.248	52.56
247.464	-8.87
247.681	118.1
247.898	50.52
248.115	48.47
248.332	9.56
248.549	11.61
248.766	99.67
248.983	109.91
249.2	91.48
249.417	85.33
249.633	1.37
249.85	71
250.067	17.75
250.284	38.23
250.501	101.72
250.717	52.56
250.934	-51.88
251.151	-2.73
251.368	11.61
251.585	124.24
251.801	46.42
252.018	5.46
252.235	101.72
252.451	21.84
252.668	-66.22
252.885	89.43
253.102	144.72
253.318	27.99
253.535	13.65
253.752	101.72
253.968	48.47
254.185	-4.78
254.401	21.84
254.618	71
254.835	-8.87
255.051	161.11
255.268	50.52
255.484	54.61
255.701	81.24
255.917	126.29
256.134	17.75
256.351	120.15
256.567	13.65
256.784	71
257	17.75
257.217	124.24
257.433	99.67
257.65	64.85
257.866	79.19
258.082	7.51
258.299	85.33
258.515	130.39
258.732	58.71
258.948	44.37
259.165	95.57
259.381	50.52
259.597	95.57
259.814	11.61
260.03	-27.31
260.246	3.41
260.463	103.76
260.679	128.34
260.895	95.57
261.112	75.09
261.328	23.89
261.544	44.37
261.761	150.87
261.977	-31.4
262.193	-19.11
262.409	83.28
262.626	40.28
262.842	-25.26
263.058	44.37
263.274	71
263.49	64.85
263.707	93.52
263.923	89.43
264.139	11.61
264.355	62.8
264.571	66.9
264.787	54.61
265.004	130.39
265.22	-17.07
265.436	91.48
265.652	7.51
265.868	40.28
266.084	-0.68
266.3	181.59
266.516	3.41
266.732	93.52
266.948	42.32
267.164	34.13
267.38	56.66
267.596	5.46
267.812	120.15
268.028	75.09
268.244	56.66
268.46	83.28
268.676	85.33
268.892	81.24
269.108	17.75
269.324	3.41
269.54	-35.5
269.756	105.81
269.972	-31.4
270.188	52.56
270.403	-0.68
270.619	44.37
270.835	-51.88
271.051	17.75
271.267	-17.07
271.483	15.7
271.698	66.9
271.914	99.67
272.13	-33.45
272.346	44.37
272.562	21.84
272.777	101.72
272.993	-39.59
273.209	62.8
273.425	138.58
273.64	58.71
273.856	66.9
274.072	44.37
274.287	25.94
274.503	77.14
274.719	148.82
274.934	105.81
275.15	9.56
275.366	-4.78
275.581	23.89
275.797	-0.68
276.012	89.43
276.228	-19.11
276.444	36.18
276.659	114
276.875	1.37
277.09	-12.97
277.306	50.52
277.521	118.1
277.737	3.41
277.952	27.99
278.168	116.05
278.383	21.84
278.599	109.91
278.814	73.04
279.03	54.61
279.245	42.32
279.461	62.8
279.676	81.24
279.892	-15.02
280.107	56.66
280.322	52.56
280.538	54.61
280.753	-31.4
280.969	99.67
281.184	32.08
281.399	19.8
281.615	93.52
281.83	46.42
282.045	-21.16
282.26	19.8
282.476	52.56
282.691	25.94
282.906	21.84
283.122	56.66
283.337	56.66
283.552	38.23
283.767	46.42
283.983	120.15
284.198	58.71
284.413	54.61
284.628	-29.35
284.843	46.42
285.058	103.76
285.274	36.18
285.489	-12.97
285.704	83.28
285.919	71
286.134	44.37
286.349	44.37
286.564	-10.92
286.779	193.87
286.995	54.61
287.21	-8.87
287.425	85.33
287.64	48.47
287.855	68.95
288.07	-90.79
288.285	146.77
288.5	146.77
288.715	111.96
288.93	38.23
289.145	25.94
289.36	56.66
289.575	48.47
289.79	87.38
290.004	56.66
290.219	73.04
290.434	11.61
290.649	38.23
290.864	21.84
291.079	27.99
291.294	62.8
291.509	56.66
291.724	87.38
291.938	-15.02
292.153	68.95
292.368	71
292.583	81.24
292.798	150.87
293.012	111.96
293.227	38.23
293.442	-19.11
293.657	77.14
293.871	97.62
294.086	99.67
294.301	128.34
294.516	116.05
294.73	-29.35
294.945	-4.78
295.16	93.52
295.374	116.05
295.589	13.65
295.804	40.28
296.018	-27.31
296.233	77.14
296.447	64.85
296.662	54.61
296.877	101.72
297.091	60.76
297.306	19.8
297.52	34.13
297.735	50.52
297.949	83.28
298.164	163.15
298.378	105.81
298.593	-17.07
298.807	71
299.022	58.71
299.236	91.48
299.451	42.32
299.665	-8.87
299.88	1.37
300.094	9.56
300.309	25.94
300.523	52.56
300.737	44.37
300.952	15.7
301.166	91.48
301.381	40.28
301.595	71
301.809	71
302.024	42.32
302.238	30.04
302.452	134.48
302.667	-4.78
302.881	118.1
303.095	58.71
303.309	73.04
303.524	9.56
303.738	40.28
303.952	5.46
304.166	50.52
304.381	25.94
304.595	85.33
304.809	-53.93
305.023	56.66
305.237	66.9
305.452	50.52
305.666	75.09
305.88	93.52
306.094	23.89
306.308	87.38
306.522	42.32
306.736	132.44
306.95	30.04
307.164	36.18
307.379	-10.92
307.593	124.24
307.807	50.52
308.021	83.28
308.235	120.15
308.449	-17.07
308.663	62.8
308.877	107.86
309.091	116.05
309.305	128.34
309.519	19.8
309.733	77.14
309.947	-55.98
310.161	58.71
310.374	134.48
310.588	120.15
310.802	42.32
311.016	71
311.23	95.57
311.444	73.04
311.658	48.47
311.872	60.76
312.085	105.81
312.299	81.24
312.513	116.05
312.727	101.72
312.941	-43.69
313.154	13.65
313.368	-53.93
313.582	30.04
313.796	58.71
314.009	54.61
314.223	9.56
314.437	118.1
314.651	46.42
314.864	-49.83
315.078	77.14
315.292	15.7
315.505	128.34
315.719	66.9
315.933	52.56
316.146	54.61
316.36	56.66
316.573	99.67
316.787	118.1
317.001	116.05
317.214	62.8
317.428	48.47
317.641	-27.31
317.855	-39.59
318.068	-23.21
318.282	85.33
318.495	210.26
318.709	83.28
318.922	66.9
319.136	109.91
319.349	105.81
319.563	-21.16
319.776	91.48
319.99	25.94
320.203	97.62
320.417	15.7
320.63	42.32
320.843	150.87
321.057	56.66
321.27	-45.74
321.483	-8.87
321.697	111.96
321.91	-35.5
322.124	68.95
322.337	107.86
322.55	50.52
322.763	81.24
322.977	-41.64
323.19	-8.87
323.403	87.38
323.617	38.23
323.83	66.9
324.043	120.15
324.256	58.71
324.469	7.51
324.683	34.13
324.896	73.04
325.109	46.42
325.322	15.7
325.535	81.24
325.748	68.95
325.962	-41.64
326.175	79.19
326.388	7.51
326.601	62.8
326.814	99.67
327.027	85.33
327.24	138.58
327.453	15.7
327.666	99.67
327.879	122.2
328.092	44.37
328.305	32.08
328.518	-19.11
328.731	5.46
328.944	-29.35
329.157	154.96
329.37	23.89
329.583	79.19
329.796	95.57
330.009	27.99
330.222	118.1
330.435	77.14
330.648	83.28
330.861	30.04
331.073	36.18
331.286	68.95
331.499	-4.78
331.712	66.9
331.925	97.62
332.138	148.82
332.35	132.44
332.563	40.28
332.776	159.06
332.989	-21.16
333.202	120.15
333.414	-10.92
333.627	7.51
333.84	81.24
334.053	36.18
334.265	23.89
334.478	64.85
334.691	-0.68
334.903	13.65
335.116	60.76
335.329	95.57
335.541	68.95
335.754	163.15
335.966	79.19
336.179	77.14
336.392	62.8
336.604	42.32
336.817	97.62
337.029	38.23
337.242	15.7
337.454	73.04
337.667	30.04
337.88	218.45
338.092	32.08
338.305	3.41
338.517	60.76
338.729	46.42
338.942	122.2
339.154	50.52
339.367	34.13
339.579	181.59
339.792	-21.16
340.004	75.09
340.217	-6.83
340.429	77.14
340.641	-29.35
340.854	-10.92
341.066	103.76
341.278	142.68
341.491	107.86
341.703	21.84
341.915	46.42
342.128	85.33
342.34	46.42
342.552	21.84
342.764	75.09
342.977	46.42
343.189	126.29
343.401	66.9
343.613	5.46
343.826	75.09
344.038	17.75
344.25	40.28
344.462	50.52
344.674	32.08
344.886	3.41
345.099	111.96
345.311	40.28
345.523	-19.11
345.735	-21.16
345.947	83.28
346.159	-2.73
346.371	128.34
346.583	44.37
346.795	118.1
347.007	77.14
347.219	95.57
347.431	32.08
347.643	140.63
347.855	30.04
348.067	142.68
348.279	38.23
348.491	44.37
348.703	122.2
348.915	-2.73
349.127	32.08
349.339	32.08
349.551	95.57
349.763	140.63
349.975	95.57
350.187	118.1
350.399	130.39
350.61	73.04
350.822	36.18
351.034	124.24
351.246	120.15
351.458	83.28
351.669	81.24
351.881	60.76
352.093	105.81
352.305	159.06
352.517	54.61
352.728	173.39
352.94	44.37
353.152	111.96
353.363	5.46
353.575	99.67
353.787	191.83
353.999	40.28
354.21	93.52
354.422	-51.88
354.633	95.57
354.845	56.66
355.057	9.56
355.268	79.19
355.48	54.61
355.692	50.52
355.903	25.94
356.115	-58.03
356.326	64.85
356.538	179.54
356.749	89.43
356.961	136.53
357.172	42.32
357.384	-17.07
357.595	159.06
357.807	111.96
358.018	68.95
358.23	1.37
358.441	128.34
358.653	81.24
358.864	13.65
359.075	25.94
359.287	54.61
359.498	138.58
359.709	23.89
359.921	130.39
360.132	40.28
360.344	7.51
360.555	-2.73
360.766	93.52
360.977	5.46
361.189	144.72
361.4	34.13
361.611	118.1
361.823	142.68
362.034	126.29
362.245	38.23
362.456	50.52
362.667	17.75
362.879	40.28
363.09	136.53
363.301	134.48
363.512	30.04
363.723	79.19
363.935	32.08
364.146	114
364.357	52.56
364.568	71
364.779	50.52
364.99	136.53
365.201	79.19
365.412	187.73
365.623	-35.5
365.834	81.24
366.045	95.57
366.256	124.24
366.467	75.09
366.678	71
366.889	-23.21
367.1	114
367.311	79.19
367.522	40.28
367.733	124.24
367.944	154.96
368.155	79.19
368.366	175.44
368.577	118.1
368.788	189.78
368.999	-35.5
369.209	81.24
369.42	130.39
369.631	132.44
369.842	68.95
370.053	40.28
370.264	79.19
370.474	9.56
370.685	42.32
370.896	144.72
371.107	62.8
371.317	62.8
371.528	107.86
371.739	77.14
371.95	81.24
372.16	130.39
372.371	91.48
372.582	46.42
372.792	103.76
373.003	83.28
373.214	23.89
373.424	107.86
373.635	54.61
373.846	85.33
374.056	34.13
374.267	54.61
374.477	103.76
374.688	21.84
374.898	134.48
375.109	152.91
375.319	60.76
375.53	157.01
375.74	107.86
375.951	66.9
376.161	19.8
376.372	107.86
376.582	83.28
376.793	128.34
377.003	91.48
377.214	81.24
377.424	79.19
377.635	-0.68
377.845	23.89
378.055	140.63
378.266	77.14
378.476	17.75
378.686	118.1
378.897	75.09
379.107	161.11
379.317	71
379.528	87.38
379.738	71
379.948	95.57
380.158	136.53
380.369	87.38
380.579	97.62
380.789	73.04
380.999	103.76
381.21	109.91
381.42	134.48
381.63	40.28
381.84	23.89
382.05	116.05
382.261	169.3
382.471	177.49
382.681	36.18
382.891	220.5
383.101	97.62
383.311	36.18
383.521	9.56
383.731	60.76
383.941	118.1
384.151	17.75
384.361	93.52
384.571	27.99
384.781	66.9
384.991	148.82
385.201	165.2
385.411	122.2
385.621	142.68
385.831	62.8
386.041	60.76
386.251	159.06
386.461	191.83
386.671	93.52
386.881	62.8
387.091	-6.83
387.301	120.15
387.511	36.18
387.72	95.57
387.93	85.33
388.14	-62.12
388.35	77.14
388.56	66.9
388.769	161.11
388.979	99.67
389.189	52.56
389.399	9.56
389.609	109.91
389.818	103.76
390.028	87.38
390.238	126.29
390.447	38.23
390.657	81.24
390.867	34.13
391.076	1.37
391.286	75.09
391.496	95.57
391.705	42.32
391.915	157.01
392.125	187.73
392.334	103.76
392.544	118.1
392.753	120.15
392.963	83.28
393.172	128.34
393.382	109.91
393.591	175.44
393.801	19.8
394.01	222.55
394.22	130.39
394.429	73.04
394.639	109.91
394.848	197.97
395.058	73.04
395.267	107.86
395.477	118.1
395.686	142.68
395.895	195.92
396.105	245.07
396.314	46.42
396.524	81.24
396.733	120.15
396.942	185.68
397.152	95.57
397.361	146.77
397.57	95.57
397.78	107.86
397.989	56.66
398.198	212.31
398.407	163.15
398.617	136.53
398.826	165.2
399.035	232.79
399.244	146.77
399.453	165.2
399.663	177.49
399.872	226.64
400.081	128.34
400.29	111.96
400.499	107.86
400.708	161.11
400.917	138.58
401.127	134.48
401.336	132.44
401.545	193.87
401.754	187.73
401.963	200.02
402.172	122.2
402.381	150.87
402.59	154.96
402.799	232.79
403.008	255.31
403.217	200.02
403.426	177.49
403.635	111.96
403.844	142.68
404.053	159.06
404.262	234.83
404.471	200.02
404.68	208.21
404.888	222.55
405.097	157.01
405.306	204.11
405.515	222.55
405.724	185.68
405.933	206.16
406.142	281.94
406.35	243.03
406.559	216.4
406.768	318.8
406.977	378.19
407.185	277.84
407.394	324.94
407.603	195.92
407.812	349.52
408.02	392.53
408.229	447.82
408.438	365.9
408.646	349.52
408.855	324.94
409.064	431.44
409.272	460.11
409.481	490.83
409.69	384.34
409.898	447.82
410.107	468.3
410.315	529.74
410.524	437.58
410.733	472.4
410.941	578.89
411.15	593.23
411.358	752.97
411.567	673.1
411.775	591.18
411.984	648.52
412.192	701.77
412.401	662.86
412.609	744.78
412.818	789.83
413.026	773.45
413.234	732.49
413.443	816.46
413.651	808.26
413.86	900.42
414.068	1054.02
414.276	1006.92
414.485	988.49
414.693	970.05
414.901	1094.98
415.11	1181
415.318	1133.89
415.526	1170.76
415.734	1166.66
415.943	1170.76
416.151	1334.59
416.359	1410.37
416.567	1301.83
416.776	1418.56
416.984	1520.96
417.192	1586.49
417.4	1611.07
417.608	1576.25
417.817	1592.64
418.025	1774.91
418.233	1881.4
418.441	1758.52
418.649	1860.92
418.857	1846.59
419.065	2123.06
419.273	1957.18
419.481	2151.73
419.689	2366.77
419.897	2358.58
420.105	2460.98
420.313	2391.34
420.521	2581.81
420.729	2546.99
420.937	2667.82
421.145	2780.46
421.353	2895.15
421.561	2960.68
421.769	3167.52
421.977	3384.61
422.185	3224.87
422.393	3362.08
422.601	3716.38
422.809	3493.15
423.017	3611.93
423.224	3730.72
423.432	4021.53
423.64	3904.79
423.848	4295.96
424.056	4156.69
424.263	4480.27
424.471	4547.86
424.679	4656.4
424.887	4709.65
425.094	4957.45
425.302	5057.8
425.51	5135.62
425.718	5221.64
425.925	5422.34
426.133	5580.03
426.341	5700.86
426.548	6053.11
426.756	5936.38
426.964	6235.38
427.171	6464.75
427.379	6599.92
427.586	6780.14
427.794	7159.02
428.001	7216.36
428.209	7640.29
428.417	7419.11
428.624	8099.03
428.832	8158.42
429.039	8047.83
429.247	7863.52
429.454	8848.59
429.662	9432.26
429.869	8662.23
430.076	9245.9
430.284	8950.99
430.491	9456.84
430.699	10056.89
430.906	9923.77
431.114	10042.56
431.321	10669.23
431.528	10671.28
431.736	11304.1
431.943	11633.83
432.15	11510.95
432.358	11682.98
432.565	12330.14
432.772	11965.6
432.979	12575.89
433.187	12864.66
433.394	13018.25
433.601	13921.41
433.808	14066.81
434.016	13798.53
434.223	14462.07
434.43	15275.12
434.637	15035.5
434.844	15856.74
435.052	16342.11
435.259	16151.65
435.466	16028.77
435.673	15799.4
435.88	17259.6
436.087	17964.1
436.294	17853.51
436.501	17392.72
436.708	17730.63
436.915	18404.41
437.122	19405.87
437.329	19407.92
437.537	19870.76
437.743	20263.97
437.95	19989.54
438.157	21183.51
438.364	21691.4
438.571	21693.45
438.778	21826.57
438.985	23499.76
439.192	22623.23
439.399	23385.07
439.606	22866.94
439.813	24173.54
440.02	25639.89
440.227	25326.55
440.433	24695.77
440.64	25947.08
440.847	25369.55
441.054	26260.42
441.261	27780.01
441.467	27380.66
441.674	28158.89
441.881	28683.17
442.088	28951.45
442.294	28664.74
442.501	29627.28
442.708	29854.61
442.914	31120.25
443.121	32404.33
443.328	31449.97
443.534	33536.85
443.741	32631.65
443.948	32174.95
444.154	34509.64
444.361	34220.88
444.568	34261.83
444.774	34351.95
444.981	34745.16
445.187	35466.04
445.394	37110.56
445.6	36954.91
445.807	40215.28
446.013	38134.54
446.22	38830.85
446.426	40551.15
446.633	41030.37
446.839	42384.08
447.046	40579.82
447.252	42549.96
447.459	42375.89
447.665	42461.9
447.871	44659.37
448.078	45963.93
448.284	44024.5
448.491	45320.87
448.697	46684.81
448.903	47450.75
449.11	47241.86
449.316	46645.9
449.522	47723.13
449.728	48976.49
449.935	48611.95
450.141	48364.15
450.347	50195.03
450.553	48261.75
450.76	48650.86
450.966	50534.99
451.172	49916.51
451.378	51122.76
451.584	49887.84
451.791	50862.67
451.997	51071.56
452.203	51485.25
452.409	51673.66
452.615	51018.31
452.821	49242.73
453.027	49003.11
453.233	51677.76
453.44	49455.71
453.646	50023
453.852	49789.53
454.058	51087.95
454.264	49386.08
454.47	50209.37
454.676	48812.65
454.882	50295.38
455.088	45937.3
455.294	46758.54
455.5	47286.92
455.705	47780.48
455.911	45621.92
456.117	44911.27
456.323	43965.11
456.529	42216.15
456.735	43915.96
456.941	42687.18
457.147	42068.69
457.352	40442.6
457.558	39975.67
457.764	40258.29
457.97	39547.64
458.176	38333.2
458.381	38540.04
458.587	36479.78
458.793	36498.22
458.999	34626.37
459.204	37083.94
459.41	35881.78
459.616	33805.14
459.821	33731.41
460.027	33112.92
460.233	32801.63
460.438	31157.11
460.644	31484.79
460.85	30024.59
461.055	29254.55
461.261	29305.75
461.466	27110.33
461.672	26405.83
461.878	28160.94
462.083	26448.83
462.289	25711.56
462.494	25318.35
462.7	24384.48
462.905	23434.22
463.111	24402.91
463.316	24458.21
463.522	24212.45
463.727	24249.32
463.932	23800.81
464.138	23630.83
464.343	23888.87
464.549	22543.36
464.754	23423.98
464.959	23413.74
465.165	23337.97
465.37	22254.59
465.575	21715.98
465.781	22795.26
465.986	22916.09
466.191	22027.27
466.397	21068.82
466.602	20366.37
466.807	20997.14
467.012	21003.28
467.218	20653.08
467.423	20708.38
467.628	20978.71
467.833	21511.18
468.038	20415.52
468.244	19866.66
468.449	20665.37
468.654	20206.62
468.859	20036.64
469.064	20010.02
469.269	19190.83
469.474	19399.73
469.679	19518.51
469.885	18951.22
470.09	19356.72
470.295	19194.93
470.5	18639.93
470.705	18736.18
470.91	18234.43
471.115	18170.94
471.32	18515
471.525	18295.87
471.73	17753.16
471.935	17644.62
472.139	17263.69
472.344	17439.82
472.549	16796.76
472.754	16786.52
472.959	16569.43
473.164	16278.62
473.369	15785.06
473.574	16708.69
473.778	16319.58
473.983	15993.95
474.188	16194.65
474.393	15496.3
474.598	15549.54
474.802	15090.8
475.007	15039.6
475.212	15162.48
475.417	14500.98
475.621	14472.31
475.826	14750.84
476.031	14376.06
476.235	13950.08
476.44	14351.48
476.645	14075.01
476.849	14091.39
477.054	13798.53
477.259	13536.39
477.463	13517.96
477.668	13237.39
477.872	13341.83
478.077	13118.61
478.282	12801.17
478.486	12870.8
478.691	12719.25
478.895	12659.86
479.1	12514.45
479.304	12469.4
479.509	12176.54
479.713	12561.56
479.918	12059.81
480.122	11807.91
480.326	12162.2
480.531	11916.45
480.735	11814.05
480.94	11822.24
481.144	12145.82
481.348	11695.27
481.553	11693.22
481.757	11297.96
481.961	11687.07
482.166	11617.44
482.37	11797.67
482.574	11261.1
482.778	11437.22
482.983	11566.24
483.187	11599.01
483.391	11668.64
483.595	11365.54
483.8	11127.98
484.004	11269.29
484.208	11513
484.412	11580.58
484.616	11404.46
484.821	11273.39
485.025	11213.99
485.229	11394.22
485.433	11340.97
485.637	11140.27
485.841	11312.3
486.045	11316.39
486.249	11228.33
486.453	11148.46
486.657	11406.5
486.861	11259.05
487.065	10972.33
487.269	11289.77
487.473	11158.7
487.677	11209.9
487.881	11248.81
488.085	11314.34
488.289	11332.78
488.493	11205.8
488.697	11529.38
488.901	11211.95
489.105	11326.63
489.309	11365.54
489.512	11410.6
489.716	11582.63
489.92	11504.81
490.124	11408.55
490.328	11652.26
490.531	11431.08
490.735	11578.53
490.939	11625.64
491.143	11506.85
491.346	11635.88
491.55	11986.08
491.754	11754.66
491.958	11730.08
492.161	11545.77
492.365	11658.4
492.569	11734.18
492.772	11654.31
492.976	11768.99
493.18	11885.73
493.383	12113.05
493.587	12047.52
493.79	12199.07
493.994	12293.27
494.197	12356.76
494.401	12197.02
494.605	12471.45
494.808	12371.1
495.012	12375.19
495.215	12596.37
495.419	12829.84
495.622	12547.22
495.825	12874.9
496.029	12786.83
496.232	13145.23
496.436	12995.73
496.639	13376.65
496.843	13388.94
497.046	13685.89
497.249	13741.19
497.453	13819.01
497.656	14048.38
497.859	14015.62
498.063	13962.37
498.266	14462.07
498.469	14447.74
498.673	14537.85
498.876	14505.08
499.079	14972.02
499.282	14640.25
499.485	15178.86
499.689	15240.3
499.892	15285.36
500.095	15465.58
500.298	15750.25
500.501	15699.05
500.705	16254.05
500.908	16282.72
501.111	16245.85
501.314	16516.19
501.517	16630.87
501.72	16665.69
501.923	16888.92
502.126	17263.69
502.329	17445.96
502.532	17626.18
502.735	17683.53
502.938	18119.74
503.141	18078.79
503.344	18148.42
503.547	18418.75
503.75	18435.13
503.953	18752.57
504.156	18975.8
504.359	19067.95
504.562	19371.05
504.765	19733.54
504.968	19551.28
505.17	20139.04
505.373	19895.33
505.576	20294.69
505.779	20646.94
505.982	20489.24
506.185	21103.64
506.387	21195.79
506.59	21199.89
506.793	21767.18
506.996	21355.54
507.198	22332.42
507.401	22297.6
507.604	22459.39
507.807	22854.65
508.009	22752.25
508.212	22834.17
508.415	23288.82
508.617	23639.02
508.82	23704.56
509.022	23243.76
509.225	23923.69
509.428	24443.87
509.63	24665.05
509.833	24415.2
510.035	25144.28
510.238	25070.55
510.44	25496.53
510.643	25613.26
510.845	25803.72
511.048	25646.03
511.25	26078.15
511.453	26450.88
511.655	27390.9
511.858	26694.59
512.06	26913.72
512.262	27222.97
512.465	27165.62
512.667	27722.67
512.87	28097.45
513.072	28079.02
513.274	28470.18
513.477	28844.96
513.679	29004.7
513.881	29072.28
514.084	29567.89
514.286	29584.27
514.488	29426.58
514.69	30108.55
514.893	30530.44
515.095	30550.92
515.297	30593.92
515.499	30669.7
515.701	31234.94
515.904	31202.17
516.106	31671.15
516.308	32109.42
516.51	32168.81
516.712	31820.66
516.914	32707.43
517.116	32983.9
517.318	33106.78
517.52	33106.78
517.722	33456.98
517.925	33899.34
518.127	34132.81
518.329	34102.09
518.531	33880.91
518.733	34992.96
518.935	34919.23
519.136	34876.23
519.338	35371.83
519.54	35443.51
519.742	35982.13
519.944	35877.68
520.146	36299.56
520.348	36295.47
520.55	36352.81
520.752	36555.56
520.954	37464.86
521.155	36617
521.357	37237.53
521.559	37714.71
521.761	38271.76
521.963	37800.72
522.164	37911.31
522.366	38179.6
522.568	38800.13
522.77	38208.27
522.971	38892.29
523.173	38927.11
523.375	39265.02
523.576	39115.52
523.778	39234.3
523.98	39711.48
524.181	40323.82
524.383	39754.49
524.584	40006.39
524.786	40233.71
524.988	40106.74
525.189	40495.85
525.391	40489.71
525.592	40633.07
525.794	40991.46
525.995	40938.21
526.197	40686.31
526.398	41181.92
526.6	41540.32
526.801	41544.41
527.003	41593.56
527.204	41655
527.406	41870.04
527.607	41485.02
527.808	41906.9
528.01	41409.25
528.211	42111.7
528.412	42429.13
528.614	42590.92
528.815	42210
529.016	42431.18
529.218	42095.32
529.419	42199.76
529.62	42240.72
529.822	42244.82
530.023	42603.21
530.224	42431.18
530.425	42556.11
530.626	42060.5
530.828	42054.36
531.029	42834.63
531.23	42418.89
531.431	42355.41
531.632	42795.72
531.833	42676.94
532.035	42304.21
532.236	42879.69
532.437	42736.33
532.638	42605.26
532.839	42588.88
533.04	43031.24
533.241	42314.45
533.442	43305.66
533.643	42531.53
533.844	42603.21
534.045	42771.14
534.246	42355.41
534.447	42576.59
534.648	42476.24
534.849	42808.01
535.05	42558.16
535.251	42670.79
535.451	42515.15
535.652	42721.99
535.853	42494.67
536.054	42789.58
536.255	42695.37
536.456	42054.36
536.657	42715.85
536.857	42410.7
537.058	42396.37
537.259	43104.96
537.46	42228.43
537.66	42402.51
537.861	42621.64
538.062	42400.46
538.263	42711.75
538.463	42324.69
538.664	42203.86
538.865	42537.68
539.065	42566.35
539.266	42097.36
539.466	42844.87
539.667	41945.81
539.868	42613.45
540.068	41951.96
540.269	42191.57
540.469	42558.16
540.67	42199.76
540.87	42250.96
541.071	42091.22
541.271	42234.58
541.472	41886.42
541.672	42289.87
541.873	42035.92
542.073	41706.2
542.274	42404.56
542.474	42062.55
542.675	41874.13
542.875	42472.14
543.075	42154.71
543.276	41413.34
543.476	42185.43
543.676	41915.09
543.877	42242.77
544.077	41915.09
544.277	41908.95
544.478	42050.26
544.678	42048.21
544.878	41808.6
545.078	42253.01
545.279	42054.36
545.479	41587.42
545.679	41923.29
545.879	41710.3
546.079	41646.81
546.28	42027.73
546.48	41667.29
546.68	41990.87
546.88	41542.36
547.08	41816.79
547.28	41480.92
547.48	41128.67
547.68	41685.72
547.88	41568.99
548.081	41749.21
548.281	41470.68
548.481	41208.54
548.681	41923.29
548.881	41503.45
549.081	41777.88
549.28	41454.3
549.48	41970.39
549.68	41519.84
549.88	42158.8
550.08	41210.59
550.28	41620.19
550.48	41515.74
550.68	41761.5
550.88	41376.48
551.08	41077.47
551.279	41528.03
551.479	41245.41
551.679	41427.68
551.879	41566.94
552.079	41456.35
552.278	41292.51
552.478	41204.45
552.678	41378.53
552.878	41374.43
553.077	41056.99
553.277	40850.15
553.477	41450.2
553.676	41192.16
553.876	41421.53
554.076	40970.98
554.275	41198.3
554.475	40598.25
554.674	41030.37
554.874	41140.96
555.074	40688.36
555.273	41300.7
555.473	41022.18
555.672	41036.52
555.872	40938.21
556.071	41091.81
556.271	41278.18
556.47	41208.54
556.67	40741.61
556.869	41083.62
557.068	41003.75
557.268	40864.49
557.467	40817.38
557.667	40950.5
557.866	40848.1
558.065	41192.16
558.265	40600.3
558.464	40712.94
558.663	40682.22
558.863	40276.72
559.062	41501.4
559.261	40620.78
559.461	41030.37
559.66	40391.4
559.859	40526.57
560.058	40108.79
560.258	40516.33
560.457	40336.11
560.656	41038.56
560.855	40415.98
561.054	40485.61
561.253	40442.6
561.453	40364.78
561.652	40628.97
561.851	40405.74
562.05	40174.32
562.249	40540.91
562.448	40524.52
562.647	40098.55
562.846	40198.9
563.045	40458.99
563.244	39963.38
563.443	40221.42
563.642	39983.86
563.841	40239.86
564.04	39987.96
564.239	40659.69
564.438	39813.88
564.637	40055.54
564.836	40098.55
565.035	40076.02
565.234	40176.37
565.432	39705.34
565.631	40086.26
565.83	40078.07
566.029	39975.67
566.228	40180.46
566.427	39799.54
566.625	39553.79
566.824	39457.53
567.023	39850.74
567.222	39234.3
567.42	40033.01
567.619	39852.79
567.818	39613.18
568.016	39652.09
568.215	39924.47
568.414	39430.91
568.612	39531.26
568.811	39748.34
569.01	39467.77
569.208	39158.53
569.407	39531.26
569.605	39092.99
569.804	39727.86
570.002	39244.54
570.201	39271.17
570.4	38800.13
570.598	39277.31
570.797	39285.5
570.995	39228.16
571.193	38986.5
571.392	39242.49
571.59	39236.35
571.789	39285.5
571.987	39103.23
572.186	38677.26
572.384	38722.31
572.582	39117.57
572.781	39015.17
572.979	38593.29
573.177	38660.87
573.376	38759.17
573.574	38349.58
573.772	39070.47
573.971	38941.44
574.169	38497.03
574.367	38253.33
574.565	38583.05
574.763	38423.31
574.962	38796.04
575.16	38247.18
575.358	38521.61
575.556	38064.91
575.754	38855.43
575.952	38048.53
576.151	38515.47
576.349	37964.56
576.547	37659.41
576.745	37948.18
576.943	37669.65
577.141	37829.4
577.339	37978.9
577.537	37958.42
577.735	37735.19
577.933	37665.56
578.131	38155.02
578.329	37522.2
578.527	37507.86
578.725	37376.79
578.923	38036.24
579.121	37886.74
579.319	37255.96
579.516	37919.51
579.714	37575.45
579.912	37186.33
580.11	37196.57
580.308	37810.96
580.506	37374.75
580.704	36875.04
580.901	37245.72
581.099	37651.22
581.297	37010.21
581.495	37296.92
581.692	37169.95
581.89	36774.69
582.088	37243.68
582.285	36965.15
582.483	37499.67
582.681	36893.47
582.878	36928.29
583.076	36827.94
583.274	37303.07
583.471	36479.78
583.669	36238.12
583.866	36584.23
584.064	36916
584.262	36252.46
584.459	36588.33
584.657	36465.45
584.854	36524.84
585.052	36068.14
585.249	36500.26
585.447	36420.39
585.644	36395.82
585.841	36035.38
586.039	36891.43
586.236	36102.96
586.434	35912.5
586.631	35697.46
586.828	36064.05
587.026	36348.71
587.223	35691.32
587.42	35908.4
587.618	36047.66
587.815	35879.73
588.012	35337.02
588.21	35638.07
588.407	36209.45
588.604	35265.34
588.801	35732.28
588.999	35613.49
589.196	35560.25
589.393	35588.92
589.59	35412.79
589.787	35416.89
589.984	35406.65
590.182	35025.73
590.379	35576.63
590.576	35013.44
590.773	35050.3
590.97	35181.37
591.167	35679.03
591.364	35068.73
591.561	35232.57
591.758	35005.25
591.955	35142.46
592.152	35294.01
592.349	35154.75
592.546	35021.63
592.743	34925.38
592.94	34466.63
593.137	35146.56
593.334	35199.8
593.531	34720.58
593.727	35056.45
593.924	35048.25
594.121	34855.75
594.318	35046.21
594.515	34665.28
594.712	34952
594.908	34388.81
595.105	35101.5
595.302	34483.02
595.499	34575.17
595.696	34861.89
595.892	34323.27
596.089	35056.45
596.286	34566.98
596.482	34653
596.679	34681.67
596.876	34814.79
597.072	34640.71
597.269	34958.14
597.466	34304.84
597.662	34868.03
597.859	34782.02
598.055	34732.87
598.252	34696
598.448	34933.57
598.645	34534.21
598.841	34313.03
599.038	34687.81
599.234	35064.64
599.431	34499.4
599.627	34552.65
599.824	34591.56
600.02	34612.04
600.217	34822.98
600.413	34839.36
600.609	34683.72
600.806	34835.27
601.002	35031.87
601.198	34650.95
601.395	34562.89
601.591	34618.18
601.787	34820.93
601.984	34833.22
602.18	35279.68
602.376	35056.45
602.572	35038.01
602.769	34882.37
602.965	34603.85
603.161	34704.2
603.357	34997.06
603.553	35183.42
603.75	35410.75
603.946	34968.38
604.142	35253.05
604.338	34655.04
604.534	35062.59
604.73	34704.2
604.926	34741.06
605.122	35666.74
605.318	35181.37
605.514	34685.76
605.71	34804.55
605.906	35388.22
606.102	35044.16
606.298	35420.98
606.494	35517.24
606.69	35613.49
606.886	35648.31
607.082	35238.72
607.278	35978.03
607.474	35261.24
607.67	36184.88
607.866	35146.56
608.062	36172.59
608.257	36330.28
608.453	36070.19
608.649	36412.2
608.845	35947.31
609.041	36123.44
609.236	36395.82
609.432	36381.48
609.628	36369.19
609.824	36264.75
610.019	36479.78
610.215	36942.63
610.411	37081.89
610.606	37202.72
610.802	37198.62
610.998	37227.29
611.193	37319.45
611.389	37288.73
611.584	37307.16
611.78	37032.74
611.976	37614.36
612.171	37739.29
612.367	37839.64
612.562	37640.98
612.758	37466.91
612.953	37597.98
613.149	38124.3
613.344	37772.05
613.539	38789.89
613.735	38376.2
613.93	38431.5
614.126	38138.64
614.321	38441.74
614.517	38595.34
614.712	38748.93
614.907	38669.06
615.103	39183.1
615.298	38578.95
615.493	39629.56
615.688	38687.5
615.884	39365.37
616.079	38941.44
616.274	39580.41
616.47	39723.77
616.665	39848.69
616.86	39762.68
617.055	39736.06
617.25	39744.25
617.445	40053.49
617.641	39447.29
617.836	39936.76
618.031	39875.32
618.226	40104.69
618.421	40350.45
618.616	40139.5
618.811	39998.19
619.006	40661.74
619.201	39766.77
619.396	40569.58
619.591	40329.97
619.786	40387.31
619.981	39723.77
620.176	40286.96
620.371	39930.61
620.566	40379.12
620.761	40424.17
620.956	40835.81
621.151	39766.77
621.346	40506.09
621.541	39867.12
621.735	40575.72
621.93	39951.09
622.125	40426.22
622.32	39768.82
622.515	40200.94
622.709	39615.22
622.904	40270.57
623.099	39947
623.294	39717.62
623.488	39555.83
623.683	40116.98
623.878	39404.28
624.072	39990
624.267	39676.66
624.462	39226.11
624.656	39502.59
624.851	39555.83
625.046	38656.78
625.24	39256.83
625.435	38851.33
625.629	39090.94
625.824	38832.9
626.018	38857.48
626.213	38148.88
626.407	38382.35
626.602	38288.14
626.796	38755.08
626.991	38537.99
627.185	38372.11
627.38	38056.72
627.574	37917.46
627.768	37982.99
627.963	38091.54
628.157	37999.38
628.352	37899.03
628.546	37454.62
628.74	37829.4
628.935	37632.79
629.129	37391.13
629.323	37114.65
629.517	37202.72
629.712	37081.89
629.906	37563.16
630.1	36829.99
630.294	37157.66
630.489	36965.15
630.683	37104.42
630.877	36629.29
631.071	36430.63
631.265	36651.81
631.459	36404.01
631.653	36399.91
631.848	36256.56
632.042	36176.69
632.236	36109.1
632.43	35763
632.624	36021.04
632.818	35732.28
633.012	35521.34
633.206	35314.49
633.4	35382.07
633.594	35103.55
633.788	35441.46
633.982	35576.63
634.176	35144.51
634.369	34804.55
634.563	34843.46
634.757	34241.35
634.951	34777.92
635.145	34767.68
635.339	34829.12
635.533	34155.34
635.726	34249.55
635.92	33805.14
636.114	34161.48
636.308	34368.33
636.501	33778.51
636.695	33588.05
636.889	33293.15
637.083	33586
637.276	33229.66
637.47	33549.14
637.664	33243.99
637.857	33164.12
638.051	33012.57
638.244	32990.05
638.438	32734.05
638.632	32693.09
638.825	32467.81
639.019	32455.53
639.212	32023.4
639.406	32119.66
639.599	31832.94
639.793	32185.19
639.986	31499.12
640.18	31585.14
640.373	31677.3
640.567	31042.43
640.76	31200.12
640.954	30815.1
641.147	30913.41
641.34	30884.73
641.534	30821.25
641.727	30659.46
641.92	30800.77
642.114	30399.37
642.307	30411.65
642.5	30237.58
642.694	29557.65
642.887	29748.11
643.08	30258.06
643.273	29725.58
643.467	29723.54
643.66	29445.01
643.853	28953.5
644.046	28648.35
644.239	28957.6
644.432	28662.69
644.626	28732.32
644.819	28556.19
645.012	28412.84
645.205	28320.68
645.398	28175.27
645.591	27575.22
645.784	28042.15
645.977	27755.44
646.17	27599.79
646.363	27499.44
646.556	27220.92
646.749	27390.9
646.942	27050.94
647.135	27114.42
647.328	27081.66
647.521	26520.51
647.714	26190.79
647.907	26309.57
648.099	26217.41
648.292	26497.99
648.485	26366.92
648.678	25955.27
648.871	25682.89
649.064	25545.68
649.256	25881.55
649.449	25297.88
649.642	25269.2
649.835	25131.99
650.027	25019.35
650.22	24976.34
650.413	24437.73
650.605	24513.5
650.798	24613.85
650.991	24122.34
651.183	24271.84
651.376	23806.95
651.568	23874.54
651.761	23829.48
651.954	23651.31
652.146	23432.18
652.339	23366.64
652.531	23061.49
652.724	22809.59
652.916	22547.45
653.109	22567.93
653.301	22862.84
653.494	23030.77
653.686	22012.93
653.879	22524.93
654.071	21998.6
654.263	21730.31
654.456	21765.13
654.648	21756.94
654.84	21672.97
655.033	21470.22
655.225	21388.3
655.417	21107.73
655.61	20886.55
655.802	21019.67
655.994	20810.78
656.186	20784.15
656.379	20290.59
656.571	20577.31
656.763	20296.74
656.955	20229.15
657.148	20337.69
657.34	19758.12
657.532	19706.92
657.724	19274.8
657.916	19551.28
658.108	19508.27
658.3	19254.32
658.492	19207.22
658.684	18654.26
658.876	18490.43
659.068	18660.41
659.26	18424.89
659.452	18369.6
659.644	18488.38
659.836	18146.37
660.028	18089.03
660.22	17757.25
660.412	17667.14
660.604	17372.24
660.796	17423.44
660.988	17108.05
661.18	17073.23
661.372	16913.49
661.563	16987.22
661.755	16499.8
661.947	16735.32
662.139	16319.58
662.331	16491.61
662.522	16004.19
662.714	16153.69
662.906	16010.34
663.097	15778.92
663.289	15610.98
663.481	15494.25
663.673	15502.44
663.864	15400.04
664.056	15060.08
664.247	15512.68
664.439	14869.62
664.631	15045.74
664.822	14750.84
665.014	14802.04
665.205	14601.33
665.397	14578.81
665.588	14355.58
665.78	14376.06
665.971	14339.19
666.163	14165.12
666.354	14097.53
666.546	14075.01
666.737	13706.37
666.929	13806.72
667.12	13454.47
667.311	13575.3
667.503	13302.92
667.694	13452.42
667.885	13347.98
668.077	13241.48
668.268	12956.82
668.459	13102.22
668.651	12848.27
668.842	12917.9
669.033	12661.91
669.224	12616.85
669.416	12768.4
669.607	12459.16
669.798	12330.14
669.989	12463.26
670.18	12194.97
670.371	12260.51
670.563	12051.61
670.754	12194.97
670.945	11764.9
671.136	12125.34
671.327	11834.53
671.518	11685.03
671.709	11762.85
671.9	11789.47
672.091	11394.22
672.282	11519.14
672.473	11422.89
672.664	11494.57
672.855	11103.4
673.046	11402.41
673.237	11353.26
673.428	11048.11
673.619	11144.36
673.809	11142.32
674	10773.68
674.191	10947.76
674.382	11025.58
674.573	10658.99
674.764	11007.15
674.954	11001.01
675.145	10818.74
675.336	10613.94
675.527	10632.37
675.717	10720.43
675.908	10296.5
676.099	10431.67
676.289	10411.19
676.48	10376.38
676.671	10128.57
676.861	10364.09
677.052	10220.73
677.243	10038.46
677.433	10144.95
677.624	10237.11
677.814	10118.33
678.005	9972.93
678.195	9817.28
678.386	10003.64
678.576	9819.33
678.767	9854.14
678.957	9831.62
679.148	9755.84
679.338	9921.73
679.529	9620.67
679.719	9620.67
679.909	9710.79
680.1	9561.28
680.29	9495.75
680.481	9788.61
680.671	9368.77
680.861	9354.44
681.052	9436.36
681.242	9364.68
681.432	9546.95
681.622	9102.54
681.813	9477.32
682.003	9202.89
682.193	9159.88
682.383	9479.36
682.573	9305.29
682.764	9123.02
682.954	9309.38
683.144	9260.23
683.334	9096.39
683.524	9106.63
683.714	9313.48
683.904	8819.92
684.094	8963.28
684.284	8922.32
684.474	9266.38
684.664	8891.6
684.854	9092.3
685.044	8928.46
685.234	8793.3
685.424	9043.15
685.614	8959.18
685.804	9096.39
685.994	9139.4
686.184	9020.62
686.374	8824.01
686.564	8950.99
686.753	8731.86
686.943	9032.91
687.133	8948.94
687.323	8887.5
687.513	8869.07
687.702	8615.12
687.892	8752.34
688.082	8959.18
688.272	8826.06
688.461	8733.9
688.651	8668.37
688.841	8565.97
689.03	8742.1
689.22	8651.99
689.41	8578.26
689.599	8711.38
689.789	8748.24
689.979	8662.23
690.168	8764.62
690.358	8553.68
690.547	8686.8
690.737	8602.83
690.926	8621.27
691.116	8484.05
691.305	8701.14
691.495	8553.68
691.684	8531.16
691.874	8748.24
692.063	8649.94
692.252	8512.72
692.442	8445.14
692.631	8361.17
692.82	8617.17
693.01	8297.69
693.199	8287.45
693.388	8441.04
693.578	8520.92
693.767	8422.61
693.956	8467.67
694.146	8164.57
694.335	8428.76
694.524	8389.85
694.713	8400.09
694.902	8344.79
695.092	8189.14
695.281	8176.86
695.47	8336.6
695.659	8049.88
695.848	8223.96
696.037	8133.85
696.226	8131.8
696.415	8156.38
696.604	8236.25
696.793	7970.01
696.982	8119.51
697.171	8197.34
697.36	8078.55
697.549	7984.35
697.738	8029.4
697.927	7992.54
698.116	8056.03
698.305	7898.33
698.494	7894.24
698.683	7931.1
698.872	8066.27
699.061	7992.54
699.25	7781.6
699.438	7836.89
699.627	7781.6
699.816	7951.58
700.005	7734.5
700.193	7671.01
700.382	7814.37
700.571	7492.83
700.76	7789.79
700.948	7642.34
701.137	7408.87
701.326	7679.2
701.514	7617.76
701.703	7447.78
701.892	7455.97
702.08	7470.31
702.269	7521.51
702.457	7304.42
702.646	7232.74
702.834	7322.85
703.023	7273.7
703.212	7288.04
703.4	7298.28
703.589	7150.82
703.777	7292.13
703.965	7238.89
704.154	7210.22
704.342	7058.67
704.531	7271.65
704.719	7097.58
704.907	7175.4
705.096	7054.57
705.284	6952.17
705.472	6870.25
705.661	6853.87
705.849	7044.33
706.037	6898.92
706.226	6706.41
706.414	6849.77
706.602	6767.85
706.79	6882.54
706.979	6671.6
707.167	6718.7
707.355	6679.79
707.543	6747.37
707.731	6757.61
707.919	6642.93
708.107	6687.98
708.296	6493.43
708.484	6440.18
708.672	6599.92
708.86	6591.73
709.048	6599.92
709.236	6370.55
709.424	6440.18
709.612	6448.37
709.8	6175.99
709.988	6317.3
710.176	6407.41
710.364	6202.61
710.551	6276.34
710.739	6348.02
710.927	6313.2
711.115	5985.53
711.303	6206.71
711.491	6122.74
711.679	5977.34
711.866	6098.17
712.054	6216.95
712.242	6114.55
712.43	6053.11
712.617	5852.41
712.805	5915.9
712.993	5942.52
713.181	5938.43
713.368	5940.47
713.556	6141.18
713.744	5639.42
713.931	5813.5
714.119	5811.45
714.306	6077.69
714.494	5756.16
714.682	5715.2
714.869	5530.88
715.057	5770.49
715.244	5653.76
715.432	5688.57
715.619	5668.09
715.807	5567.74
715.994	5432.58
716.182	5637.38
716.369	5346.56
716.556	5453.06
716.744	5350.66
716.931	5508.35
717.119	5336.32
717.306	5436.67
717.493	5258.5
717.681	5309.7
717.868	5254.41
718.055	5471.49
718.242	5244.17
718.43	5106.95
718.617	5082.38
718.804	5113.1
718.991	5098.76
719.179	5276.93
719.366	5102.86
719.553	5076.23
719.74	5025.03
719.927	4904.2
720.114	5051.66
720.301	5063.94
720.488	4844.81
720.676	4810
720.863	5008.65
721.05	4918.54
721.237	4635.92
721.424	4793.61
721.611	4787.47
721.798	4726.03
721.985	4685.07
722.172	4572.43
722.358	4646.16
722.545	4652.3
722.732	4666.64
722.919	4687.12
723.106	4566.29
723.293	4642.06
723.48	4445.46
723.667	4453.65
723.853	4629.77
724.04	4732.17
724.227	4578.58
724.414	4564.24
724.6	4443.41
724.787	4486.42
724.974	4386.07
725.161	4531.47
725.347	4207.89
725.534	4318.48
725.72	4369.68
725.907	4318.48
726.094	4289.81
726.28	4250.9
726.467	4128.02
726.653	4105.49
726.84	4377.87
727.027	4388.11
727.213	4142.36
727.4	4132.12
727.586	4011.29
727.773	4107.54
727.959	4193.56
728.145	4164.89
728.332	4009.24
728.518	4136.21
728.705	4025.62
728.891	3994.9
729.077	3912.99
729.264	4015.38
729.45	3919.13
729.636	3908.89
729.823	3904.79
730.009	3968.28
730.195	3859.74
730.382	3962.14
730.568	3816.73
730.754	3941.66
730.94	3835.16
731.126	3829.02
731.313	3798.3
731.499	3759.39
731.685	3884.31
731.871	3837.21
732.057	3663.13
732.243	3689.76
732.429	3626.27
732.615	3747.1
732.801	3624.22
732.987	3790.11
733.173	3589.41
733.359	3714.33
733.545	3552.54
733.731	3601.69
733.917	3566.88
734.103	3583.26
734.289	3536.16
734.475	3513.63
734.661	3536.16
734.847	3605.79
735.033	3384.61
735.219	3417.38
735.404	3392.8
735.59	3525.92
735.776	3415.33
735.962	3388.71
736.148	3355.94
736.333	3441.95
736.519	3360.03
736.705	3247.4
736.89	3327.27
737.076	3286.31
737.262	3212.58
737.447	3241.25
737.633	3136.81
737.819	3372.32
738.004	3122.47
738.19	3183.91
738.375	3130.66
738.561	3261.73
738.747	3149.09
738.932	3196.2
739.118	3112.23
739.303	3063.08
739.489	3210.53
739.674	3018.02
739.859	3083.56
740.045	3030.31
740.23	2917.67
740.416	2956.58
740.601	3026.22
740.786	3042.6
740.972	2862.38
741.157	3009.83
741.342	2911.53
741.528	2889
741.713	2927.91
741.898	2968.87
742.084	2876.71
742.269	2876.71
742.454	2897.19
742.639	2786.6
742.824	2757.93
743.01	2778.41
743.195	2893.1
743.38	2735.4
743.565	2768.17
743.75	2663.72
743.935	2694.44
744.12	2694.44
744.305	2585.9
744.49	2743.6
744.675	2610.48
744.86	2686.25
745.045	2663.72
745.23	2563.37
745.415	2575.66
745.6	2598.19
745.785	2542.89
745.97	2555.18
746.155	2460.98
746.34	2448.69
746.525	2602.29
746.71	2495.79
746.895	2510.13
747.079	2503.98
747.264	2407.73
747.449	2590
747.634	2428.21
747.819	2411.82
748.003	2379.06
748.188	2309.43
748.373	2442.54
748.557	2415.92
748.742	2233.65
748.927	2264.37
749.111	2231.6
749.296	2372.91
749.481	2245.94
749.665	2213.17
749.85	2219.32
750.034	2225.46
750.219	2182.45
750.404	2186.55
750.588	2268.47
750.773	2024.76
750.957	2196.79
751.141	2137.4
751.326	2088.25
751.51	2086.2
751.695	2088.25
751.879	2035
752.064	2110.77
752.248	2016.57
752.432	2123.06
752.617	2049.33
752.801	2061.62
752.985	1926.46
753.17	2030.9
753.354	1971.51
753.538	1983.8
753.722	1951.03
753.907	1865.02
754.091	2016.57
754.275	1893.69
754.459	1834.3
754.643	1838.39
754.828	1924.41
755.012	1836.35
755.196	1766.71
755.38	1797.43
755.564	1822.01
755.748	1785.15
755.932	1738.04
756.116	1750.33
756.3	1766.71
756.484	1852.73
756.668	1666.36
756.852	1623.36
757.036	1721.66
757.22	1756.47
757.404	1643.84
757.588	1668.41
757.772	1647.93
757.956	1660.22
758.14	1600.83
758.323	1666.36
758.507	1656.12
758.691	1733.95
758.875	1639.74
759.059	1656.12
759.242	1711.42
759.426	1684.8
759.61	1531.2
759.794	1551.68
759.977	1594.68
760.161	1723.71
760.345	1566.01
760.528	1631.55
760.712	1586.49
760.895	1633.6
761.079	1494.33
761.263	1514.81
761.446	1400.13
761.63	1525.05
761.813	1510.72
761.997	1414.46
762.18	1459.52
762.364	1457.47
762.547	1381.7
762.731	1469.76
762.914	1510.72
763.098	1416.51
763.281	1451.33
763.464	1295.68
763.648	1404.22
763.831	1291.59
764.015	1279.3
764.198	1377.6
764.381	1334.59
764.564	1471.81
764.748	1467.71
764.931	1310.02
765.114	1416.51
765.297	1455.42
765.481	1262.91
765.664	1314.11
765.847	1381.7
766.03	1453.38
766.213	1361.22
766.397	1281.35
766.58	1230.15
766.763	1418.56
766.946	1275.2
767.129	1281.35
767.312	1307.97
767.495	1330.5
767.678	1275.2
767.861	1336.64
768.044	1330.5
768.227	1269.06
768.41	1310.02
768.593	1277.25
768.776	1160.52
768.959	1258.82
769.142	1361.22
769.324	1264.96
769.507	1207.62
769.69	1264.96
769.873	1357.12
770.056	1328.45
770.239	1240.39
770.421	1207.62
770.604	1269.06
770.787	1189.19
770.97	1221.95
771.152	1187.14
771.335	1199.43
771.518	1162.56
771.7	1193.28
771.883	1215.81
772.066	1250.63
772.248	1084.74
772.431	1152.32
772.613	1297.73
772.796	1154.37
772.978	1201.47
773.161	1211.71
773.343	1148.23
773.526	1176.9
773.708	1066.31
773.891	1185.09
774.073	1074.5
774.256	1045.83
774.438	1295.68
774.621	1164.61
774.803	1170.76
774.985	1101.12
775.168	1133.89
775.35	1035.59
775.532	1070.4
775.715	1045.83
775.897	1088.84
776.079	1019.21
776.261	1045.83
776.444	990.53
776.626	1066.31
776.808	1076.55
776.99	1004.87
777.173	1000.77
777.355	943.43
777.537	1027.4
777.719	982.34
777.901	992.58
778.083	974.15
778.265	949.57
778.447	994.63
778.629	994.63
778.811	951.62
778.993	959.81
779.175	1037.64
779.357	939.33
779.539	841.03
779.721	904.52
779.903	922.95
780.085	879.94
780.267	939.33
780.449	914.76
780.631	961.86
780.812	904.52
780.994	849.22
781.176	843.08
781.358	884.04
781.54	906.57
781.721	804.17
781.903	849.22
782.085	881.99
782.267	832.84
782.448	709.96
782.63	781.64
782.812	820.55
782.993	836.94
783.175	828.74
783.357	785.74
783.538	748.87
783.72	718.15
783.901	757.07
784.083	800.07
784.264	816.46
784.446	701.77
784.627	707.91
784.809	773.45
784.99	771.4
785.172	755.02
785.353	757.07
785.535	765.26
785.716	726.35
785.897	685.39
786.079	709.96
786.26	718.15
786.441	671.05
786.623	529.74
786.804	619.85
786.985	660.81
787.167	712.01
787.348	601.42
787.529	728.39
787.71	681.29
787.891	636.24
788.073	611.66
788.254	630.09
788.435	644.43
788.616	603.47
788.797	562.51
788.978	634.19
789.159	548.17
789.34	652.62
789.522	548.17
789.703	660.81
789.884	521.55
790.065	603.47
790.246	630.09
790.427	548.17
790.607	582.99
790.788	613.71
790.969	519.5
791.15	642.38
791.331	464.21
791.512	505.17
791.693	533.84
791.874	441.68
792.054	578.89
792.235	626
792.416	523.6
792.597	470.35
792.778	513.36
792.958	537.93
793.139	488.78
793.32	542.03
793.5	396.62
793.681	521.55
793.862	478.54
794.042	494.93
794.223	386.38
794.404	462.16
794.584	439.63
794.765	443.73
794.945	453.97
795.126	548.17
795.306	566.6
795.487	501.07
795.667	425.29
795.848	472.4
796.028	429.39
796.209	453.97
796.389	417.1
796.57	433.49
796.75	470.35
796.93	398.67
797.111	425.29
797.291	359.76
797.471	431.44
797.652	404.82
797.832	351.57
798.012	415.05
798.192	370
798.373	347.47
798.553	408.91
798.733	501.07
798.913	324.94
799.093	419.15
799.274	394.58
799.454	365.9
799.634	331.09
799.814	398.67
799.994	484.69
800.174	408.91
800.354	376.14
800.534	355.66
800.714	357.71
800.894	281.94
801.074	286.03
801.254	351.57
801.434	443.73
801.614	322.9
801.794	339.28
801.974	1414.46
802.154	378.19
802.334	398.67
802.514	335.18
802.693	345.42
802.873	281.94
803.053	351.57
803.233	347.47
803.413	390.48
803.592	306.51
803.772	359.76
803.952	290.13
804.131	283.98
804.311	378.19
804.491	417.1
804.67	236.88
804.85	351.57
805.03	351.57
805.209	374.1
805.389	255.31
805.568	286.03
805.748	267.6
805.928	333.14
806.107	310.61
806.287	320.85
806.466	298.32
806.646	259.41
806.825	283.98
807.004	279.89
807.184	337.23
807.363	296.27
807.543	310.61
807.722	234.83
807.901	349.52
808.081	302.42
808.26	173.39
808.439	261.46
808.619	245.07
808.798	290.13
808.977	302.42
809.156	292.18
809.336	269.65
809.515	363.86
809.694	261.46
809.873	232.79
810.052	337.23
810.231	347.47
810.411	316.75
810.59	286.03
810.769	261.46
810.948	304.46
811.127	218.45
811.306	214.35
811.485	169.3
811.664	292.18
811.843	265.55
812.022	234.83
812.201	200.02
812.38	152.91
812.559	185.68
812.737	247.12
812.916	200.02
813.095	191.83
813.274	232.79
813.453	157.01
813.632	361.81
813.811	283.98
813.989	189.78
814.168	212.31
814.347	138.58
814.526	243.03
814.704	339.28
814.883	292.18
815.062	103.76
815.24	263.51
815.419	191.83
815.598	179.54
815.776	138.58
815.955	306.51
816.133	142.68
816.312	193.87
816.49	138.58
816.669	212.31
816.847	271.7
817.026	189.78
817.204	126.29
817.383	177.49
817.561	224.59
817.74	109.91
817.918	218.45
818.097	165.2
818.275	202.07
818.453	150.87
818.632	234.83
818.81	173.39
818.988	200.02
819.167	173.39
819.345	177.49
819.523	173.39
819.701	189.78
819.879	195.92
820.058	111.96
820.236	148.82
820.414	183.63
820.592	140.63
820.77	197.97
820.948	126.29
821.127	189.78
821.305	220.5
821.483	167.25
821.661	204.11
821.839	183.63
822.017	165.2
822.195	183.63
822.373	200.02
822.551	118.1
822.729	200.02
822.907	200.02
823.085	226.64
823.262	142.68
823.44	124.24
823.618	122.2
823.796	165.2
823.974	148.82
824.152	118.1
824.329	179.54
824.507	165.2
824.685	157.01
824.863	200.02
825.04	124.24
825.218	154.96
825.396	165.2
825.574	120.15
825.751	79.19
825.929	136.53
826.107	68.95
826.284	159.06
826.462	130.39
826.639	126.29
826.817	103.76
826.994	185.68
827.172	138.58
827.349	222.55
827.527	150.87
827.704	146.77
827.882	120.15
828.059	144.72
828.237	93.52
828.414	208.21
828.591	23.89
828.769	118.1
828.946	128.34
829.124	173.39
829.301	175.44
829.478	87.38
829.655	52.56
829.833	171.35
830.01	118.1
830.187	165.2
830.364	126.29
830.542	181.59
830.719	189.78
830.896	101.72
831.073	140.63
831.25	142.68
831.427	226.64
831.604	136.53
831.782	109.91
831.959	34.13
832.136	79.19
832.313	17.75
832.49	187.73
832.667	138.58
832.844	85.33
833.021	101.72
833.198	132.44
833.374	75.09
833.551	103.76
833.728	52.56
833.905	122.2
834.082	54.61
834.259	195.92
834.436	165.2
834.612	66.9
834.789	132.44
834.966	134.48
835.143	107.86
835.319	44.37
835.496	177.49
835.673	107.86
835.85	177.49
836.026	134.48
836.203	152.91
836.38	93.52
836.556	124.24
836.733	79.19
836.909	251.22
837.086	19.8
837.262	81.24
837.439	93.52
837.616	46.42
837.792	15.7
837.968	148.82
838.145	60.76
838.321	11.61
838.498	109.91
838.674	116.05
838.851	114
839.027	64.85
839.203	66.9
839.38	38.23
839.556	19.8
839.732	120.15
839.909	85.33
840.085	42.32
840.261	17.75
840.437	75.09
840.614	83.28
840.79	44.37
840.966	138.58
841.142	79.19
841.318	1.37
841.494	46.42
841.671	38.23
841.847	81.24
842.023	83.28
842.199	107.86
842.375	111.96
842.551	3.41
842.727	83.28
842.903	159.06
843.079	25.94
843.255	118.1
843.431	38.23
843.607	77.14
843.783	-4.78
843.959	89.43
844.134	9.56
844.31	60.76
844.486	-58.03
844.662	48.47
844.838	83.28
845.013	87.38
845.189	89.43
845.365	91.48
845.541	77.14
845.716	101.72
845.892	99.67
846.068	38.23
846.244	3.41
846.419	32.08
846.595	46.42
846.77	42.32
846.946	128.34
847.122	87.38
847.297	15.7
847.473	89.43
847.648	40.28
847.824	64.85
847.999	25.94
848.175	56.66
848.35	46.42
848.526	146.77
848.701	87.38
848.876	64.85
849.052	83.28
849.227	46.42
849.403	71
849.578	42.32
849.753	66.9
849.929	13.65
850.104	50.52
850.279	93.52
850.454	68.95
850.63	116.05
850.805	38.23
850.98	-70.31
851.155	-15.02
851.33	68.95
851.505	-15.02
851.681	128.34
851.856	19.8
852.031	105.81
852.206	107.86
852.381	5.46
852.556	42.32
852.731	154.96
852.906	75.09
853.081	103.76
853.256	62.8
853.431	73.04
853.606	48.47
853.781	-37.55
853.956	27.99
854.131	89.43
854.305	44.37
854.48	-6.83
854.655	-6.83
854.83	7.51
855.005	111.96
855.18	66.9
855.354	85.33
855.529	62.8
855.704	30.04
855.879	87.38
856.053	21.84
856.228	126.29
856.403	44.37
856.577	27.99
856.752	1.37
856.926	19.8
857.101	38.23
857.276	-15.02
857.45	25.94
857.625	38.23
857.799	73.04
857.974	60.76
858.148	-12.97
858.323	71
858.497	-6.83
858.672	-4.78
858.846	-55.98
859.02	138.58
859.195	-17.07
859.369	62.8
859.543	56.66
859.718	52.56
859.892	85.33
860.066	103.76
860.241	-58.03
860.415	-35.5
860.589	-27.31
860.763	87.38
860.938	30.04
861.112	95.57
861.286	42.32
861.46	17.75
861.634	64.85
861.808	83.28
861.982	-37.55
862.157	77.14
862.331	34.13
862.505	93.52
862.679	7.51
862.853	15.7
863.027	7.51
863.201	89.43
863.375	30.04
863.549	101.72
863.722	7.51
863.896	150.87
864.07	-12.97
864.244	-19.11
864.418	15.7
864.592	46.42
864.766	-29.35
864.939	91.48
865.113	38.23
865.287	107.86
865.461	3.41
865.634	62.8
865.808	5.46
865.982	32.08
866.156	52.56
866.329	9.56
866.503	23.89
866.676	95.57
866.85	7.51
867.024	48.47
867.197	44.37
867.371	34.13
867.544	30.04
867.718	-19.11
867.891	89.43
868.065	42.32
868.238	107.86
868.412	36.18
868.585	9.56
868.759	-31.4
868.932	62.8
869.105	-35.5
869.279	-19.11
869.452	19.8
869.625	91.48
869.799	83.28
869.972	60.76
870.145	5.46
870.319	77.14
870.492	17.75
870.665	19.8
870.838	25.94
871.011	44.37
871.185	97.62
871.358	60.76
871.531	89.43
871.704	21.84
871.877	-37.55
872.05	36.18
872.223	-27.31
872.396	99.67
872.569	48.47
872.742	-37.55
872.915	66.9
873.088	-6.83
873.261	-12.97
873.434	73.04
873.607	-10.92
873.78	40.28
873.953	40.28
874.126	-10.92
874.299	62.8
874.471	-35.5
874.644	-12.97
874.817	73.04
874.99	114
875.163	1.37
875.335	34.13
875.508	-0.68
875.681	105.81
875.853	15.7
876.026	34.13
876.199	44.37
876.371	23.89
876.544	101.72
876.717	-17.07
876.889	-37.55
877.062	38.23
877.234	25.94
877.407	32.08
877.579	56.66
877.752	56.66
877.924	103.76
878.097	122.2
878.269	11.61
878.442	58.71
878.614	34.13
878.786	-17.07
878.959	40.28
879.131	79.19
879.303	-103.08
879.476	79.19
879.648	73.04
879.82	11.61
879.993	-55.98
880.165	52.56
880.337	-76.46
880.509	27.99
880.681	9.56
880.854	11.61
881.026	109.91
881.198	91.48
881.37	11.61
881.542	25.94
881.714	42.32
881.886	48.47
882.058	44.37
882.23	68.95
882.402	-45.74
882.574	13.65
882.746	66.9
882.918	109.91
883.09	50.52
883.262	36.18
883.434	-4.78
883.606	40.28
883.778	-31.4
883.95	114
884.122	36.18
884.293	30.04
884.465	-21.16
884.637	25.94
884.809	17.75
884.98	-8.87
885.152	13.65
885.324	91.48
885.496	-41.64
885.667	46.42
885.839	36.18
886.011	58.71
886.182	1.37
886.354	-45.74
886.525	42.32
886.697	111.96
886.869	-49.83
887.04	-45.74
887.212	46.42
887.383	38.23
887.555	-12.97
887.726	32.08
887.897	-4.78
888.069	40.28
888.24	40.28
888.412	54.61
888.583	1.37
888.754	30.04
888.926	3.41
889.097	-4.78
889.268	32.08
889.44	64.85
889.611	-0.68
889.782	-19.11
889.953	-15.02
890.125	30.04
890.296	-58.03
890.467	17.75
890.638	46.42
890.809	21.84
890.98	17.75
891.151	-8.87
891.323	32.08
891.494	30.04
891.665	-58.03
891.836	-49.83
892.007	128.34
892.178	79.19
892.349	-55.98
892.52	-74.41
892.691	32.08
892.862	-78.51
893.032	-53.93
893.203	-4.78
893.374	50.52
893.545	-25.26
893.716	-84.65
893.887	40.28
894.057	36.18
894.228	3.41
894.399	7.51
894.57	77.14
894.74	-15.02
894.911	81.24
895.082	1.37
895.253	19.8
895.423	34.13
895.594	11.61
895.764	40.28
895.935	-88.75
896.106	111.96
896.276	-12.97
896.447	5.46
896.617	9.56
896.788	-10.92
896.958	-21.16
897.129	11.61
897.299	-2.73
897.47	17.75
897.64	27.99
897.81	-2.73
897.981	52.56
898.151	17.75
898.322	42.32
898.492	111.96
898.662	-33.45
898.832	-39.59
899.003	-39.59
899.173	93.52
899.343	30.04
899.513	13.65
