Data from USB4F104151__16__12-11-37-710.txt Node

Date: Fri Mar 14 12:11:37 EDT 2025
User: louis
Spectrometer: USB4F10415
Trigger mode: 4
Integration Time (sec): 5.000000E-2
Scans to average: 1
Electric dark correction enabled: true
Nonlinearity correction enabled: false
Boxcar width: 0
XAxis mode: Wavelengths
Number of Pixels in Spectrum: 3648
>>>>>Begin Spectral Data<<<<<
178.204	-269.82
178.424	-269.82
178.644	-269.82
178.864	-218.62
179.084	-165.37
179.304	35.33
179.524	-34.3
179.744	-17.92
179.964	23.04
180.184	-17.92
180.404	10.75
180.624	-5.63
180.844	-17.92
181.064	-97.79
181.283	33.28
181.503	31.23
181.723	57.86
181.943	-36.35
182.163	88.57
182.383	-13.82
182.602	2.56
182.822	88.57
183.042	16.9
183.262	-38.4
183.482	68.09
183.701	-3.58
183.921	29.18
184.141	-5.63
184.361	68.09
184.58	27.14
184.8	29.18
185.02	41.47
185.239	-1.54
185.459	57.86
185.679	55.81
185.898	-79.36
186.118	53.76
186.338	-11.78
186.557	78.33
186.777	-5.63
186.997	-15.87
187.216	-5.63
187.436	51.71
187.655	49.66
187.875	37.38
188.095	-9.73
188.314	49.66
188.534	123.39
188.753	-40.45
188.973	0.51
189.192	51.71
189.412	16.9
189.631	23.04
189.851	55.81
190.07	55.81
190.29	18.94
190.509	12.8
190.729	55.81
190.948	96.77
191.168	254.46
191.387	53.76
191.607	-17.92
191.826	14.85
192.045	-11.78
192.265	-1.54
192.484	14.85
192.704	-17.92
192.923	45.57
193.142	135.68
193.362	90.62
193.581	68.09
193.8	74.24
194.02	90.62
194.239	-19.97
194.458	-26.11
194.678	10.75
194.897	2.56
195.116	16.9
195.335	-15.87
195.555	23.04
195.774	18.94
195.993	51.71
196.212	-32.26
196.432	-1.54
196.651	100.86
196.87	-32.26
197.089	139.77
197.308	64
197.528	27.14
197.747	-13.82
197.966	45.57
198.185	96.77
198.404	-26.11
198.623	39.42
198.842	0.51
199.062	64
199.281	100.86
199.5	-11.78
199.719	61.95
199.938	57.86
200.157	0.51
200.376	64
200.595	6.66
200.814	74.24
201.033	37.38
201.252	47.62
201.471	-38.4
201.69	14.85
201.909	43.52
202.128	41.47
202.347	45.57
202.566	51.71
202.785	16.9
203.004	-48.64
203.223	84.48
203.442	-32.26
203.661	0.51
203.879	-77.31
204.098	115.2
204.317	43.52
204.536	80.38
204.755	-56.83
204.974	57.86
205.193	49.66
205.411	104.96
205.63	0.51
205.849	4.61
206.068	82.43
206.287	-48.64
206.505	27.14
206.724	-24.06
206.943	27.14
207.162	12.8
207.381	68.09
207.599	51.71
207.818	84.48
208.037	-54.78
208.255	8.7
208.474	82.43
208.693	-3.58
208.911	37.38
209.13	-7.68
209.349	-60.93
209.567	98.81
209.786	57.86
210.005	37.38
210.223	-5.63
210.442	-50.69
210.661	64
210.879	14.85
211.098	4.61
211.316	-38.4
211.535	82.43
211.753	-38.4
211.972	-7.68
212.191	-34.3
212.409	31.23
212.628	-24.06
212.846	33.28
213.065	61.95
213.283	74.24
213.502	43.52
213.72	47.62
213.938	47.62
214.157	20.99
214.375	31.23
214.594	2.56
214.812	107.01
215.031	33.28
215.249	12.8
215.467	49.66
215.686	29.18
215.904	35.33
216.122	-22.02
216.341	94.72
216.559	27.14
216.778	145.92
216.996	104.96
217.214	10.75
217.432	-24.06
217.651	-38.4
217.869	10.75
218.087	86.53
218.306	31.23
218.524	-7.68
218.742	-28.16
218.96	29.18
219.179	-34.3
219.397	16.9
219.615	90.62
219.833	2.56
220.051	-36.35
220.27	39.42
220.488	33.28
220.706	31.23
220.924	16.9
221.142	23.04
221.36	14.85
221.578	90.62
221.796	31.23
222.015	-3.58
222.233	55.81
222.451	100.86
222.669	90.62
222.887	64
223.105	37.38
223.323	61.95
223.541	16.9
223.759	-52.74
223.977	43.52
224.195	78.33
224.413	8.7
224.631	-17.92
224.849	43.52
225.067	123.39
225.285	49.66
225.503	-44.54
225.721	-17.92
225.939	64
226.157	68.09
226.375	190.97
226.592	29.18
226.81	47.62
227.028	14.85
227.246	137.73
227.464	-24.06
227.682	-26.11
227.9	96.77
228.117	49.66
228.335	47.62
228.553	-13.82
228.771	18.94
228.989	-48.64
229.206	92.67
229.424	-24.06
229.642	-3.58
229.86	-11.78
230.077	82.43
230.295	16.9
230.513	70.14
230.731	96.77
230.948	12.8
231.166	107.01
231.384	-5.63
231.601	-34.3
231.819	80.38
232.037	-44.54
232.254	-60.93
232.472	53.76
232.689	-26.11
232.907	102.91
233.125	-5.63
233.342	4.61
233.56	6.66
233.777	10.75
233.995	55.81
234.213	78.33
234.43	18.94
234.648	-28.16
234.865	-30.21
235.083	41.47
235.3	66.05
235.518	-91.65
235.735	94.72
235.953	90.62
236.17	29.18
236.388	-3.58
236.605	51.71
236.822	74.24
237.04	35.33
237.257	76.29
237.475	-50.69
237.692	-11.78
237.909	-40.45
238.127	-22.02
238.344	70.14
238.562	-30.21
238.779	-24.06
238.996	-73.21
239.214	10.75
239.431	39.42
239.648	-38.4
239.865	88.57
240.083	43.52
240.3	-9.73
240.517	-22.02
240.735	-9.73
240.952	129.53
241.169	53.76
241.386	-22.02
241.603	-1.54
241.821	-32.26
242.038	131.58
242.255	100.86
242.472	10.75
242.689	98.81
242.907	61.95
243.124	-44.54
243.341	0.51
243.558	-48.64
243.775	-15.87
243.992	-73.21
244.209	41.47
244.426	90.62
244.643	33.28
244.86	4.61
245.078	25.09
245.295	-9.73
245.512	-46.59
245.729	-26.11
245.946	29.18
246.163	31.23
246.38	51.71
246.597	49.66
246.814	-13.82
247.031	27.14
247.248	76.29
247.464	61.95
247.681	-5.63
247.898	53.76
248.115	-24.06
248.332	-30.21
248.549	41.47
248.766	119.29
248.983	14.85
249.2	-26.11
249.417	29.18
249.633	57.86
249.85	41.47
250.067	33.28
250.284	37.38
250.501	10.75
250.717	61.95
250.934	-38.4
251.151	-36.35
251.368	31.23
251.585	23.04
251.801	74.24
252.018	-40.45
252.235	6.66
252.451	-85.5
252.668	-38.4
252.885	33.28
253.102	12.8
253.318	8.7
253.535	-5.63
253.752	53.76
253.968	45.57
254.185	-9.73
254.401	-34.3
254.618	-15.87
254.835	14.85
255.051	61.95
255.268	51.71
255.484	49.66
255.701	-19.97
255.917	66.05
256.134	-79.36
256.351	-1.54
256.567	-9.73
256.784	23.04
257	-54.78
257.217	51.71
257.433	0.51
257.65	41.47
257.866	43.52
258.082	-13.82
258.299	27.14
258.515	-24.06
258.732	-5.63
258.948	47.62
259.165	14.85
259.381	-89.6
259.597	64
259.814	-30.21
260.03	-32.26
260.246	59.9
260.463	10.75
260.679	76.29
260.895	53.76
261.112	-17.92
261.328	-5.63
261.544	29.18
261.761	113.15
261.977	-50.69
262.193	-3.58
262.409	20.99
262.626	59.9
262.842	-19.97
263.058	-34.3
263.274	66.05
263.49	66.05
263.707	96.77
263.923	113.15
264.139	4.61
264.355	-44.54
264.571	16.9
264.787	37.38
265.004	94.72
265.22	55.81
265.436	16.9
265.652	-32.26
265.868	23.04
266.084	-75.26
266.3	37.38
266.516	-19.97
266.732	2.56
266.948	14.85
267.164	20.99
267.38	41.47
267.596	37.38
267.812	96.77
268.028	6.66
268.244	-22.02
268.46	-32.26
268.676	6.66
268.892	31.23
269.108	-32.26
269.324	27.14
269.54	-36.35
269.756	-11.78
269.972	16.9
270.188	-11.78
270.403	-28.16
270.619	49.66
270.835	12.8
271.051	49.66
271.267	-34.3
271.483	12.8
271.698	72.19
271.914	4.61
272.13	-19.97
272.346	-7.68
272.562	35.33
272.777	131.58
272.993	-67.07
273.209	12.8
273.425	-9.73
273.64	-81.41
273.856	66.05
274.072	6.66
274.287	-40.45
274.503	41.47
274.719	-1.54
274.934	0.51
275.15	-110.08
275.366	86.53
275.581	12.8
275.797	-15.87
276.012	23.04
276.228	-26.11
276.444	-22.02
276.659	39.42
276.875	10.75
277.09	-1.54
277.306	4.61
277.521	51.71
277.737	16.9
277.952	68.09
278.168	35.33
278.383	27.14
278.599	53.76
278.814	27.14
279.03	18.94
279.245	31.23
279.461	-5.63
279.676	59.9
279.892	-32.26
280.107	-36.35
280.322	-30.21
280.538	82.43
280.753	23.04
280.969	0.51
281.184	84.48
281.399	119.29
281.615	18.94
281.83	8.7
282.045	-93.69
282.26	-67.07
282.476	72.19
282.691	111.1
282.906	6.66
283.122	29.18
283.337	2.56
283.552	66.05
283.767	14.85
283.983	-24.06
284.198	-40.45
284.413	25.09
284.628	-13.82
284.843	57.86
285.058	37.38
285.274	6.66
285.489	-40.45
285.704	72.19
285.919	-26.11
286.134	-19.97
286.349	10.75
286.564	47.62
286.779	133.63
286.995	-97.79
287.21	-44.54
287.425	33.28
287.64	-65.02
287.855	16.9
288.07	-62.98
288.285	51.71
288.5	10.75
288.715	-19.97
288.93	47.62
289.145	-9.73
289.36	88.57
289.575	-11.78
289.79	51.71
290.004	-1.54
290.219	88.57
290.434	-65.02
290.649	-62.98
290.864	37.38
291.079	14.85
291.294	51.71
291.509	4.61
291.724	37.38
291.938	-95.74
292.153	-7.68
292.368	-73.21
292.583	-7.68
292.798	82.43
293.012	12.8
293.227	98.81
293.442	45.57
293.657	84.48
293.871	107.01
294.086	27.14
294.301	25.09
294.516	47.62
294.73	45.57
294.945	29.18
295.16	-36.35
295.374	6.66
295.589	-7.68
295.804	16.9
296.018	53.76
296.233	72.19
296.447	31.23
296.662	8.7
296.877	10.75
297.091	-38.4
297.306	-56.83
297.52	-46.59
297.735	39.42
297.949	-11.78
298.164	64
298.378	-24.06
298.593	-28.16
298.807	70.14
299.022	-9.73
299.236	104.96
299.451	-13.82
299.665	35.33
299.88	4.61
300.094	-28.16
300.309	10.75
300.523	68.09
300.737	12.8
300.952	47.62
301.166	25.09
301.381	23.04
301.595	-7.68
301.809	43.52
302.024	14.85
302.238	20.99
302.452	39.42
302.667	27.14
302.881	53.76
303.095	-28.16
303.309	31.23
303.524	8.7
303.738	111.1
303.952	55.81
304.166	43.52
304.381	-110.08
304.595	74.24
304.809	-22.02
305.023	90.62
305.237	2.56
305.452	2.56
305.666	-7.68
305.88	102.91
306.094	82.43
306.308	61.95
306.522	86.53
306.736	59.9
306.95	18.94
307.164	43.52
307.379	4.61
307.593	111.1
307.807	35.33
308.021	8.7
308.235	66.05
308.449	-24.06
308.663	37.38
308.877	90.62
309.091	-5.63
309.305	64
309.519	14.85
309.733	12.8
309.947	-9.73
310.161	84.48
310.374	23.04
310.588	102.91
310.802	-48.64
311.016	-73.21
311.23	8.7
311.444	8.7
311.658	94.72
311.872	14.85
312.085	39.42
312.299	104.96
312.513	121.34
312.727	43.52
312.941	-38.4
313.154	39.42
313.368	-24.06
313.582	-87.55
313.796	-24.06
314.009	12.8
314.223	127.49
314.437	10.75
314.651	-7.68
314.864	45.57
315.078	31.23
315.292	-132.61
315.505	18.94
315.719	39.42
315.933	-5.63
316.146	-1.54
316.36	-67.07
316.573	-9.73
316.787	37.38
317.001	43.52
317.214	-93.69
317.428	51.71
317.641	-46.59
317.855	-3.58
318.068	-3.58
318.282	55.81
318.495	164.35
318.709	16.9
318.922	-36.35
319.136	137.73
319.349	74.24
319.563	-65.02
319.776	27.14
319.99	-60.93
320.203	68.09
320.417	35.33
320.63	14.85
320.843	119.29
321.057	61.95
321.27	55.81
321.483	68.09
321.697	59.9
321.91	-19.97
322.124	41.47
322.337	33.28
322.55	23.04
322.763	-24.06
322.977	-42.5
323.19	-77.31
323.403	39.42
323.617	29.18
323.83	80.38
324.043	-1.54
324.256	51.71
324.469	-22.02
324.683	84.48
324.896	-56.83
325.109	-38.4
325.322	25.09
325.535	18.94
325.748	107.01
325.962	-3.58
326.175	16.9
326.388	-34.3
326.601	98.81
326.814	47.62
327.027	6.66
327.24	70.14
327.453	-91.65
327.666	29.18
327.879	72.19
328.092	72.19
328.305	59.9
328.518	-52.74
328.731	37.38
328.944	45.57
329.157	-5.63
329.37	14.85
329.583	139.77
329.796	61.95
330.009	-48.64
330.222	37.38
330.435	20.99
330.648	20.99
330.861	76.29
331.073	35.33
331.286	96.77
331.499	41.47
331.712	-48.64
331.925	-48.64
332.138	43.52
332.35	18.94
332.563	-26.11
332.776	49.66
332.989	-50.69
333.202	16.9
333.414	16.9
333.627	4.61
333.84	-28.16
334.053	-9.73
334.265	-32.26
334.478	51.71
334.691	-26.11
334.903	16.9
335.116	-3.58
335.329	-3.58
335.541	-1.54
335.754	-1.54
335.966	-36.35
336.179	-7.68
336.392	-71.17
336.604	-7.68
336.817	33.28
337.029	27.14
337.242	-15.87
337.454	8.7
337.667	20.99
337.88	88.57
338.092	70.14
338.305	23.04
338.517	14.85
338.729	-1.54
338.942	59.9
339.154	4.61
339.367	-50.69
339.579	72.19
339.792	6.66
340.004	4.61
340.217	16.9
340.429	-11.78
340.641	47.62
340.854	-19.97
341.066	0.51
341.278	92.67
341.491	154.11
341.703	33.28
341.915	-9.73
342.128	55.81
342.34	10.75
342.552	-54.78
342.764	-9.73
342.977	76.29
343.189	12.8
343.401	-77.31
343.613	-22.02
343.826	10.75
344.038	-50.69
344.25	66.05
344.462	-17.92
344.674	-71.17
344.886	35.33
345.099	35.33
345.311	-32.26
345.523	-91.65
345.735	14.85
345.947	49.66
346.159	39.42
346.371	-48.64
346.583	82.43
346.795	145.92
347.007	-24.06
347.219	10.75
347.431	6.66
347.643	16.9
347.855	-89.6
348.067	68.09
348.279	-60.93
348.491	0.51
348.703	45.57
348.915	25.09
349.127	-9.73
349.339	98.81
349.551	-19.97
349.763	82.43
349.975	10.75
350.187	31.23
350.399	80.38
350.61	102.91
350.822	-38.4
351.034	31.23
351.246	45.57
351.458	-9.73
351.669	-19.97
351.881	76.29
352.093	80.38
352.305	35.33
352.517	2.56
352.728	66.05
352.94	37.38
353.152	27.14
353.363	94.72
353.575	107.01
353.787	37.38
353.999	45.57
354.21	104.96
354.422	10.75
354.633	-15.87
354.845	10.75
355.057	53.76
355.268	43.52
355.48	66.05
355.692	0.51
355.903	61.95
356.115	-5.63
356.326	-28.16
356.538	152.06
356.749	-11.78
356.961	8.7
357.172	47.62
357.384	25.09
357.595	45.57
357.807	-54.78
358.018	-54.78
358.23	-9.73
358.441	119.29
358.653	78.33
358.864	-17.92
359.075	-9.73
359.287	64
359.498	31.23
359.709	43.52
359.921	-5.63
360.132	88.57
360.344	8.7
360.555	8.7
360.766	4.61
360.977	31.23
361.189	78.33
361.4	-40.45
361.611	61.95
361.823	66.05
362.034	47.62
362.245	-42.5
362.456	-58.88
362.667	4.61
362.879	-40.45
363.09	4.61
363.301	43.52
363.512	37.38
363.723	-48.64
363.935	-42.5
364.146	-17.92
364.357	2.56
364.568	61.95
364.779	-60.93
364.99	70.14
365.201	20.99
365.412	39.42
365.623	-50.69
365.834	-5.63
366.045	53.76
366.256	66.05
366.467	78.33
366.678	41.47
366.889	31.23
367.1	29.18
367.311	78.33
367.522	12.8
367.733	64
367.944	-1.54
368.155	0.51
368.366	45.57
368.577	127.49
368.788	66.05
368.999	49.66
369.209	47.62
369.42	137.73
369.631	70.14
369.842	29.18
370.053	-9.73
370.264	88.57
370.474	-13.82
370.685	100.86
370.896	64
371.107	72.19
371.317	76.29
371.528	18.94
371.739	23.04
371.95	66.05
372.16	45.57
372.371	18.94
372.582	33.28
372.792	-5.63
373.003	-13.82
373.214	6.66
373.424	43.52
373.635	-34.3
373.846	100.86
374.056	96.77
374.267	53.76
374.477	41.47
374.688	39.42
374.898	55.81
375.109	8.7
375.319	51.71
375.53	-36.35
375.74	35.33
375.951	23.04
376.161	31.23
376.372	119.29
376.582	29.18
376.793	43.52
377.003	-1.54
377.214	2.56
377.424	39.42
377.635	8.7
377.845	70.14
378.055	78.33
378.266	10.75
378.476	43.52
378.686	39.42
378.897	78.33
379.107	25.09
379.317	102.91
379.528	37.38
379.738	72.19
379.948	-67.07
380.158	70.14
380.369	121.34
380.579	61.95
380.789	-1.54
380.999	59.9
381.21	64
381.42	98.81
381.63	51.71
381.84	78.33
382.05	51.71
382.261	35.33
382.471	104.96
382.681	31.23
382.891	111.1
383.101	45.57
383.311	8.7
383.521	-9.73
383.731	47.62
383.941	100.86
384.151	47.62
384.361	-38.4
384.571	16.9
384.781	33.28
384.991	88.57
385.201	100.86
385.411	72.19
385.621	4.61
385.831	61.95
386.041	4.61
386.251	35.33
386.461	70.14
386.671	-5.63
386.881	72.19
387.091	-30.21
387.301	68.09
387.511	43.52
387.72	61.95
387.93	25.09
388.14	-3.58
388.35	-52.74
388.56	135.68
388.769	57.86
388.979	25.09
389.189	14.85
389.399	90.62
389.609	61.95
389.818	107.01
390.028	-28.16
390.238	72.19
390.447	55.81
390.657	74.24
390.867	-26.11
391.076	-67.07
391.286	20.99
391.496	-19.97
391.705	35.33
391.915	115.2
392.125	70.14
392.334	20.99
392.544	41.47
392.753	61.95
392.963	-48.64
393.172	31.23
393.382	29.18
393.591	70.14
393.801	68.09
394.01	170.49
394.22	12.8
394.429	18.94
394.639	49.66
394.848	33.28
395.058	61.95
395.267	8.7
395.477	98.81
395.686	86.53
395.895	68.09
396.105	152.06
396.314	119.29
396.524	74.24
396.733	-17.92
396.942	117.25
397.152	82.43
397.361	31.23
397.57	80.38
397.78	66.05
397.989	8.7
398.198	115.2
398.407	27.14
398.617	98.81
398.826	4.61
399.035	55.81
399.244	80.38
399.453	82.43
399.663	-3.58
399.872	61.95
400.081	84.48
400.29	88.57
400.499	14.85
400.708	139.77
400.917	86.53
401.127	31.23
401.336	59.9
401.545	150.01
401.754	39.42
401.963	6.66
402.172	80.38
402.381	35.33
402.59	57.86
402.799	25.09
403.008	66.05
403.217	94.72
403.426	164.35
403.635	8.7
403.844	66.05
404.053	64
404.262	47.62
404.471	145.92
404.68	94.72
404.888	70.14
405.097	2.56
405.306	72.19
405.515	66.05
405.724	74.24
405.933	98.81
406.142	164.35
406.35	164.35
406.559	121.34
406.768	127.49
406.977	170.49
407.185	113.15
407.394	107.01
407.603	35.33
407.812	88.57
408.02	154.11
408.229	150.01
408.438	131.58
408.646	119.29
408.855	147.97
409.064	227.84
409.272	145.92
409.481	178.69
409.69	150.01
409.898	90.62
410.107	150.01
410.315	233.98
410.524	150.01
410.733	270.84
410.941	229.88
411.15	303.61
411.358	258.56
411.567	268.8
411.775	221.69
411.984	274.94
412.192	279.04
412.401	213.5
412.609	348.67
412.818	293.37
413.026	395.77
413.234	283.13
413.443	293.37
413.651	352.76
413.86	324.09
414.068	385.53
414.276	465.4
414.485	363
414.693	442.87
414.901	426.49
415.11	504.31
415.318	399.87
415.526	424.44
415.734	471.54
415.943	498.17
416.151	557.56
416.359	487.93
416.567	541.18
416.776	498.17
416.984	561.66
417.192	627.19
417.4	532.98
417.608	514.55
417.817	588.28
418.025	651.77
418.233	709.11
418.441	707.06
418.649	737.78
418.857	811.51
419.065	784.88
419.273	729.59
419.481	860.66
419.689	901.62
419.897	881.14
420.105	831.99
420.313	938.48
420.521	1104.37
420.729	1087.98
420.937	1016.3
421.145	999.92
421.353	1153.52
421.561	1143.28
421.769	1198.57
421.977	1178.09
422.185	1219.05
422.393	1303.02
422.601	1452.52
422.809	1397.23
423.017	1399.27
423.224	1522.15
423.432	1550.82
423.64	1440.23
423.848	1653.22
424.056	1556.97
424.263	1800.68
424.471	1747.43
424.679	1839.59
424.887	1866.21
425.094	1984.99
425.302	1870.31
425.51	1976.8
425.718	2097.63
425.925	2075.1
426.133	2052.58
426.341	2286.05
426.548	2275.81
426.756	2324.96
426.964	2482.65
427.171	2499.03
427.379	2517.47
427.586	2664.92
427.794	2857.43
428.001	2943.44
428.209	3043.79
428.417	2976.21
428.624	3125.71
428.832	3226.06
429.039	3230.16
429.247	3201.49
429.454	3396.04
429.662	3582.41
429.869	3414.48
430.076	3707.34
430.284	3527.11
430.491	3783.11
430.699	3875.27
430.906	3989.96
431.114	3981.76
431.321	4145.6
431.528	4270.53
431.736	4420.03
431.943	4678.07
432.15	4635.07
432.358	4518.33
432.565	4866.49
432.772	4829.62
432.979	5063.09
433.187	5198.26
433.394	5188.02
433.601	5431.73
433.808	5530.03
434.016	5566.89
434.223	5849.51
434.43	6007.2
434.637	5999.01
434.844	6422.94
435.052	6377.89
435.259	6353.31
435.466	6590.88
435.673	6449.57
435.88	6791.58
436.087	7317.9
436.294	7270.8
436.501	7008.66
436.708	7074.2
436.915	7348.62
437.122	7645.58
437.329	7735.69
437.537	7889.29
437.743	8026.5
437.95	7913.86
438.157	8358.27
438.364	8735.1
438.571	8710.52
438.778	8913.27
438.985	9585.01
439.192	9204.08
439.399	9443.7
439.606	9257.33
439.813	9707.88
440.02	10336.61
440.227	10260.84
440.433	9970.02
440.64	10369.38
440.847	10451.3
441.054	10701.15
441.261	11407.7
441.467	10948.95
441.674	11188.57
441.881	11866.44
442.088	11614.54
442.294	11635.02
442.501	11868.49
442.708	12118.34
442.914	12640.58
443.121	13220.15
443.328	12841.28
443.534	13871.4
443.741	13320.5
443.948	13252.92
444.154	14063.91
444.361	14078.25
444.568	14133.54
444.774	14219.56
444.981	14424.36
445.187	14758.17
445.394	15589.65
445.6	15036.7
445.807	16713.98
446.013	15673.62
446.22	16339.21
446.426	16961.79
446.633	16939.26
446.839	17500.4
447.046	16795.9
447.252	17953.01
447.459	18061.55
447.665	17717.49
447.871	18827.49
448.078	19323.1
448.284	18520.29
448.491	19030.24
448.697	19800.27
448.903	19931.34
449.11	20070.61
449.316	19781.84
449.522	20060.37
449.728	20967.62
449.935	20820.16
450.141	20900.03
450.347	21194.94
450.553	20435.14
450.76	20975.81
450.966	21567.67
451.172	21174.46
451.378	21913.78
451.584	21672.12
451.791	22259.88
451.997	22126.77
452.203	22569.13
452.409	22266.03
452.615	22345.9
452.821	21549.24
453.027	20994.24
453.233	22497.45
453.44	21473.46
453.646	21708.98
453.852	21477.56
454.058	22251.69
454.264	21278.91
454.47	21893.3
454.676	21147.84
454.882	22157.49
455.088	20322.51
455.294	20334.79
455.5	20482.25
455.705	20938.94
455.911	20121.8
456.117	19720.4
456.323	19513.56
456.529	18233.58
456.735	19407.06
456.941	19046.62
457.147	18485.48
457.352	17594.61
457.558	17744.11
457.764	17815.79
457.97	17506.55
458.176	16945.41
458.381	16906.49
458.587	16142.6
458.793	15964.43
458.999	15448.34
459.204	16417.03
459.41	15733.01
459.616	14727.46
459.821	14727.46
460.027	14477.6
460.233	14420.26
460.438	13732.14
460.644	14012.71
460.85	13373.75
461.055	13039.93
461.261	13072.7
461.466	12073.29
461.672	11843.92
461.878	12493.12
462.083	11733.32
462.289	11385.17
462.494	11381.07
462.7	10811.74
462.905	10695
463.111	11166.04
463.316	11178.33
463.522	10586.46
463.727	10836.31
463.932	10598.75
464.138	10729.82
464.343	10604.89
464.549	10457.44
464.754	10692.96
464.959	10539.36
465.165	10729.82
465.37	9951.59
465.575	9787.75
465.781	10340.71
465.986	10187.11
466.191	9560.43
466.397	9519.47
466.602	9251.19
466.807	9673.07
467.012	9513.33
467.218	9458.03
467.423	9353.59
467.628	9421.17
467.833	9908.58
468.038	9171.32
468.244	9222.52
468.449	9472.37
468.654	9140.6
468.859	9251.19
469.064	9023.86
469.269	8644.99
469.474	8866.17
469.679	8913.27
469.885	8935.8
470.09	9005.43
470.295	8665.47
470.5	8548.73
470.705	8702.33
470.91	8444.29
471.115	8360.32
471.32	8388.99
471.525	8427.9
471.73	8370.56
471.935	8368.51
472.139	8006.02
472.344	7938.44
472.549	7965.06
472.754	7786.89
472.959	7727.5
473.164	7578
473.369	7704.97
473.574	7874.95
473.778	7565.71
473.983	7690.63
474.188	7676.3
474.393	7174.55
474.598	7184.79
474.802	7201.17
475.007	7016.85
475.212	7154.07
475.417	6871.45
475.621	6762.9
475.826	6924.69
476.031	6779.29
476.235	6609.31
476.44	6664.6
476.645	6539.68
476.849	6531.48
477.054	6404.51
477.259	6402.46
477.463	6496.67
477.668	6295.97
477.872	6279.58
478.077	6295.97
478.282	6021.54
478.486	5894.57
478.691	5892.52
478.895	6068.64
479.1	6025.64
479.304	5757.35
479.509	5730.73
479.713	5749.16
479.918	5685.67
480.122	5777.83
480.326	5728.68
480.531	5665.19
480.735	5540.27
480.94	5683.63
481.144	5591.47
481.348	5452.2
481.553	5501.36
481.757	5394.86
481.961	5632.43
482.166	5546.41
482.37	5613.99
482.574	5441.96
482.778	5296.56
482.983	5548.46
483.187	5519.79
483.391	5583.27
483.595	5325.23
483.8	5413.29
484.004	5507.5
484.208	5587.37
484.412	5530.03
484.616	5530.03
484.821	5542.32
485.025	5294.51
485.229	5394.86
485.433	5499.31
485.637	5640.62
485.841	5403.05
486.045	5358
486.249	5480.88
486.453	5568.94
486.657	5540.27
486.861	5497.26
487.065	5321.13
487.269	5480.88
487.473	5339.57
487.677	5587.37
487.881	5441.96
488.085	5384.62
488.289	5474.73
488.493	5484.97
488.697	5564.84
488.901	5489.07
489.105	5530.03
489.309	5585.32
489.512	5593.51
489.716	5558.7
489.92	5534.12
490.124	5489.07
490.328	5624.23
490.531	5683.63
490.735	5587.37
490.939	5564.84
491.143	5519.79
491.346	5710.25
491.55	5613.99
491.754	5558.7
491.958	5796.26
492.161	5738.92
492.365	5720.49
492.569	5857.7
492.772	5779.88
492.976	5681.58
493.18	5806.5
493.383	5853.61
493.587	6107.55
493.79	6130.08
493.994	5886.37
494.197	5769.64
494.401	5984.68
494.605	5886.37
494.808	6048.16
495.012	6123.94
495.215	6263.2
495.419	6121.89
495.622	6119.84
495.825	6289.82
496.029	6205.86
496.232	6410.65
496.436	6500.76
496.639	6762.9
496.843	6535.58
497.046	6719.9
497.249	6867.35
497.453	6853.02
497.656	6885.78
497.859	6787.48
498.063	6982.04
498.266	7098.77
498.469	6965.65
498.673	7018.9
498.876	7217.55
499.079	7266.71
499.282	7240.08
499.485	7608.72
499.689	7645.58
499.892	7737.74
500.095	7432.59
500.298	7801.22
500.501	7721.35
500.705	8008.07
500.908	8032.65
501.111	7956.87
501.314	8137.09
501.517	8229.25
501.72	8247.68
501.923	8522.11
502.126	8403.33
502.329	8710.52
502.532	8831.35
502.735	8630.65
502.938	9064.82
503.141	8991.09
503.344	9202.04
503.547	9005.43
503.75	9222.52
503.953	9359.73
504.156	9310.58
504.359	9568.62
504.562	9589.1
504.765	9703.79
504.968	9722.22
505.17	9797.99
505.373	10164.58
505.576	10281.32
505.779	10207.59
505.982	10297.7
506.185	10525.02
506.387	10600.8
506.59	10604.89
506.793	10783.07
506.996	10914.14
507.198	11166.04
507.401	10981.72
507.604	11235.67
507.807	11295.06
508.009	11200.85
508.212	11549.01
508.415	11585.87
508.617	11483.47
508.82	11739.47
509.022	11665.74
509.225	12042.57
509.428	12142.92
509.63	12243.27
509.833	12462.4
510.035	12738.88
510.238	12556.61
510.44	12616
510.643	12575.04
510.845	12861.76
511.048	12851.52
511.25	13199.67
511.453	13224.25
511.655	13775.15
511.858	13660.46
512.06	13564.21
512.262	13422.9
512.465	13703.47
512.667	13918.51
512.87	14035.24
513.072	14094.63
513.274	14342.44
513.477	14422.31
513.679	14508.32
513.881	14623.01
514.084	14850.33
514.286	14684.45
514.488	14893.34
514.69	15493.4
514.893	15368.47
515.095	15298.84
515.297	15362.33
515.499	15485.2
515.701	15765.78
515.904	16089.35
516.106	16351.49
516.308	16308.49
516.51	16374.02
516.712	16230.66
516.914	16513.28
517.116	16654.59
517.318	16738.56
517.52	16791.81
517.722	16658.69
517.925	17033.47
518.127	17084.67
518.329	17299.7
518.531	17215.74
518.733	17682.67
518.935	17948.91
519.136	17678.58
519.338	18104.56
519.54	17742.07
519.742	18213.1
519.944	18391.27
520.146	18434.28
520.348	18626.79
520.55	18569.44
520.752	18526.44
520.954	19173.6
521.155	18788.58
521.357	19034.33
521.559	19239.13
521.761	19331.29
521.963	19355.86
522.164	19480.79
522.366	19525.85
522.568	19595.48
522.77	19849.43
522.971	19917.01
523.173	19798.23
523.375	20019.41
523.576	20039.89
523.778	20041.93
523.98	20349.13
524.181	20504.78
524.383	20363.47
524.584	20818.11
524.786	20703.43
524.988	20586.69
525.189	20883.65
525.391	20945.09
525.592	21031.1
525.794	21135.55
525.995	21297.34
526.197	21100.73
526.398	21188.8
526.6	21334.2
526.801	21409.98
527.003	21229.76
527.204	21293.24
527.406	21590.2
527.607	21584.05
527.808	21876.91
528.01	21446.84
528.211	21569.72
528.412	21737.65
528.614	21711.03
528.815	21774.52
529.016	21938.35
529.218	21672.12
529.419	21807.28
529.62	21659.83
529.822	22108.33
530.023	22057.14
530.224	21971.12
530.425	21735.6
530.626	21637.3
530.828	21602.49
531.029	22194.35
531.23	21754.04
531.431	21838
531.632	22225.07
531.833	21862.58
532.035	22053.04
532.236	22061.23
532.437	21969.07
532.638	21909.68
532.839	22167.73
533.04	22077.62
533.241	21817.52
533.442	22550.7
533.643	22032.56
533.844	22132.91
534.045	22014.13
534.246	21577.91
534.447	22098.09
534.648	22032.56
534.849	22354.09
535.05	21631.16
535.251	21936.31
535.451	22321.32
535.652	21987.5
535.853	22360.23
536.054	22143.15
536.255	22069.42
536.456	21942.45
536.657	21928.11
536.857	22147.25
537.058	21747.89
537.259	22106.29
537.46	21946.55
537.66	22022.32
537.861	21866.67
538.062	21780.66
538.263	22122.67
538.463	21663.93
538.664	21604.53
538.865	22151.34
539.065	22163.63
539.266	21948.59
539.466	21964.98
539.667	21743.8
539.868	22132.91
540.068	21817.52
540.269	21608.63
540.469	22016.18
540.67	21977.26
540.87	21866.67
541.071	22053.04
541.271	21903.54
541.472	22028.46
541.672	21866.67
541.873	22145.2
542.073	21618.87
542.274	21844.15
542.474	21756.08
542.675	21596.34
542.875	21917.87
543.075	21606.58
543.276	21469.37
543.476	21733.56
543.676	21575.86
543.877	21831.86
544.077	21901.49
544.277	21512.38
544.478	21627.06
544.678	21831.86
544.878	21786.8
545.078	21813.43
545.279	21512.38
545.479	21741.75
545.679	21661.88
545.879	21557.43
546.079	21686.45
546.28	21663.93
546.48	21434.55
546.68	21618.87
546.88	21684.41
547.08	21776.56
547.28	21735.6
547.48	21401.79
547.68	21588.15
547.88	21608.63
548.081	21524.66
548.281	21590.2
548.481	21770.42
548.681	21596.34
548.881	21608.63
549.081	21573.81
549.28	21403.83
549.48	21735.6
549.68	21684.41
549.88	22014.13
550.08	21526.71
550.28	21688.5
550.48	21483.7
550.68	21792.95
550.88	21719.22
551.08	21649.59
551.279	21813.43
551.479	21700.79
551.679	21510.33
551.879	21586.1
552.079	21539
552.278	21418.17
552.478	21575.86
552.678	21700.79
552.878	21756.08
553.077	21303.48
553.277	21342.39
553.477	21876.91
553.676	21309.63
553.876	21369.02
554.076	21584.05
554.275	21360.83
554.475	21473.46
554.674	21569.72
554.874	21473.46
555.074	21782.71
555.273	21418.17
555.473	21428.41
555.672	21125.31
555.872	21207.23
556.071	21768.37
556.271	21586.1
556.47	21737.65
556.67	21221.56
556.869	21332.15
557.068	21686.45
557.268	21061.82
557.467	21207.23
557.667	21504.18
557.866	21227.71
558.065	21166.27
558.265	21319.87
558.464	21121.21
558.663	21641.4
558.863	21287.1
559.062	21643.45
559.261	21133.5
559.461	21596.34
559.66	21235.9
559.859	21102.78
560.058	21168.32
560.258	21168.32
560.457	21160.13
560.656	21418.17
560.855	21180.6
561.054	21311.67
561.253	20981.95
561.453	21039.29
561.652	21117.12
561.851	21407.93
562.05	21139.65
562.249	20959.42
562.448	21508.28
562.647	21272.76
562.846	21219.52
563.045	21149.89
563.244	20838.59
563.443	21276.86
563.642	20893.89
563.841	20760.77
564.04	21188.8
564.239	21274.81
564.438	20795.59
564.637	21184.7
564.836	21061.82
565.035	20547.78
565.234	21119.17
565.432	20959.42
565.631	21051.58
565.83	21186.75
566.029	20797.63
566.228	20918.46
566.427	20949.18
566.625	20660.42
566.824	20639.94
567.023	21090.49
567.222	20574.41
567.42	20973.76
567.619	20664.52
567.818	20592.84
568.016	20705.48
568.215	20760.77
568.414	20773.06
568.612	20699.33
568.811	20631.75
569.01	20846.79
569.208	20547.78
569.407	20699.33
569.605	20287.69
569.804	20748.48
570.002	20611.27
570.201	20627.65
570.4	20400.33
570.598	20285.64
570.797	20164.81
570.995	20441.29
571.193	20205.77
571.392	20510.92
571.59	20158.67
571.789	20355.27
571.987	20158.67
572.186	20451.53
572.384	20191.44
572.582	20463.82
572.781	20275.4
572.979	20121.8
573.177	19894.48
573.376	20295.88
573.574	19863.76
573.772	20203.72
573.971	20007.12
574.169	19986.64
574.367	19906.77
574.565	20021.45
574.763	20166.86
574.962	20025.55
575.16	19869.9
575.358	19738.83
575.556	19812.56
575.754	20140.24
575.952	19605.72
576.151	19839.19
576.349	19876.05
576.547	19646.68
576.745	19945.68
576.943	19589.33
577.141	19505.37
577.339	19783.89
577.537	19554.52
577.735	19560.66
577.933	19456.22
578.131	19427.54
578.329	19282.14
578.527	19423.45
578.725	19597.52
578.923	19290.33
579.121	19521.75
579.319	19220.7
579.516	19595.48
579.714	19265.75
579.912	19384.54
580.11	19312.86
580.308	19155.16
580.506	19323.1
580.704	18841.82
580.901	19202.27
581.099	19185.88
581.297	19060.96
581.495	19120.35
581.692	18850.02
581.89	18786.53
582.088	19273.95
582.285	19060.96
582.483	19169.5
582.681	19142.88
582.878	18725.09
583.076	18807.01
583.274	18854.11
583.471	18682.08
583.669	18886.88
583.866	18700.51
584.064	18884.83
584.262	18591.97
584.459	18415.85
584.657	18397.42
584.854	18608.36
585.052	18309.35
585.249	18616.55
585.447	18520.29
585.644	18401.51
585.841	18319.59
586.039	18643.17
586.236	17983.73
586.434	18290.92
586.631	18133.23
586.828	18370.79
587.026	18182.38
587.223	18295.02
587.42	18213.1
587.618	18102.51
587.815	17955.05
588.012	18022.64
588.21	18094.32
588.407	18116.84
588.604	18034.92
588.801	18176.23
588.999	17881.33
589.196	17795.31
589.393	17934.57
589.59	18092.27
589.787	17817.84
589.984	17711.35
590.182	17762.54
590.379	17926.38
590.576	17785.07
590.773	17748.21
590.97	17756.4
591.167	17582.32
591.364	17307.9
591.561	17467.64
591.758	17385.72
591.955	17565.94
592.152	17631.47
592.349	17311.99
592.546	17459.45
592.743	17426.68
592.94	17271.03
593.137	17281.27
593.334	17436.92
593.531	17162.49
593.727	17228.03
593.924	17154.3
594.121	17062.14
594.318	16984.32
594.515	17025.28
594.712	17215.74
594.908	17086.72
595.105	17127.67
595.302	16763.14
595.499	16924.93
595.696	16990.46
595.892	16830.72
596.089	16869.63
596.286	16888.06
596.482	17017.08
596.679	16761.09
596.876	16611.59
597.072	16902.4
597.269	16548.1
597.466	16701.7
597.662	16738.56
597.859	16408.84
598.055	16517.38
598.252	16404.74
598.448	16470.28
598.645	16691.46
598.841	16312.58
599.038	16259.34
599.234	16457.99
599.431	16371.97
599.627	16431.37
599.824	16560.39
600.02	15980.81
600.217	16566.53
600.413	16197.9
600.609	16111.88
600.806	16423.17
601.002	16052.49
601.198	16054.54
601.395	16242.95
601.591	15927.56
601.787	16025.87
601.984	15896.85
602.18	16195.85
602.376	15843.6
602.572	15874.32
602.769	15857.93
602.965	15954.19
603.161	15933.71
603.357	15702.29
603.553	15941.9
603.75	15976.72
603.946	15614.23
604.142	15806.73
604.338	15733.01
604.534	15612.18
604.73	15524.12
604.926	15606.03
605.122	15788.3
605.318	15708.43
605.514	15556.88
605.71	15704.34
605.906	15624.47
606.102	15442.2
606.298	15470.87
606.494	15646.99
606.69	15540.5
606.886	15642.9
607.082	15292.69
607.278	15329.56
607.474	15216.92
607.67	15421.72
607.866	15507.73
608.062	15382.81
608.257	15464.72
608.453	15251.74
608.649	15323.41
608.845	15370.52
609.041	15096.09
609.236	15157.53
609.432	15034.65
609.628	15335.7
609.824	15063.32
610.019	15098.14
610.215	15167.77
610.411	15202.58
610.606	15100.19
610.802	15096.09
610.998	15139.1
611.193	15014.17
611.389	14879
611.584	14983.45
611.78	14584.1
611.976	14924.06
612.171	15008.03
612.367	15016.22
612.562	14747.93
612.758	14788.89
612.953	15057.18
613.149	15094.04
613.344	14944.54
613.539	14997.79
613.735	14655.78
613.93	14872.86
614.126	14876.96
614.321	14891.29
614.517	14805.28
614.712	14530.85
614.907	14729.5
615.103	15053.08
615.298	14727.46
615.493	14958.88
615.688	14623.01
615.884	14854.43
616.079	14659.87
616.274	14950.68
616.47	14580
616.665	14553.38
616.86	14524.71
617.055	14608.67
617.25	14446.88
617.445	14498.08
617.641	14244.13
617.836	14594.34
618.031	14192.94
618.226	14407.97
618.421	14420.26
618.616	14498.08
618.811	14070.06
619.006	14444.84
619.201	14164.26
619.396	14432.55
619.591	13973.8
619.786	13963.56
619.981	13981.99
620.176	14070.06
620.371	13865.26
620.566	13791.53
620.761	13928.75
620.956	13910.32
621.151	13519.15
621.346	13842.73
621.541	13642.03
621.735	13893.93
621.93	13599.02
622.125	13508.91
622.32	13316.4
622.515	13470
622.709	13267.25
622.904	13340.98
623.099	13265.21
623.294	13230.39
623.488	12970.3
623.683	12925.24
623.878	13029.69
624.072	13050.17
624.267	12937.53
624.462	12841.28
624.656	12900.67
624.851	12853.56
625.046	12736.83
625.24	12831.04
625.435	12536.13
625.629	12499.27
625.824	12548.42
626.018	12536.13
626.213	12095.82
626.407	12378.44
626.602	12194.12
626.796	12108.1
626.991	12202.31
627.185	12054.86
627.38	12085.58
627.574	12048.71
627.768	12011.85
627.963	11837.77
628.157	11594.06
628.352	11864.39
628.546	11596.11
628.74	11762
628.935	11604.3
629.129	11628.88
629.323	11458.9
629.517	11372.88
629.712	11278.68
629.906	11557.2
630.1	11108.69
630.294	11346.26
630.489	11180.37
630.683	11217.24
630.877	11030.87
631.071	11080.02
631.265	11086.17
631.459	10998.1
631.653	10594.65
631.848	10834.27
632.042	10621.28
632.236	10756.44
632.43	10748.25
632.624	10727.77
632.818	10711.39
633.012	10355.04
633.206	10516.83
633.4	10412.39
633.594	10250.6
633.788	10365.28
633.982	10295.65
634.176	10336.61
634.369	10299.75
634.563	10324.32
634.757	10033.51
634.951	10105.19
635.145	9949.54
635.339	10037.61
635.533	9920.87
635.726	9947.5
635.92	9736.56
636.114	9658.73
636.308	9511.28
636.501	9673.07
636.695	9609.58
636.889	9449.84
637.083	9439.6
637.276	9476.46
637.47	9415.02
637.664	9257.33
637.857	9468.27
638.051	9335.15
638.244	9359.73
638.438	9066.87
638.632	9187.7
638.825	9023.86
639.019	9009.53
639.212	8943.99
639.406	8937.85
639.599	8708.48
639.793	8980.85
639.986	8718.71
640.18	8626.56
640.373	8843.64
640.567	8657.28
640.76	8622.46
640.954	8458.62
641.147	8423.81
641.34	8532.35
641.534	8305.03
641.727	8352.13
641.92	8417.66
642.114	8184.2
642.307	8257.92
642.5	8190.34
642.694	8114.56
642.887	7938.44
643.08	8219.01
643.273	8073.6
643.467	8079.75
643.66	7862.66
643.853	7676.3
644.046	7641.48
644.239	7807.37
644.432	7696.78
644.626	7543.18
644.819	7676.3
645.012	7483.79
645.205	7586.19
645.398	7455.12
645.591	7389.58
645.784	7561.61
645.977	7278.99
646.17	7317.9
646.363	7129.49
646.556	7106.96
646.749	7109.01
646.942	7190.93
647.135	7100.82
647.328	7139.73
647.521	7051.67
647.714	6957.46
647.907	6986.13
648.099	6920.6
648.292	6865.3
648.485	6840.73
648.678	6734.23
648.871	6664.6
649.064	6590.88
649.256	6797.72
649.449	6517.15
649.642	6640.03
649.835	6582.68
650.027	6500.76
650.22	6494.62
650.413	6508.96
650.605	6447.52
650.798	6361.5
650.991	6199.71
651.183	6345.12
651.376	6255.01
651.568	6375.84
651.761	6265.25
651.954	6128.03
652.146	6144.42
652.339	6283.68
652.531	5966.24
652.724	5915.05
652.916	5841.32
653.109	5876.13
653.301	5947.81
653.494	6021.54
653.686	5826.98
653.879	6035.88
654.071	5822.89
654.263	5874.09
654.456	5652.91
654.648	5806.5
654.84	5589.42
655.033	5693.87
655.225	5573.03
655.417	5683.63
655.61	5816.74
655.802	5724.58
655.994	5761.45
656.186	5542.32
656.379	5634.47
656.571	5355.95
656.763	5417.39
656.955	5261.74
657.148	5247.41
657.34	5317.04
657.532	5124.53
657.724	5282.22
657.916	5446.06
658.108	5374.38
658.3	5097.91
658.492	5194.16
658.684	5212.59
658.876	5134.77
659.068	5038.52
659.26	5020.08
659.452	4886.97
659.644	5040.56
659.836	4788.66
660.028	4821.43
660.22	4792.76
660.412	4839.86
660.604	4766.14
660.796	4839.86
660.988	4891.06
661.18	4819.38
661.372	4790.71
661.563	4741.56
661.755	4731.32
661.947	4508.09
662.139	4714.94
662.331	4610.49
662.522	4553.15
662.714	4352.45
662.906	4501.95
663.097	4493.76
663.289	4344.25
663.481	4307.39
663.673	4438.46
663.864	4506.04
664.056	4411.84
664.247	4389.31
664.439	4358.59
664.631	4450.75
664.822	4346.3
665.014	4342.21
665.205	4211.14
665.397	4207.04
665.588	4176.32
665.78	4225.47
665.971	4129.22
666.163	4088.26
666.354	4180.42
666.546	4161.98
666.737	4104.64
666.929	4032.96
667.12	4178.37
667.311	4149.7
667.503	4078.02
667.694	3969.48
667.885	3983.81
668.077	4051.39
668.268	3918.28
668.459	4067.78
668.651	3889.6
668.842	3989.96
669.033	3893.7
669.224	4022.72
669.416	3985.86
669.607	3885.51
669.798	3793.35
669.989	3930.56
670.18	3711.43
670.371	3946.95
670.563	3832.26
670.754	3977.67
670.945	3797.45
671.136	3889.6
671.327	3748.29
671.518	3764.68
671.709	3871.17
671.9	3795.4
672.091	3738.05
672.282	3793.35
672.473	3738.05
672.664	3842.5
672.855	3736.01
673.046	3746.25
673.237	3869.12
673.428	3711.43
673.619	3830.21
673.809	3623.37
674	3748.29
674.191	3951.04
674.382	3668.42
674.573	3682.76
674.764	3676.62
674.954	3797.45
675.145	3666.38
675.336	3705.29
675.527	3688.9
675.717	3656.14
675.908	3649.99
676.099	3707.34
676.289	3537.35
676.48	3582.41
676.671	3699.14
676.861	3693
677.052	3557.83
677.243	3566.03
677.433	3621.32
677.624	3789.25
677.814	3756.49
678.005	3709.38
678.195	3656.14
678.386	3699.14
678.576	3717.58
678.767	3686.86
678.957	3736.01
679.148	3805.64
679.338	3604.94
679.529	3713.48
679.719	3742.15
679.909	3752.39
680.1	3670.47
680.29	3727.82
680.481	3664.33
680.671	3934.66
680.861	3695.05
681.052	3766.73
681.242	3693
681.432	3693
681.622	3781.06
681.813	3484.11
682.003	3703.24
682.193	3744.2
682.383	3631.56
682.573	3594.7
682.764	3762.63
682.954	3822.02
683.144	3654.09
683.334	3594.7
683.524	3750.34
683.714	3799.49
683.904	3865.03
684.094	3697.1
684.284	3873.22
684.474	3838.41
684.664	3791.3
684.854	3760.58
685.044	3758.53
685.234	3699.14
685.424	3649.99
685.614	3645.9
685.804	3731.91
685.994	3711.43
686.184	3690.95
686.374	3721.67
686.564	3754.44
686.753	3615.18
686.943	3568.07
687.133	3727.82
687.323	3738.05
687.513	3555.79
687.702	3580.36
687.892	3576.27
688.082	3647.94
688.272	3695.05
688.461	3594.7
688.651	3752.39
688.841	3561.93
689.03	3660.23
689.22	3647.94
689.41	3504.59
689.599	3471.82
689.789	3488.2
689.979	3637.7
690.168	3504.59
690.358	3592.65
690.547	3398.09
690.737	3543.5
690.926	3473.87
691.116	3336.65
691.305	3514.83
691.495	3430.86
691.684	3424.72
691.874	3324.37
692.063	3367.37
692.252	3371.47
692.442	3375.56
692.631	3389.9
692.82	3281.36
693.01	3400.14
693.199	3246.54
693.388	3379.66
693.578	3283.41
693.767	3373.52
693.956	3348.94
694.146	3242.45
694.335	3330.51
694.524	3183.06
694.713	3193.3
694.902	3138
695.092	3338.7
695.281	3389.9
695.47	3340.75
695.659	3209.68
695.848	3267.02
696.037	3338.7
696.226	3336.65
696.415	3260.88
696.604	3449.29
696.793	3281.36
696.982	3213.77
697.171	3340.75
697.36	3221.97
697.549	3271.12
697.738	3305.93
697.927	3234.25
698.116	3391.95
698.305	3330.51
698.494	3381.71
698.683	3291.6
698.872	3447.24
699.061	3441.1
699.25	3348.94
699.438	3336.65
699.627	3406.28
699.816	3420.62
700.005	3316.17
700.193	3269.07
700.382	3447.24
700.571	3353.04
700.76	3398.09
700.948	3359.18
701.137	3305.93
701.326	3488.2
701.514	3295.69
701.703	3432.91
701.892	3295.69
702.08	3617.22
702.269	3387.85
702.457	3357.13
702.646	3453.39
702.834	3320.27
703.023	3471.82
703.212	3434.96
703.4	3432.91
703.589	3461.58
703.777	3408.33
703.965	3385.8
704.154	3371.47
704.342	3520.97
704.531	3568.07
704.719	3508.68
704.907	3445.2
705.096	3496.39
705.284	3457.48
705.472	3381.71
705.661	3504.59
705.849	3508.68
706.037	3500.49
706.226	3398.09
706.414	3559.88
706.602	3414.48
706.79	3623.37
706.979	3586.51
707.167	3453.39
707.355	3441.1
707.543	3529.16
707.731	3609.03
707.919	3660.23
708.107	3582.41
708.296	3551.69
708.484	3541.45
708.672	3520.97
708.86	3484.11
709.048	3613.13
709.236	3731.91
709.424	3621.32
709.612	3553.74
709.8	3523.02
709.988	3613.13
710.176	3727.82
710.364	3701.19
710.551	3693
710.739	3527.11
710.927	3586.51
711.115	3690.95
711.303	3611.08
711.491	3697.1
711.679	3611.08
711.866	3639.75
712.054	3553.74
712.242	3627.46
712.43	3641.8
712.617	3568.07
712.805	3609.03
712.993	3594.7
713.181	3557.83
713.368	3662.28
713.556	3547.59
713.744	3594.7
713.931	3809.73
714.119	3740.1
714.306	3731.91
714.494	3619.27
714.682	3613.13
714.869	3514.83
715.057	3709.38
715.244	3668.42
715.432	3719.62
715.619	3639.75
715.807	3738.05
715.994	3660.23
716.182	3768.77
716.369	3901.89
716.556	3779.01
716.744	3611.08
716.931	3768.77
717.119	3781.06
717.306	3834.31
717.493	3690.95
717.681	3760.58
717.868	3641.8
718.055	3688.9
718.242	3776.97
718.43	3738.05
718.617	3750.34
718.804	3744.2
718.991	3748.29
719.179	3862.98
719.366	3895.75
719.553	3766.73
719.74	3813.83
719.927	3781.06
720.114	3752.39
720.301	3711.43
720.488	3799.49
720.676	3744.2
720.863	3793.35
721.05	4061.63
721.237	3895.75
721.424	3789.25
721.611	3891.65
721.798	3776.97
721.985	3801.54
722.172	3846.6
722.358	3664.33
722.545	3774.92
722.732	3799.49
722.919	3998.15
723.106	3879.36
723.293	3719.62
723.48	3867.08
723.667	3801.54
723.853	3766.73
724.04	3793.35
724.227	3805.64
724.414	3748.29
724.6	3807.69
724.787	3858.89
724.974	3908.04
725.161	3811.78
725.347	3844.55
725.534	3989.96
725.72	3785.16
725.907	3770.82
726.094	3731.91
726.28	3854.79
726.467	3758.53
726.653	3795.4
726.84	3754.44
727.027	4002.24
727.213	3774.92
727.4	3834.31
727.586	3819.97
727.773	3912.13
727.959	3770.82
728.145	3850.69
728.332	3783.11
728.518	3723.72
728.705	3854.79
728.891	3981.76
729.077	3805.64
729.264	3869.12
729.45	3805.64
729.636	3946.95
729.823	3811.78
730.009	3871.17
730.195	3762.63
730.382	3809.73
730.568	3789.25
730.754	3889.6
730.94	3848.65
731.126	3881.41
731.313	3908.04
731.499	3932.61
731.685	3840.45
731.871	3705.29
732.057	3795.4
732.243	3852.74
732.429	3877.32
732.615	3867.08
732.801	3842.5
732.987	3760.58
733.173	3744.2
733.359	3846.6
733.545	3715.53
733.731	3750.34
733.917	3746.25
734.103	3758.53
734.289	3760.58
734.475	3609.03
734.661	3889.6
734.847	3727.82
735.033	3717.58
735.219	3762.63
735.404	3711.43
735.59	3752.39
735.776	3604.94
735.962	3787.21
736.148	3613.13
736.333	3805.64
736.519	3768.77
736.705	3791.3
736.89	3627.46
737.076	3811.78
737.262	3557.83
737.447	3649.99
737.633	3742.15
737.819	3719.62
738.004	3736.01
738.19	3643.85
738.375	3637.7
738.561	3676.62
738.747	3662.28
738.932	3576.27
739.118	3572.17
739.303	3813.83
739.489	3617.22
739.674	3467.72
739.859	3471.82
740.045	3557.83
740.23	3498.44
740.416	3525.07
740.601	3627.46
740.786	3617.22
740.972	3449.29
741.157	3590.6
741.342	3430.86
741.528	3627.46
741.713	3566.03
741.898	3396.04
742.084	3369.42
742.269	3465.68
742.454	3439.05
742.639	3469.77
742.824	3322.32
743.01	3461.58
743.195	3353.04
743.38	3320.27
743.565	3305.93
743.75	3402.19
743.935	3334.61
744.12	3420.62
744.305	3234.25
744.49	3252.69
744.675	3226.06
744.86	3238.35
745.045	3363.28
745.23	3195.34
745.415	3181.01
745.6	3219.92
745.785	3056.08
745.97	3293.65
746.155	3142.1
746.34	3070.42
746.525	3060.18
746.71	3123.66
746.895	3013.07
747.079	3074.51
747.264	3029.46
747.449	3074.51
747.634	3035.6
747.819	3097.04
748.003	2937.3
748.188	2871.76
748.373	3074.51
748.557	2982.35
748.742	2976.21
748.927	2914.77
749.111	2791.89
749.296	2900.44
749.481	2808.28
749.665	2826.71
749.85	2644.44
750.034	2771.41
750.219	2769.37
750.404	2726.36
750.588	2777.56
750.773	2695.64
750.957	2511.32
751.141	2546.14
751.326	2685.4
751.51	2609.62
751.695	2697.69
751.879	2613.72
752.064	2656.73
752.248	2503.13
752.432	2501.08
752.617	2447.83
752.801	2494.94
752.985	2486.75
753.17	2423.26
753.354	2542.04
753.538	2468.31
753.722	2392.54
753.907	2421.21
754.091	2247.13
754.275	2343.39
754.459	2165.21
754.643	2165.21
754.828	2288.09
755.012	2265.57
755.196	2339.29
755.38	2372.06
755.564	2251.23
755.748	2240.99
755.932	2331.1
756.116	2240.99
756.3	2173.41
756.484	2208.22
756.668	2167.26
756.852	2159.07
757.036	2089.44
757.22	2056.67
757.404	2210.27
757.588	2025.95
757.772	2032.1
757.956	2056.67
758.14	2032.1
758.323	2034.14
758.507	2064.86
758.691	2030.05
758.875	2077.15
759.059	2003.43
759.242	1905.12
759.426	1931.75
759.61	1911.27
759.794	1835.49
759.977	2001.38
760.161	1999.33
760.345	1907.17
760.528	1847.78
760.712	1872.36
760.895	1839.59
761.079	1907.17
761.263	1792.48
761.446	1862.12
761.63	1823.2
761.813	1882.6
761.997	1720.81
762.18	1692.13
762.364	1765.86
762.547	1626.6
762.731	1759.72
762.914	1747.43
763.098	1614.31
763.281	1778.15
763.464	1700.33
763.648	1661.41
763.831	1638.89
764.015	1657.32
764.198	1685.99
764.381	1661.41
764.564	1624.55
764.748	1595.88
764.931	1673.7
765.114	1534.44
765.297	1700.33
765.481	1475.05
765.664	1675.75
765.847	1507.82
766.03	1673.7
766.213	1653.22
766.397	1587.69
766.58	1616.36
766.763	1577.45
766.946	1585.64
767.129	1569.26
767.312	1647.08
767.495	1505.77
767.678	1626.6
767.861	1516.01
768.044	1581.54
768.227	1538.54
768.41	1522.15
768.593	1556.97
768.776	1501.67
768.959	1446.38
769.142	1526.25
769.324	1563.11
769.507	1442.28
769.69	1376.75
769.873	1432.04
770.056	1591.78
770.239	1475.05
770.421	1511.91
770.604	1470.95
770.787	1307.12
770.97	1491.43
771.152	1325.55
771.335	1440.23
771.518	1401.32
771.7	1427.95
771.883	1425.9
772.066	1337.84
772.248	1360.36
772.431	1434.09
772.613	1405.42
772.796	1331.69
772.978	1313.26
773.161	1374.7
773.343	1296.88
773.526	1350.12
773.708	1227.25
773.891	1155.57
774.073	1288.68
774.256	1264.11
774.438	1364.46
774.621	1198.57
774.803	1231.34
774.985	1257.96
775.168	1206.77
775.35	1231.34
775.532	1262.06
775.715	1147.37
775.897	1143.28
776.079	1139.18
776.261	1167.85
776.444	1106.42
776.626	1149.42
776.808	1055.22
776.99	1055.22
777.173	1085.94
777.355	999.92
777.537	1159.66
777.719	1079.79
777.901	1100.27
778.083	1022.45
778.265	1004.02
778.447	1059.31
778.629	1069.55
778.811	1040.88
778.993	1065.46
779.175	956.91
779.357	1159.66
779.539	922.1
779.721	1014.26
779.903	1010.16
780.085	965.11
780.267	940.53
780.449	967.15
780.631	1047.02
780.812	967.15
780.994	926.19
781.176	997.87
781.358	897.52
781.54	967.15
781.721	893.43
781.903	950.77
782.085	881.14
782.267	895.47
782.448	858.61
782.63	825.84
782.812	895.47
782.993	868.85
783.175	891.38
783.357	793.08
783.538	809.46
783.72	829.94
783.901	911.86
784.083	895.47
784.264	786.93
784.446	854.51
784.627	741.88
784.809	858.61
784.99	582.14
785.172	778.74
785.353	735.73
785.535	764.4
785.716	762.36
785.897	662.01
786.079	774.64
786.26	782.84
786.441	709.11
786.623	717.3
786.804	672.25
786.985	707.06
787.167	653.81
787.348	612.85
787.529	750.07
787.71	727.54
787.891	766.45
788.073	692.73
788.254	731.64
788.435	723.44
788.616	715.25
788.797	612.85
788.978	612.85
789.159	625.14
789.34	610.81
789.522	674.29
789.703	600.57
789.884	530.94
790.065	573.94
790.246	616.95
790.427	639.48
790.607	633.33
790.788	627.19
790.969	539.13
791.15	590.33
791.331	608.76
791.512	535.03
791.693	537.08
791.874	610.81
792.054	596.47
792.235	559.61
792.416	518.65
792.597	508.41
792.778	485.88
792.958	520.7
793.139	528.89
793.32	510.46
793.5	451.07
793.681	543.22
793.862	553.46
794.042	567.8
794.223	504.31
794.404	481.78
794.584	442.87
794.765	473.59
794.945	465.4
795.126	494.07
795.306	506.36
795.487	455.16
795.667	440.83
795.848	510.46
796.028	397.82
796.209	489.98
796.389	504.31
796.57	504.31
796.75	385.53
796.93	479.74
797.111	410.11
797.291	412.15
797.471	436.73
797.652	449.02
797.832	426.49
798.012	473.59
798.192	406.01
798.373	360.95
798.553	410.11
798.733	410.11
798.913	377.34
799.093	358.91
799.274	367.1
799.454	580.09
799.634	489.98
799.814	406.01
799.994	403.96
800.174	408.06
800.354	436.73
800.534	305.66
800.714	434.68
800.894	395.77
801.074	328.19
801.254	438.78
801.434	416.25
801.614	387.58
801.794	305.66
801.974	1358.32
802.154	373.24
802.334	406.01
802.514	371.19
802.693	336.38
802.873	350.71
803.053	379.39
803.233	334.33
803.413	358.91
803.592	305.66
803.772	381.43
803.952	291.32
804.131	338.43
804.311	393.72
804.491	346.62
804.67	295.42
804.85	221.69
805.03	322.04
805.209	408.06
805.389	336.38
805.568	336.38
805.748	342.52
805.928	346.62
806.107	332.28
806.287	346.62
806.466	264.7
806.646	283.13
806.825	307.71
807.004	276.99
807.184	328.19
807.363	317.95
807.543	295.42
807.722	313.85
807.901	250.36
808.081	299.52
808.26	276.99
808.439	250.36
808.619	201.21
808.798	258.56
808.977	305.66
809.156	287.23
809.336	233.98
809.515	250.36
809.694	199.16
809.873	229.88
810.052	317.95
810.231	330.23
810.411	315.9
810.59	358.91
810.769	270.84
810.948	260.6
811.127	199.16
811.306	260.6
811.485	242.17
811.664	307.71
811.843	270.84
812.022	309.76
812.201	272.89
812.38	262.65
812.559	199.16
812.737	238.08
812.916	152.06
813.095	244.22
813.274	246.27
813.453	238.08
813.632	266.75
813.811	320
813.989	145.92
814.168	276.99
814.347	180.73
814.526	217.6
814.704	293.37
814.883	215.55
815.062	158.21
815.24	283.13
815.419	178.69
815.598	211.45
815.776	123.39
815.955	246.27
816.133	143.87
816.312	180.73
816.49	217.6
816.669	256.51
816.847	207.36
817.026	158.21
817.204	172.54
817.383	217.6
817.561	143.87
817.74	272.89
817.918	215.55
818.097	178.69
818.275	170.49
818.453	190.97
818.632	182.78
818.81	209.4
818.988	186.88
819.167	199.16
819.345	215.55
819.523	199.16
819.701	221.69
819.879	184.83
820.058	225.79
820.236	285.18
820.414	186.88
820.592	174.59
820.77	131.58
820.948	166.4
821.127	197.12
821.305	211.45
821.483	158.21
821.661	258.56
821.839	143.87
822.017	131.58
822.195	121.34
822.373	233.98
822.551	195.07
822.729	209.4
822.907	156.16
823.085	221.69
823.262	184.83
823.44	129.53
823.618	160.25
823.796	184.83
823.974	186.88
824.152	164.35
824.329	143.87
824.507	141.82
824.685	180.73
824.863	162.3
825.04	152.06
825.218	143.87
825.396	147.97
825.574	135.68
825.751	113.15
825.929	133.63
826.107	82.43
826.284	133.63
826.462	207.36
826.639	102.91
826.817	113.15
826.994	117.25
827.172	139.77
827.349	182.78
827.527	141.82
827.704	168.45
827.882	98.81
828.059	90.62
828.237	147.97
828.414	164.35
828.591	16.9
828.769	102.91
828.946	45.57
829.124	176.64
829.301	193.02
829.478	125.44
829.655	109.05
829.833	111.1
830.01	4.61
830.187	135.68
830.364	127.49
830.542	123.39
830.719	207.36
830.896	156.16
831.073	172.54
831.25	131.58
831.427	193.02
831.604	145.92
831.782	49.66
831.959	125.44
832.136	127.49
832.313	150.01
832.49	49.66
832.667	188.93
832.844	94.72
833.021	152.06
833.198	221.69
833.374	98.81
833.551	135.68
833.728	55.81
833.905	209.4
834.082	123.39
834.259	88.57
834.436	180.73
834.612	43.52
834.789	178.69
834.966	61.95
835.143	94.72
835.319	16.9
835.496	145.92
835.673	92.67
835.85	125.44
836.026	113.15
836.203	121.34
836.38	78.33
836.556	74.24
836.733	57.86
836.909	123.39
837.086	96.77
837.262	47.62
837.439	80.38
837.616	115.2
837.792	119.29
837.968	49.66
838.145	43.52
838.321	94.72
838.498	74.24
838.674	76.29
838.851	72.19
839.027	125.44
839.203	14.85
839.38	170.49
839.556	45.57
839.732	104.96
839.909	145.92
840.085	123.39
840.261	57.86
840.437	88.57
840.614	107.01
840.79	121.34
840.966	29.18
841.142	66.05
841.318	53.76
841.494	100.86
841.671	70.14
841.847	92.67
842.023	53.76
842.199	143.87
842.375	172.54
842.551	-7.68
842.727	100.86
842.903	156.16
843.079	45.57
843.255	164.35
843.431	23.04
843.607	121.34
843.783	35.33
843.959	25.09
844.134	66.05
844.31	176.64
844.486	29.18
844.662	70.14
844.838	-1.54
845.013	18.94
845.189	115.2
845.365	80.38
845.541	98.81
845.716	61.95
845.892	96.77
846.068	20.99
846.244	16.9
846.419	51.71
846.595	39.42
846.77	51.71
846.946	127.49
847.122	27.14
847.297	10.75
847.473	125.44
847.648	61.95
847.824	98.81
847.999	-3.58
848.175	35.33
848.35	37.38
848.526	14.85
848.701	141.82
848.876	102.91
849.052	74.24
849.227	-15.87
849.403	0.51
849.578	25.09
849.753	41.47
849.929	20.99
850.104	-38.4
850.279	76.29
850.454	-34.3
850.63	47.62
850.805	113.15
850.98	-22.02
851.155	61.95
851.33	8.7
851.505	-17.92
851.681	92.67
851.856	-19.97
852.031	109.05
852.206	70.14
852.381	-22.02
852.556	-7.68
852.731	37.38
852.906	160.25
853.081	-15.87
853.256	41.47
853.431	72.19
853.606	33.28
853.781	-32.26
853.956	-32.26
854.131	107.01
854.305	25.09
854.48	37.38
854.655	59.9
854.83	-13.82
855.005	0.51
855.18	70.14
855.354	27.14
855.529	47.62
855.704	-69.12
855.879	68.09
856.053	-7.68
856.228	78.33
856.403	10.75
856.577	-48.64
856.752	-42.5
856.926	61.95
857.101	23.04
857.276	31.23
857.45	111.1
857.625	70.14
857.799	-36.35
857.974	14.85
858.148	-44.54
858.323	74.24
858.497	-62.98
858.672	14.85
858.846	10.75
859.02	51.71
859.195	-3.58
859.369	18.94
859.543	43.52
859.718	37.38
859.892	31.23
860.066	29.18
860.241	31.23
860.415	2.56
860.589	37.38
860.763	-15.87
860.938	-34.3
861.112	16.9
861.286	-9.73
861.46	33.28
861.634	35.33
861.808	33.28
861.982	14.85
862.157	0.51
862.331	-108.03
862.505	53.76
862.679	-95.74
862.853	33.28
863.027	18.94
863.201	78.33
863.375	12.8
863.549	47.62
863.722	8.7
863.896	115.2
864.07	-13.82
864.244	51.71
864.418	86.53
864.592	-42.5
864.766	-11.78
864.939	0.51
865.113	37.38
865.287	64
865.461	-36.35
865.634	37.38
865.808	8.7
865.982	-34.3
866.156	2.56
866.329	-28.16
866.503	-3.58
866.676	80.38
866.85	-5.63
867.024	-5.63
867.197	45.57
867.371	121.34
867.544	4.61
867.718	23.04
867.891	96.77
868.065	-85.5
868.238	23.04
868.412	66.05
868.585	64
868.759	-73.21
868.932	-58.88
869.105	-28.16
869.279	-52.74
869.452	-11.78
869.625	-28.16
869.799	-22.02
869.972	-128.51
870.145	-1.54
870.319	70.14
870.492	-28.16
870.665	-3.58
870.838	31.23
871.011	-85.5
871.185	-5.63
871.358	12.8
871.531	31.23
871.704	31.23
871.877	18.94
872.05	23.04
872.223	33.28
872.396	37.38
872.569	-7.68
872.742	-40.45
872.915	6.66
873.088	-97.79
873.261	-44.54
873.434	84.48
873.607	27.14
873.78	41.47
873.953	-34.3
874.126	-42.5
874.299	82.43
874.471	29.18
874.644	43.52
874.817	45.57
874.99	43.52
875.163	-11.78
875.335	-17.92
875.508	-3.58
875.681	18.94
875.853	41.47
876.026	23.04
876.199	82.43
876.371	51.71
876.544	55.81
876.717	-24.06
876.889	-15.87
877.062	2.56
877.234	-67.07
877.407	-30.21
877.579	-13.82
877.752	23.04
877.924	33.28
878.097	-22.02
878.269	-30.21
878.442	-13.82
878.614	59.9
878.786	2.56
878.959	-5.63
879.131	0.51
879.303	-36.35
879.476	-36.35
879.648	-1.54
879.82	-30.21
879.993	-34.3
880.165	64
880.337	-91.65
880.509	35.33
880.681	-65.02
880.854	6.66
881.026	53.76
881.198	61.95
881.37	12.8
881.542	70.14
881.714	72.19
881.886	-69.12
882.058	66.05
882.23	-44.54
882.402	-58.88
882.574	37.38
882.746	-17.92
882.918	-13.82
883.09	49.66
883.262	2.56
883.434	33.28
883.606	-13.82
883.778	41.47
883.95	78.33
884.122	-103.93
884.293	31.23
884.465	-13.82
884.637	0.51
884.809	-30.21
884.98	14.85
885.152	2.56
885.324	-48.64
885.496	-48.64
885.667	-52.74
885.839	-30.21
886.011	39.42
886.182	14.85
886.354	12.8
886.525	6.66
886.697	-5.63
886.869	-30.21
887.04	-69.12
887.212	16.9
887.383	-28.16
887.555	-15.87
887.726	-91.65
887.897	-67.07
888.069	-67.07
888.24	45.57
888.412	57.86
888.583	-13.82
888.754	-17.92
888.926	-75.26
889.097	-89.6
889.268	-65.02
889.44	45.57
889.611	-69.12
889.782	-48.64
889.953	31.23
890.125	61.95
890.296	-65.02
890.467	-54.78
890.638	10.75
890.809	-89.6
890.98	-1.54
891.151	20.99
891.323	51.71
891.494	100.86
891.665	98.81
891.836	-24.06
892.007	-9.73
892.178	35.33
892.349	-3.58
892.52	-9.73
892.691	6.66
892.862	-11.78
893.032	-17.92
893.203	37.38
893.374	18.94
893.545	70.14
893.716	-1.54
893.887	14.85
894.057	-13.82
894.228	8.7
894.399	-60.93
894.57	45.57
894.74	96.77
894.911	59.9
895.082	12.8
895.253	-11.78
895.423	-79.36
895.594	33.28
895.764	25.09
895.935	51.71
896.106	8.7
896.276	37.38
896.447	-1.54
896.617	-19.97
896.788	-15.87
896.958	14.85
897.129	-85.5
897.299	-17.92
897.47	70.14
897.64	39.42
897.81	-48.64
897.981	-17.92
898.151	-50.69
898.322	47.62
898.492	66.05
898.662	-13.82
898.832	0.51
899.003	-34.3
899.173	-13.82
899.343	-26.11
899.513	23.04
