Data from USB4F104151__95__12-13-15-649.txt Node

Date: Fri Mar 14 12:13:15 EDT 2025
User: louis
Spectrometer: USB4F10415
Trigger mode: 4
Integration Time (sec): 5.000000E-2
Scans to average: 1
Electric dark correction enabled: true
Nonlinearity correction enabled: false
Boxcar width: 0
XAxis mode: Wavelengths
Number of Pixels in Spectrum: 3648
>>>>>Begin Spectral Data<<<<<
178.204	-165.37
178.424	-165.37
178.644	-165.37
178.864	-185.85
179.084	-208.38
179.304	-36.35
179.524	35.33
179.744	18.94
179.964	-9.73
180.184	31.23
180.404	-11.78
180.624	-71.17
180.844	6.66
181.064	-52.74
181.283	31.23
181.503	35.33
181.723	23.04
181.943	-52.74
182.163	131.58
182.383	53.76
182.602	121.34
182.822	76.29
183.042	23.04
183.262	-1.54
183.482	111.1
183.701	41.47
183.921	33.28
184.141	25.09
184.361	96.77
184.58	41.47
184.8	41.47
185.02	10.75
185.239	74.24
185.459	70.14
185.679	90.62
185.898	12.8
186.118	49.66
186.338	-11.78
186.557	94.72
186.777	104.96
186.997	20.99
187.216	37.38
187.436	111.1
187.655	78.33
187.875	35.33
188.095	96.77
188.314	84.48
188.534	154.11
188.753	88.57
188.973	125.44
189.192	45.57
189.412	66.05
189.631	39.42
189.851	78.33
190.07	64
190.29	-87.55
190.509	45.57
190.729	37.38
190.948	90.62
191.168	184.83
191.387	88.57
191.607	-3.58
191.826	23.04
192.045	35.33
192.265	125.44
192.484	92.67
192.704	68.09
192.923	-11.78
193.142	190.97
193.362	25.09
193.581	53.76
193.8	2.56
194.02	127.49
194.239	64
194.458	70.14
194.678	59.9
194.897	98.81
195.116	90.62
195.335	64
195.555	35.33
195.774	76.29
195.993	55.81
196.212	88.57
196.432	-22.02
196.651	0.51
196.87	37.38
197.089	252.41
197.308	68.09
197.528	10.75
197.747	2.56
197.966	39.42
198.185	47.62
198.404	41.47
198.623	109.05
198.842	145.92
199.062	113.15
199.281	186.88
199.5	86.53
199.719	131.58
199.938	123.39
200.157	49.66
200.376	78.33
200.595	72.19
200.814	41.47
201.033	35.33
201.252	109.05
201.471	147.97
201.69	168.45
201.909	-11.78
202.128	53.76
202.347	49.66
202.566	41.47
202.785	29.18
203.004	55.81
203.223	129.53
203.442	104.96
203.661	37.38
203.879	84.48
204.098	47.62
204.317	23.04
204.536	88.57
204.755	51.71
204.974	31.23
205.193	-28.16
205.411	125.44
205.63	31.23
205.849	-1.54
206.068	37.38
206.287	90.62
206.505	84.48
206.724	49.66
206.943	-5.63
207.162	57.86
207.381	57.86
207.599	-50.69
207.818	8.7
208.037	70.14
208.255	131.58
208.474	74.24
208.693	18.94
208.911	104.96
209.13	51.71
209.349	33.28
209.567	35.33
209.786	129.53
210.005	64
210.223	-3.58
210.442	37.38
210.661	45.57
210.879	59.9
211.098	39.42
211.316	76.29
211.535	80.38
211.753	70.14
211.972	82.43
212.191	96.77
212.409	88.57
212.628	98.81
212.846	14.85
213.065	129.53
213.283	64
213.502	100.86
213.72	-15.87
213.938	55.81
214.157	51.71
214.375	51.71
214.594	64
214.812	100.86
215.031	88.57
215.249	18.94
215.467	96.77
215.686	37.38
215.904	66.05
216.122	84.48
216.341	74.24
216.559	121.34
216.778	127.49
216.996	92.67
217.214	68.09
217.432	10.75
217.651	68.09
217.869	55.81
218.087	37.38
218.306	8.7
218.524	119.29
218.742	18.94
218.96	72.19
219.179	20.99
219.397	76.29
219.615	156.16
219.833	72.19
220.051	27.14
220.27	117.25
220.488	53.76
220.706	43.52
220.924	2.56
221.142	2.56
221.36	64
221.578	82.43
221.796	57.86
222.015	102.91
222.233	39.42
222.451	133.63
222.669	-17.92
222.887	45.57
223.105	-15.87
223.323	-5.63
223.541	49.66
223.759	90.62
223.977	-9.73
224.195	86.53
224.413	129.53
224.631	68.09
224.849	29.18
225.067	111.1
225.285	-28.16
225.503	20.99
225.721	-9.73
225.939	57.86
226.157	43.52
226.375	178.69
226.592	-13.82
226.81	74.24
227.028	74.24
227.246	135.68
227.464	53.76
227.682	82.43
227.9	111.1
228.117	78.33
228.335	111.1
228.553	25.09
228.771	49.66
228.989	68.09
229.206	160.25
229.424	49.66
229.642	-17.92
229.86	27.14
230.077	82.43
230.295	10.75
230.513	111.1
230.731	82.43
230.948	82.43
231.166	102.91
231.384	98.81
231.601	-3.58
231.819	49.66
232.037	37.38
232.254	-11.78
232.472	33.28
232.689	27.14
232.907	90.62
233.125	37.38
233.342	45.57
233.56	53.76
233.777	31.23
233.995	8.7
234.213	152.06
234.43	70.14
234.648	51.71
234.865	66.05
235.083	43.52
235.3	61.95
235.518	59.9
235.735	131.58
235.953	59.9
236.17	84.48
236.388	64
236.605	27.14
236.822	49.66
237.04	61.95
237.257	70.14
237.475	39.42
237.692	20.99
237.909	96.77
238.127	53.76
238.344	150.01
238.562	57.86
238.779	-28.16
238.996	29.18
239.214	51.71
239.431	35.33
239.648	27.14
239.865	55.81
240.083	113.15
240.3	53.76
240.517	12.8
240.735	27.14
240.952	156.16
241.169	94.72
241.386	98.81
241.603	20.99
241.821	39.42
242.038	84.48
242.255	35.33
242.472	2.56
242.689	135.68
242.907	0.51
243.124	119.29
243.341	29.18
243.558	33.28
243.775	25.09
243.992	-32.26
244.209	94.72
244.426	131.58
244.643	143.87
244.86	6.66
245.078	49.66
245.295	127.49
245.512	20.99
245.729	-3.58
245.946	57.86
246.163	18.94
246.38	113.15
246.597	-5.63
246.814	51.71
247.031	12.8
247.248	82.43
247.464	23.04
247.681	59.9
247.898	74.24
248.115	84.48
248.332	72.19
248.549	174.59
248.766	205.31
248.983	109.05
249.2	90.62
249.417	49.66
249.633	37.38
249.85	12.8
250.067	-17.92
250.284	35.33
250.501	90.62
250.717	74.24
250.934	-56.83
251.151	76.29
251.368	-3.58
251.585	98.81
251.801	129.53
252.018	45.57
252.235	76.29
252.451	27.14
252.668	8.7
252.885	107.01
253.102	76.29
253.318	57.86
253.535	-34.3
253.752	35.33
253.968	-15.87
254.185	16.9
254.401	49.66
254.618	43.52
254.835	49.66
255.051	107.01
255.268	18.94
255.484	72.19
255.701	29.18
255.917	96.77
256.134	0.51
256.351	98.81
256.567	64
256.784	10.75
257	-30.21
257.217	43.52
257.433	29.18
257.65	49.66
257.866	100.86
258.082	2.56
258.299	23.04
258.515	33.28
258.732	37.38
258.948	-7.68
259.165	129.53
259.381	16.9
259.597	90.62
259.814	70.14
260.03	12.8
260.246	51.71
260.463	90.62
260.679	88.57
260.895	59.9
261.112	90.62
261.328	4.61
261.544	-3.58
261.761	86.53
261.977	16.9
262.193	27.14
262.409	135.68
262.626	92.67
262.842	92.67
263.058	-40.45
263.274	90.62
263.49	80.38
263.707	125.44
263.923	4.61
264.139	-15.87
264.355	86.53
264.571	172.54
264.787	96.77
265.004	55.81
265.22	57.86
265.436	-1.54
265.652	51.71
265.868	27.14
266.084	33.28
266.3	0.51
266.516	-36.35
266.732	39.42
266.948	96.77
267.164	-5.63
267.38	27.14
267.596	43.52
267.812	74.24
268.028	102.91
268.244	70.14
268.46	76.29
268.676	8.7
268.892	117.25
269.108	66.05
269.324	113.15
269.54	43.52
269.756	64
269.972	12.8
270.188	111.1
270.403	43.52
270.619	8.7
270.835	117.25
271.051	33.28
271.267	0.51
271.483	-7.68
271.698	78.33
271.914	2.56
272.13	158.21
272.346	104.96
272.562	66.05
272.777	82.43
272.993	66.05
273.209	12.8
273.425	59.9
273.64	-38.4
273.856	39.42
274.072	76.29
274.287	78.33
274.503	8.7
274.719	98.81
274.934	102.91
275.15	-22.02
275.366	12.8
275.581	78.33
275.797	51.71
276.012	61.95
276.228	6.66
276.444	20.99
276.659	23.04
276.875	-9.73
277.09	78.33
277.306	90.62
277.521	78.33
277.737	14.85
277.952	47.62
278.168	61.95
278.383	109.05
278.599	25.09
278.814	76.29
279.03	70.14
279.245	143.87
279.461	94.72
279.676	150.01
279.892	-30.21
280.107	80.38
280.322	74.24
280.538	47.62
280.753	37.38
280.969	45.57
281.184	82.43
281.399	125.44
281.615	8.7
281.83	66.05
282.045	74.24
282.26	-11.78
282.476	31.23
282.691	59.9
282.906	68.09
283.122	-1.54
283.337	43.52
283.552	133.63
283.767	27.14
283.983	14.85
284.198	31.23
284.413	82.43
284.628	-56.83
284.843	72.19
285.058	129.53
285.274	16.9
285.489	-3.58
285.704	78.33
285.919	20.99
286.134	25.09
286.349	84.48
286.564	80.38
286.779	121.34
286.995	18.94
287.21	41.47
287.425	39.42
287.64	57.86
287.855	59.9
288.07	-91.65
288.285	96.77
288.5	162.3
288.715	61.95
288.93	111.1
289.145	64
289.36	162.3
289.575	47.62
289.79	-3.58
290.004	55.81
290.219	88.57
290.434	0.51
290.649	-50.69
290.864	61.95
291.079	78.33
291.294	104.96
291.509	20.99
291.724	86.53
291.938	51.71
292.153	82.43
292.368	37.38
292.583	35.33
292.798	125.44
293.012	109.05
293.227	66.05
293.442	37.38
293.657	66.05
293.871	68.09
294.086	117.25
294.301	154.11
294.516	129.53
294.73	25.09
294.945	-116.22
295.16	115.2
295.374	80.38
295.589	156.16
295.804	41.47
296.018	-1.54
296.233	23.04
296.447	84.48
296.662	-15.87
296.877	53.76
297.091	92.67
297.306	92.67
297.52	6.66
297.735	33.28
297.949	20.99
298.164	129.53
298.378	29.18
298.593	25.09
298.807	35.33
299.022	100.86
299.236	117.25
299.451	61.95
299.665	23.04
299.88	18.94
300.094	51.71
300.309	66.05
300.523	16.9
300.737	12.8
300.952	123.39
301.166	59.9
301.381	78.33
301.595	-11.78
301.809	186.88
302.024	119.29
302.238	33.28
302.452	104.96
302.667	14.85
302.881	41.47
303.095	100.86
303.309	117.25
303.524	61.95
303.738	107.01
303.952	72.19
304.166	61.95
304.381	53.76
304.595	84.48
304.809	115.2
305.023	45.57
305.237	59.9
305.452	-19.97
305.666	43.52
305.88	111.1
306.094	100.86
306.308	125.44
306.522	123.39
306.736	92.67
306.95	27.14
307.164	129.53
307.379	29.18
307.593	180.73
307.807	154.11
308.021	100.86
308.235	107.01
308.449	2.56
308.663	-1.54
308.877	137.73
309.091	121.34
309.305	129.53
309.519	-22.02
309.733	96.77
309.947	98.81
310.161	123.39
310.374	147.97
310.588	57.86
310.802	-17.92
311.016	0.51
311.23	51.71
311.444	16.9
311.658	92.67
311.872	90.62
312.085	98.81
312.299	86.53
312.513	135.68
312.727	139.77
312.941	16.9
313.154	68.09
313.368	57.86
313.582	39.42
313.796	37.38
314.009	47.62
314.223	37.38
314.437	86.53
314.651	64
314.864	74.24
315.078	8.7
315.292	-3.58
315.505	47.62
315.719	129.53
315.933	70.14
316.146	104.96
316.36	-9.73
316.573	158.21
316.787	129.53
317.001	37.38
317.214	96.77
317.428	127.49
317.641	-17.92
317.855	-52.74
318.068	100.86
318.282	111.1
318.495	121.34
318.709	64
318.922	92.67
319.136	162.3
319.349	76.29
319.563	94.72
319.776	133.63
319.99	4.61
320.203	139.77
320.417	39.42
320.63	84.48
320.843	123.39
321.057	92.67
321.27	61.95
321.483	100.86
321.697	80.38
321.91	125.44
322.124	23.04
322.337	-3.58
322.55	23.04
322.763	45.57
322.977	29.18
323.19	29.18
323.403	131.58
323.617	-9.73
323.83	88.57
324.043	-34.3
324.256	33.28
324.469	12.8
324.683	86.53
324.896	94.72
325.109	84.48
325.322	18.94
325.535	135.68
325.748	90.62
325.962	90.62
326.175	55.81
326.388	86.53
326.601	137.73
326.814	92.67
327.027	90.62
327.24	133.63
327.453	-26.11
327.666	96.77
327.879	96.77
328.092	100.86
328.305	92.67
328.518	51.71
328.731	72.19
328.944	117.25
329.157	174.59
329.37	23.04
329.583	152.06
329.796	109.05
330.009	6.66
330.222	76.29
330.435	90.62
330.648	164.35
330.861	39.42
331.073	158.21
331.286	59.9
331.499	82.43
331.712	6.66
331.925	39.42
332.138	70.14
332.35	147.97
332.563	41.47
332.776	115.2
332.989	8.7
333.202	90.62
333.414	70.14
333.627	82.43
333.84	51.71
334.053	135.68
334.265	20.99
334.478	41.47
334.691	53.76
334.903	125.44
335.116	12.8
335.329	51.71
335.541	68.09
335.754	125.44
335.966	59.9
336.179	43.52
336.392	35.33
336.604	111.1
336.817	92.67
337.029	174.59
337.242	29.18
337.454	125.44
337.667	55.81
337.88	145.92
338.092	104.96
338.305	76.29
338.517	37.38
338.729	168.45
338.942	96.77
339.154	47.62
339.367	31.23
339.579	117.25
339.792	72.19
340.004	119.29
340.217	8.7
340.429	45.57
340.641	57.86
340.854	70.14
341.066	70.14
341.278	70.14
341.491	170.49
341.703	66.05
341.915	135.68
342.128	14.85
342.34	66.05
342.552	68.09
342.764	70.14
342.977	129.53
343.189	152.06
343.401	121.34
343.613	-3.58
343.826	76.29
344.038	12.8
344.25	115.2
344.462	57.86
344.674	33.28
344.886	39.42
345.099	59.9
345.311	84.48
345.523	78.33
345.735	-50.69
345.947	90.62
346.159	98.81
346.371	107.01
346.583	16.9
346.795	129.53
347.007	39.42
347.219	59.9
347.431	66.05
347.643	82.43
347.855	88.57
348.067	205.31
348.279	10.75
348.491	70.14
348.703	31.23
348.915	92.67
349.127	109.05
349.339	72.19
349.551	39.42
349.763	80.38
349.975	82.43
350.187	82.43
350.399	92.67
350.61	23.04
350.822	14.85
351.034	27.14
351.246	90.62
351.458	80.38
351.669	115.2
351.881	147.97
352.093	72.19
352.305	195.07
352.517	37.38
352.728	84.48
352.94	8.7
353.152	39.42
353.363	47.62
353.575	119.29
353.787	141.82
353.999	133.63
354.21	107.01
354.422	68.09
354.633	86.53
354.845	68.09
355.057	41.47
355.268	80.38
355.48	129.53
355.692	23.04
355.903	57.86
356.115	80.38
356.326	41.47
356.538	82.43
356.749	135.68
356.961	143.87
357.172	96.77
357.384	51.71
357.595	174.59
357.807	18.94
358.018	-22.02
358.23	41.47
358.441	152.06
358.653	41.47
358.864	80.38
359.075	53.76
359.287	45.57
359.498	82.43
359.709	104.96
359.921	-36.35
360.132	98.81
360.344	41.47
360.555	53.76
360.766	39.42
360.977	55.81
361.189	70.14
361.4	86.53
361.611	45.57
361.823	55.81
362.034	102.91
362.245	2.56
362.456	49.66
362.667	16.9
362.879	57.86
363.09	82.43
363.301	94.72
363.512	115.2
363.723	-1.54
363.935	55.81
364.146	158.21
364.357	10.75
364.568	86.53
364.779	29.18
364.99	61.95
365.201	4.61
365.412	74.24
365.623	-3.58
365.834	94.72
366.045	47.62
366.256	102.91
366.467	78.33
366.678	117.25
366.889	64
367.1	66.05
367.311	109.05
367.522	59.9
367.733	102.91
367.944	96.77
368.155	141.82
368.366	80.38
368.577	98.81
368.788	127.49
368.999	66.05
369.209	86.53
369.42	121.34
369.631	139.77
369.842	64
370.053	-7.68
370.264	133.63
370.474	94.72
370.685	70.14
370.896	-32.26
371.107	133.63
371.317	145.92
371.528	57.86
371.739	190.97
371.95	119.29
372.16	74.24
372.371	-13.82
372.582	57.86
372.792	139.77
373.003	123.39
373.214	80.38
373.424	90.62
373.635	4.61
373.846	182.78
374.056	23.04
374.267	61.95
374.477	102.91
374.688	72.19
374.898	66.05
375.109	115.2
375.319	92.67
375.53	113.15
375.74	68.09
375.951	88.57
376.161	170.49
376.372	86.53
376.582	45.57
376.793	147.97
377.003	55.81
377.214	-7.68
377.424	90.62
377.635	147.97
377.845	82.43
378.055	197.12
378.266	61.95
378.476	-9.73
378.686	178.69
378.897	100.86
379.107	109.05
379.317	121.34
379.528	35.33
379.738	164.35
379.948	-26.11
380.158	123.39
380.369	109.05
380.579	96.77
380.789	119.29
380.999	135.68
381.21	141.82
381.42	115.2
381.63	121.34
381.84	125.44
382.05	88.57
382.261	64
382.471	100.86
382.681	76.29
382.891	111.1
383.101	131.58
383.311	-1.54
383.521	45.57
383.731	23.04
383.941	174.59
384.151	139.77
384.361	53.76
384.571	64
384.781	80.38
384.991	180.73
385.201	154.11
385.411	86.53
385.621	57.86
385.831	-9.73
386.041	47.62
386.251	131.58
386.461	133.63
386.671	59.9
386.881	92.67
387.091	80.38
387.301	172.54
387.511	123.39
387.72	125.44
387.93	80.38
388.14	78.33
388.35	80.38
388.56	49.66
388.769	68.09
388.979	104.96
389.189	55.81
389.399	133.63
389.609	100.86
389.818	137.73
390.028	100.86
390.238	117.25
390.447	66.05
390.657	115.2
390.867	150.01
391.076	64
391.286	78.33
391.496	92.67
391.705	96.77
391.915	184.83
392.125	49.66
392.334	109.05
392.544	156.16
392.753	90.62
392.963	90.62
393.172	84.48
393.382	90.62
393.591	174.59
393.801	16.9
394.01	147.97
394.22	96.77
394.429	125.44
394.639	68.09
394.848	180.73
395.058	66.05
395.267	117.25
395.477	115.2
395.686	82.43
395.895	176.64
396.105	186.88
396.314	143.87
396.524	127.49
396.733	107.01
396.942	135.68
397.152	115.2
397.361	174.59
397.57	109.05
397.78	162.3
397.989	162.3
398.198	160.25
398.407	137.73
398.617	64
398.826	160.25
399.035	139.77
399.244	229.88
399.453	92.67
399.663	197.12
399.872	129.53
400.081	47.62
400.29	223.74
400.499	96.77
400.708	156.16
400.917	84.48
401.127	49.66
401.336	98.81
401.545	190.97
401.754	211.45
401.963	188.93
402.172	160.25
402.381	68.09
402.59	98.81
402.799	178.69
403.008	123.39
403.217	160.25
403.426	160.25
403.635	90.62
403.844	109.05
404.053	152.06
404.262	121.34
404.471	371.19
404.68	182.78
404.888	158.21
405.097	221.69
405.306	188.93
405.515	233.98
405.724	133.63
405.933	283.13
406.142	258.56
406.35	229.88
406.559	209.4
406.768	190.97
406.977	248.32
407.185	260.6
407.394	320
407.603	178.69
407.812	266.75
408.02	256.51
408.229	266.75
408.438	307.71
408.646	174.59
408.855	276.99
409.064	305.66
409.272	262.65
409.481	344.57
409.69	295.42
409.898	250.36
410.107	344.57
410.315	383.48
410.524	324.09
410.733	397.82
410.941	369.15
411.15	375.29
411.358	401.91
411.567	543.22
411.775	485.88
411.984	401.91
412.192	522.74
412.401	492.02
412.609	516.6
412.818	594.42
413.026	510.46
413.234	524.79
413.443	549.37
413.651	524.79
413.86	592.37
414.068	606.71
414.276	629.24
414.485	627.19
414.693	707.06
414.901	829.94
415.11	766.45
415.318	662.01
415.526	823.8
415.734	791.03
415.943	840.18
416.151	909.81
416.359	870.9
416.567	909.81
416.776	901.62
416.984	1053.17
417.192	1098.22
417.4	1042.93
417.608	950.77
417.817	1133.04
418.025	1151.47
418.233	1251.82
418.441	1161.71
418.649	1171.95
418.857	1249.77
419.065	1309.16
419.273	1247.72
419.481	1300.97
419.689	1528.3
419.897	1475.05
420.105	1563.11
420.313	1561.06
420.521	1622.5
420.729	1667.56
420.937	1757.67
421.145	1741.29
421.353	1980.9
421.561	1995.23
421.769	2007.52
421.977	1966.56
422.185	2050.53
422.393	2167.26
422.601	2396.64
422.809	2367.96
423.017	2431.45
423.224	2347.48
423.432	2507.23
423.64	2542.04
423.848	2771.41
424.056	2687.45
424.263	2996.69
424.471	2734.55
424.679	2984.4
424.887	3107.28
425.094	3219.92
425.302	3148.24
425.51	3367.37
425.718	3424.72
425.925	3463.63
426.133	3594.7
426.341	3844.55
426.548	3865.03
426.756	4035.01
426.964	4049.35
427.171	4260.29
427.379	4491.71
427.586	4538.81
427.794	4532.67
428.001	4690.36
428.209	4897.21
428.417	4970.93
428.624	5251.5
428.832	5317.04
429.039	5190.06
429.247	5247.41
429.454	5714.34
429.662	6187.43
429.869	5695.91
430.076	6261.15
430.284	5845.41
430.491	6152.61
430.699	6654.36
430.906	6603.16
431.114	6697.37
431.321	6994.33
431.528	6932.89
431.736	7496.08
431.943	7868.81
432.15	7522.7
432.358	7713.16
432.565	8268.16
432.772	7938.44
432.979	8419.71
433.187	8522.11
433.394	8628.6
433.601	9091.45
433.808	9349.49
434.016	9281.91
434.223	9593.2
434.43	10406.24
434.637	10066.28
434.844	10742.11
435.052	10858.84
435.259	10914.14
435.466	10946.9
435.673	10824.03
435.88	11737.42
436.087	12261.7
436.294	12251.46
436.501	11860.3
436.708	12001.61
436.915	12388.67
437.122	12910.91
437.329	12781.88
437.537	13455.67
437.743	13672.75
437.95	13691.18
438.157	14453.03
438.364	14637.34
438.571	14580
438.778	15001.88
438.985	16429.32
439.192	15593.75
439.399	16249.1
439.606	15536.4
439.813	16627.97
440.02	17746.16
440.227	17486.07
440.433	17111.29
440.64	17606.9
440.847	17676.53
441.054	18170.09
441.261	19433.69
441.467	19046.62
441.674	19472.6
441.881	19937.49
442.088	19919.06
442.294	19914.96
442.501	20381.9
442.708	20793.54
442.914	21743.8
443.121	22399.15
443.328	22223.02
443.534	23466.14
443.741	22943.91
443.948	22235.31
444.154	24338.57
444.361	24133.78
444.568	24309.9
444.774	24291.47
444.981	24346.76
445.187	25274.49
445.394	26474.6
445.6	25938.04
445.807	28807.24
446.013	27426.91
446.22	27770.97
446.426	28864.58
446.633	29417.54
446.839	30335.03
447.046	29053
447.252	30631.98
447.459	30558.25
447.665	30390.32
447.871	32081.94
448.078	33359.87
448.284	31682.59
448.491	32673.81
448.697	34131.96
448.903	34553.84
449.11	34611.18
449.316	33792
449.522	34482.16
449.728	35497.95
449.935	36005.85
450.141	36034.52
450.347	37136.33
450.553	35600.35
450.76	36155.35
450.966	37466.05
451.172	36917.2
451.378	37621.7
451.584	37369.8
451.791	38242.23
451.997	38068.16
452.203	38483.89
452.409	38471.6
452.615	38182.84
452.821	36659.15
453.027	36503.51
453.233	38455.22
453.44	37013.45
453.646	37658.56
453.852	37490.63
454.058	38240.18
454.264	37066.7
454.47	37920.7
454.676	37390.28
454.882	38565.81
455.088	34871.28
455.294	35809.25
455.5	36153.3
455.705	36513.75
455.911	34910.19
456.117	34183.16
456.323	34207.73
456.529	32632.85
456.735	33306.63
456.941	32905.23
457.147	32382.99
457.352	31340.58
457.558	31105.06
457.764	31014.95
457.97	30523.44
458.176	29806.65
458.381	29634.62
458.587	28651.59
458.793	28436.56
458.999	26908.77
459.204	28633.16
459.41	28117.07
459.616	26273.9
459.821	26210.42
460.027	26169.46
460.233	25319.55
460.438	24305.81
460.644	24772.74
460.85	23357.6
461.055	23058.59
461.261	23183.52
461.466	21530.81
461.672	20797.63
461.878	22100.14
462.083	20590.79
462.289	20201.68
462.494	20234.44
462.7	19351.77
462.905	18839.78
463.111	19368.15
463.316	19200.22
463.522	19120.35
463.727	19099.87
463.932	18966.75
464.138	18870.5
464.343	19423.45
464.549	18213.1
464.754	18960.61
464.959	18737.38
465.165	18565.35
465.37	18092.27
465.575	17418.49
465.781	18170.09
465.986	18067.69
466.191	17740.02
466.397	17125.63
466.602	16468.23
466.807	17017.08
467.012	17133.82
467.218	16941.31
467.423	16828.67
467.628	16814.34
467.833	17484.02
468.038	16699.65
468.244	16361.73
468.449	17256.7
468.654	16507.14
468.859	16511.24
469.064	16281.86
469.269	15683.86
469.474	15841.55
469.679	16331.01
469.885	15898.89
470.09	15769.87
470.295	15862.03
470.5	15552.79
470.705	15632.66
470.91	15466.77
471.115	14952.73
471.32	15261.98
471.525	15196.44
471.73	15120.67
471.935	14711.07
472.139	14313.77
472.344	14512.42
472.549	14532.9
472.754	14260.52
472.959	13879.6
473.164	13672.75
473.369	13457.71
473.574	13930.8
473.778	14063.91
473.983	13719.85
474.188	13486.39
474.393	13228.34
474.598	13033.79
474.802	12853.56
475.007	12720.45
475.212	12847.42
475.417	12388.67
475.621	12499.27
475.826	12441.92
476.031	12220.74
476.235	12028.23
476.44	12091.72
476.645	11917.64
476.849	11903.31
477.054	11776.33
477.259	11587.92
477.463	11532.62
477.668	11387.22
477.872	11725.13
478.077	11374.93
478.282	10860.89
478.486	10864.99
478.691	10981.72
478.895	10934.62
479.1	10756.44
479.304	10715.48
479.509	10207.59
479.713	10873.18
479.918	10121.57
480.122	10348.9
480.326	10357.09
480.531	10455.39
480.735	10248.55
480.94	10262.88
481.144	10449.25
481.348	10178.92
481.553	10013.03
481.757	9922.92
481.961	10053.99
482.166	10119.53
482.37	9990.5
482.574	9867.63
482.778	9988.46
482.983	10113.38
483.187	10023.27
483.391	10299.75
483.595	9810.28
483.8	9935.21
484.004	10215.78
484.208	10006.89
484.412	10070.37
484.616	10029.41
484.821	10017.13
485.025	9869.67
485.229	9906.54
485.433	9546.09
485.637	9904.49
485.841	9931.11
486.045	9818.47
486.249	9884.01
486.453	9834.86
486.657	10201.44
486.861	10064.23
487.065	9628.01
487.269	9892.2
487.473	9630.06
487.677	9972.07
487.881	10240.36
488.085	9845.1
488.289	10053.99
488.493	10080.61
488.697	10013.03
488.901	10168.68
489.105	10015.08
489.309	10168.68
489.512	10221.92
489.716	10215.78
489.92	10262.88
490.124	10000.74
490.328	10332.51
490.531	10049.89
490.735	10097
490.939	10367.33
491.143	10367.33
491.346	10451.3
491.55	10443.1
491.754	10299.75
491.958	10361.19
492.161	10297.7
492.365	10506.59
492.569	10420.58
492.772	10570.08
492.976	10764.64
493.18	10707.29
493.383	10797.4
493.587	10969.43
493.79	11020.63
493.994	10934.62
494.197	11006.3
494.401	11176.28
494.605	11002.2
494.808	11012.44
495.012	11186.52
495.215	11276.63
495.419	11368.79
495.622	11327.83
495.825	11544.91
496.029	11573.58
496.232	11940.17
496.436	11872.59
496.639	12312.9
496.843	12142.92
497.046	12292.42
497.249	12474.69
497.453	12568.9
497.656	12683.58
497.859	12521.79
498.063	12818.75
498.266	13009.21
498.469	12796.22
498.673	13095.22
498.876	13238.58
499.079	13394.23
499.282	13441.33
499.485	13820.21
499.689	13648.18
499.892	14051.63
500.095	13984.04
500.298	14113.06
500.501	13988.14
500.705	14745.89
500.908	14729.5
501.111	14797.09
501.314	14827.81
501.517	15081.75
501.72	15257.88
501.923	15393.05
502.126	15833.36
502.329	15958.28
502.532	15991.05
502.735	16062.73
502.938	16347.4
503.141	16486.66
503.344	16709.89
503.547	16742.66
503.75	17193.21
503.953	17309.94
504.156	17367.29
504.359	17666.29
504.562	17465.59
504.765	17844.46
504.968	18067.69
505.17	18213.1
505.373	18352.36
505.576	18733.28
505.779	18952.41
505.982	18962.65
506.185	19470.55
506.387	19275.99
506.59	19552.47
506.793	20062.41
506.996	19927.25
507.198	20558.02
507.401	20291.79
507.604	20492.49
507.807	20742.34
508.009	21332.15
508.212	21117.12
508.415	21495.99
508.617	21645.49
508.82	21784.76
509.022	21717.17
509.225	22132.91
509.428	22413.48
509.63	22522.02
509.833	22642.85
510.035	22866.08
510.238	23238.81
510.44	23382.17
510.643	23855.25
510.845	24035.47
511.048	23851.16
511.25	24062.1
511.453	24352.91
511.655	25038.98
511.858	24555.66
512.06	24930.44
512.262	25249.92
512.465	25256.06
512.667	25778.29
512.87	26067.06
513.072	25999.48
513.274	26476.65
513.477	26593.39
513.679	26833
513.881	27105.38
514.084	27549.79
514.286	27250.78
514.488	27633.75
514.69	28237.91
514.893	28287.06
515.095	28645.45
515.297	28794.95
515.499	28753.99
515.701	29188.16
515.904	29397.06
516.106	29591.61
516.308	29911.1
516.51	29913.14
516.712	30033.97
516.914	30267.44
517.116	30654.51
517.318	31127.59
517.52	30937.13
517.722	30904.36
517.925	31868.95
518.127	32083.99
518.329	32024.6
518.531	31834.14
518.733	32731.15
518.935	32557.07
519.136	32806.92
519.338	33253.38
519.54	33159.17
519.742	33359.87
519.944	33546.24
520.146	34187.25
520.348	34228.21
520.55	34277.36
520.752	34277.36
520.954	35082.22
521.155	34586.61
521.357	35493.86
521.559	35379.17
521.761	35764.19
521.963	35743.71
522.164	35979.23
522.366	35895.26
522.568	36317.14
522.77	36411.35
522.971	37216.2
523.173	36837.33
523.375	36732.88
523.576	37136.33
523.778	37371.85
523.98	37486.53
524.181	37545.92
524.383	37687.23
524.584	37791.68
524.786	38309.82
524.988	37887.93
525.189	38244.28
525.391	38780.85
525.592	38426.55
525.794	38961.07
525.995	38582.2
526.197	38737.84
526.398	38690.74
526.6	39002.03
526.801	39487.4
527.003	39141.29
527.204	39323.56
527.406	40040.35
527.607	39792.54
527.808	39720.87
528.01	39245.74
528.211	39833.5
528.412	40167.32
528.614	40261.53
528.815	40122.27
529.016	40806.29
529.218	40169.37
529.419	40013.73
529.62	40468.37
529.822	40365.98
530.023	40175.51
530.224	40337.3
530.425	40408.98
530.626	40159.13
530.828	40087.45
531.029	40992.65
531.23	40341.4
531.431	40628.12
531.632	40853.39
531.833	40742.8
532.035	41037.71
532.236	40619.92
532.437	41082.77
532.638	40245.15
532.839	40849.3
533.04	41150.35
533.241	40443.8
533.442	41426.82
533.643	40882.06
533.844	40673.17
534.045	41160.59
534.246	40619.92
534.447	41291.66
534.648	40828.82
534.849	41174.92
535.05	40771.47
535.251	40951.7
535.451	40834.96
535.652	41023.37
535.853	40660.88
536.054	40753.04
536.255	40959.89
536.456	40638.36
536.657	41308.04
536.857	40820.63
537.058	40521.62
537.259	41439.11
537.46	40970.13
537.66	40892.3
537.861	41166.73
538.062	40902.54
538.263	41193.36
538.463	41086.86
538.664	41287.56
538.865	41324.43
539.065	41037.71
539.266	40757.14
539.466	41291.66
539.667	40484.76
539.868	41295.75
540.068	40791.95
540.269	40937.36
540.469	41136.01
540.67	40724.37
540.87	41138.06
541.071	40898.45
541.271	41037.71
541.472	40920.98
541.672	40794
541.873	40628.12
542.073	40349.59
542.274	41377.67
542.474	40929.17
542.675	40746.9
542.875	41412.49
543.075	40845.2
543.276	40585.11
543.476	41021.33
543.676	41066.38
543.877	41115.53
544.077	40998.8
544.277	40798.1
544.478	40697.75
544.678	41060.24
544.878	40687.51
545.078	40988.56
545.279	40628.12
545.479	40697.75
545.679	40882.06
545.879	40732.56
546.079	41146.25
546.28	40742.8
546.48	40589.2
546.68	41162.64
546.88	40982.41
547.08	40578.96
547.28	40775.57
547.48	40609.68
547.68	40656.79
547.88	40538.01
548.081	41256.84
548.281	40660.88
548.481	40576.92
548.681	40783.76
548.881	40634.26
549.081	40716.18
549.28	40808.34
549.48	40955.79
549.68	40798.1
549.88	41406.34
550.08	40535.96
550.28	40619.92
550.48	40587.16
550.68	41189.26
550.88	40802.19
551.08	40890.26
551.279	41195.4
551.479	40726.42
551.679	40732.56
551.879	40378.26
552.079	40861.58
552.278	40632.21
552.478	40959.89
552.678	40802.19
552.878	41179.02
553.077	40796.05
553.277	40290.2
553.477	41224.07
553.676	40656.79
553.876	40757.14
554.076	40787.86
554.275	40597.4
554.475	40173.47
554.674	40671.12
554.874	40927.12
555.074	40826.77
555.273	40865.68
555.473	40542.1
555.672	40980.37
555.872	40562.58
556.071	40671.12
556.271	40882.06
556.47	40808.34
556.67	40439.7
556.869	40591.25
557.068	40888.21
557.268	40705.94
557.467	40578.96
557.667	40384.41
557.866	40798.1
558.065	40273.82
558.265	40550.29
558.464	40282.01
558.663	40828.82
558.863	40249.24
559.062	41133.96
559.261	40458.13
559.461	40509.33
559.66	40439.7
559.859	40644.5
560.058	40155.04
560.258	40470.42
560.457	40050.59
560.656	40599.44
560.855	39966.62
561.054	40329.11
561.253	39962.53
561.453	40716.18
561.652	40707.99
561.851	40693.65
562.05	40132.51
562.249	40099.74
562.448	40329.11
562.647	40310.68
562.846	40175.51
563.045	40683.41
563.244	39716.77
563.443	40613.78
563.642	39853.98
563.841	40171.42
564.04	40054.68
564.239	40525.72
564.438	40069.02
564.637	40478.61
564.836	40214.43
565.035	39913.37
565.234	40116.12
565.432	39772.07
565.631	39839.65
565.83	40034.21
566.029	39575.46
566.228	39868.32
566.427	39684
566.625	39645.09
566.824	39542.69
567.023	39829.41
567.222	39241.64
567.42	40048.54
567.619	39923.61
567.818	39767.97
568.016	39942.05
568.215	39976.86
568.414	39643.04
568.612	39995.29
568.811	39585.7
569.01	39544.74
569.208	39235.5
569.407	39946.14
569.605	39090.09
569.804	39733.15
570.002	39483.3
570.201	39231.4
570.4	39407.53
570.598	39485.35
570.797	39286.7
570.995	39550.88
571.193	38547.38
571.392	39253.93
571.59	39210.92
571.789	39255.98
571.987	39503.78
572.186	39176.11
572.384	39083.95
572.582	39079.85
572.781	39047.08
572.979	38344.63
573.177	39038.89
573.376	39339.94
573.574	38627.25
573.772	38870.96
573.971	38666.16
574.169	38498.23
574.367	38617.01
574.565	38715.31
574.763	38719.41
574.962	38545.33
575.16	38166.46
575.358	38721.46
575.556	38381.49
575.754	38662.07
575.952	37941.18
576.151	38608.82
576.349	37992.38
576.547	38098.87
576.745	38240.18
576.943	38246.33
577.141	37935.04
577.339	38416.31
577.537	37896.13
577.735	37584.83
577.933	37658.56
578.131	37912.51
578.329	38006.72
578.527	37834.69
578.725	37478.34
578.923	38188.99
579.121	37593.03
579.319	37464
579.516	37455.81
579.714	37670.85
579.912	37273.54
580.11	37566.4
580.308	37316.55
580.506	37337.03
580.704	36906.96
580.901	37056.46
581.099	37316.55
581.297	36687.82
581.495	37052.36
581.692	36939.72
581.89	36706.26
582.088	36911.05
582.285	36859.85
582.483	37097.42
582.681	36913.1
582.878	36978.64
583.076	36186.07
583.274	36679.63
583.471	36444.12
583.669	36536.27
583.866	36179.93
584.064	36523.99
584.262	35747.81
584.459	36313.05
584.657	36171.74
584.854	36620.24
585.052	35831.77
585.249	36069.34
585.447	36132.82
585.644	35770.33
585.841	36081.63
586.039	36005.85
586.236	35338.21
586.434	35659.74
586.631	35418.08
586.828	35313.64
587.026	35438.56
587.223	35401.7
587.42	35094.5
587.618	35454.95
587.815	35190.76
588.012	35031.02
588.21	34783.21
588.407	35342.31
588.604	35149.8
588.801	35065.83
588.999	35049.45
589.196	35172.33
589.393	34930.67
589.59	34580.46
589.787	34449.39
589.984	34502.64
590.182	34377.72
590.379	34357.24
590.576	34506.74
590.773	34602.99
590.97	34371.57
591.167	34451.44
591.364	34248.69
591.561	33916.92
591.758	34193.4
591.955	34070.52
592.152	34117.62
592.349	33689.6
592.546	33775.61
592.743	34047.99
592.94	33607.68
593.137	33841.15
593.334	33955.83
593.531	33310.72
593.727	33695.74
593.924	33118.21
594.121	33603.58
594.318	33542.14
594.515	33142.79
594.712	33599.49
594.908	33136.65
595.105	33173.51
595.302	33062.92
595.499	33116.17
595.696	33146.89
595.892	33034.25
596.089	33239.04
596.286	33028.1
596.482	32780.3
596.679	32890.89
596.876	32802.83
597.072	32684.05
597.269	32563.22
597.466	32286.74
597.662	32221.2
597.859	32284.69
598.055	32301.08
598.252	32077.85
598.448	32319.51
598.645	32022.55
598.841	32264.21
599.038	32366.61
599.234	32227.35
599.431	31844.38
599.627	31856.67
599.824	32112.66
600.02	31840.28
600.217	31997.98
600.413	31760.41
600.609	31983.64
600.806	31727.64
601.002	31891.48
601.198	31766.56
601.395	31352.87
601.591	31436.83
601.787	31340.58
601.984	31449.12
602.18	31297.57
602.376	31512.61
602.572	31305.76
602.769	31336.48
602.965	31088.68
603.161	31340.58
603.357	30707.76
603.553	30814.25
603.75	30980.14
603.946	30763.05
604.142	31096.87
604.338	30464.05
604.534	30771.24
604.73	30666.8
604.926	30468.14
605.122	30969.9
605.318	30629.93
605.514	30257.2
605.71	30548.01
605.906	30638.12
606.102	30529.58
606.298	30660.65
606.494	30560.3
606.69	30357.55
606.886	30386.22
607.082	30173.24
607.278	30249.01
607.474	29837.37
607.67	29956.15
607.866	29829.18
608.062	30378.03
608.257	29962.29
608.453	30025.78
608.649	30199.86
608.845	29599.8
609.041	29933.62
609.236	29882.42
609.432	29765.69
609.628	30042.17
609.824	29827.13
610.019	29614.14
610.215	29562.94
610.411	29608
610.606	29663.29
610.802	29763.64
610.998	29597.76
611.193	29843.51
611.389	29562.94
611.584	29362.24
611.78	29534.27
611.976	29427.77
612.171	29511.74
612.367	29380.67
612.562	29499.45
612.758	29220.93
612.953	29001.8
613.149	29659.2
613.344	29030.47
613.539	29554.75
613.735	29216.83
613.93	29433.92
614.126	29089.86
614.321	29505.6
614.517	29392.96
614.712	28790.86
614.907	29245.51
615.103	29360.19
615.298	28956.74
615.493	29159.49
615.688	28684.36
615.884	29628.48
616.079	28811.34
616.274	28919.88
616.47	28862.54
616.665	28897.35
616.86	28502.09
617.055	28655.69
617.25	28672.07
617.445	28643.4
617.641	28190.8
617.836	28510.28
618.031	28014.68
618.226	28749.9
618.421	28194.9
618.616	28627.02
618.811	27992.15
619.006	28174.42
619.201	27705.43
619.396	27949.14
619.591	27437.15
619.786	28012.63
619.981	27226.21
620.176	27760.73
620.371	26970.21
620.566	27414.62
620.761	27383.9
620.956	27746.39
621.151	26892.39
621.346	27021.41
621.541	27021.41
621.735	27041.89
621.93	26603.63
622.125	26437.74
622.32	26394.73
622.515	26009.72
622.709	26177.65
622.904	26374.25
623.099	26003.57
623.294	26056.82
623.488	25739.38
623.683	25761.91
623.878	25374.84
624.072	25294.97
624.267	25313.41
624.462	25274.49
624.656	24793.22
624.851	25020.55
625.046	24842.37
625.24	24905.86
625.435	24559.75
625.629	24463.5
625.824	24213.65
626.018	24289.42
626.213	23916.69
626.407	24176.78
626.602	23662.74
626.796	23869.59
626.991	23867.54
627.185	23568.54
627.38	23324.83
627.574	23515.29
627.768	23169.18
627.963	22941.86
628.157	22900.9
628.352	23093.41
628.546	22855.84
628.74	22888.61
628.935	22534.31
629.129	22620.33
629.323	22337.71
629.517	22206.64
629.712	22306.99
629.906	22225.07
630.1	21893.3
630.294	21956.78
630.489	21663.93
630.683	21827.76
630.877	21207.23
631.071	21395.64
631.265	21389.5
631.459	21385.4
631.653	20938.94
631.848	21090.49
632.042	20721.86
632.236	20879.55
632.43	20783.3
632.624	20660.42
632.818	20289.74
633.012	20414.66
633.206	20445.38
633.4	20576.45
633.594	20353.23
633.788	20062.41
633.982	20168.91
634.176	19970.26
634.369	19806.42
634.563	19542.23
634.757	19960.02
634.951	19620.05
635.145	19652.82
635.339	19726.55
635.533	19228.89
635.726	19020
635.92	18899.17
636.114	18956.51
636.308	19017.95
636.501	18825.44
636.695	18708.71
636.889	18372.84
637.083	18231.53
637.276	18421.99
637.47	18417.89
637.664	18247.91
637.857	17993.97
638.051	18110.7
638.244	17850.61
638.438	17754.35
638.632	17551.6
638.825	17588.47
639.019	17600.76
639.212	17508.6
639.406	17549.56
639.599	17379.57
639.793	17086.72
639.986	17193.21
640.18	17180.92
640.373	16806.14
640.567	16840.96
640.76	16795.9
640.954	16423.17
641.147	16150.79
641.34	16245
641.534	16328.97
641.727	16259.34
641.92	16150.79
642.114	15909.13
642.307	15616.27
642.5	15722.77
642.694	15401.24
642.887	15517.97
643.08	15730.96
643.273	15509.78
643.467	15446.29
643.66	15274.26
643.853	15075.61
644.046	15024.41
644.239	15075.61
644.432	14639.39
644.626	14676.26
644.819	14524.71
645.012	14711.07
645.205	14448.93
645.398	14680.35
645.591	14426.4
645.784	14321.96
645.977	14143.78
646.17	14178.6
646.363	13828.4
646.556	13652.27
646.749	13762.86
646.942	13822.25
647.135	13572.4
647.328	13257.01
647.521	13467.95
647.714	13400.37
647.907	13244.73
648.099	13052.22
648.292	13146.42
648.485	13064.5
648.678	12804.41
648.871	13007.16
649.064	12675.39
649.256	12841.28
649.449	12624.19
649.642	12642.62
649.835	12497.22
650.027	12550.46
650.22	12456.26
650.413	12091.72
650.605	12185.93
650.798	12233.03
650.991	12126.53
651.183	12011.85
651.376	11915.59
651.568	11991.37
651.761	11780.43
651.954	11772.24
652.146	11626.83
652.339	11731.28
652.531	11702.61
652.724	11374.93
652.916	11276.63
653.109	11254.1
653.301	11295.06
653.494	11358.55
653.686	11102.55
653.879	11116.89
654.071	11002.2
654.263	10795.36
654.456	10948.95
654.648	10891.61
654.84	10512.74
655.033	10727.77
655.225	10617.18
655.417	10387.81
655.61	10727.77
655.802	10592.61
655.994	10549.6
656.186	10447.2
656.379	10387.81
656.571	10133.86
656.763	10107.24
656.955	10062.18
657.148	10027.37
657.34	10090.85
657.532	9857.39
657.724	9834.86
657.916	9853.29
658.108	9869.67
658.3	9617.77
658.492	9591.15
658.684	9441.65
658.876	9355.63
659.068	9390.45
659.26	9509.23
659.452	9490.8
659.644	9482.61
659.836	9062.77
660.028	9247.09
660.22	9040.25
660.412	9073.01
660.604	8935.8
660.796	8917.37
660.988	8864.12
661.18	8872.31
661.372	8774.01
661.563	8675.71
661.755	8561.02
661.947	8669.56
662.139	8634.75
662.331	8454.53
662.522	8274.31
662.714	8348.03
662.906	8321.41
663.097	8388.99
663.289	8128.9
663.481	7877
663.673	8071.56
663.864	8116.61
664.056	7872.9
664.247	8061.32
664.439	8018.31
664.631	7897.48
664.822	7772.55
665.014	7737.74
665.205	7756.17
665.397	7664.01
665.588	7545.23
665.78	7573.9
665.971	7592.33
666.163	7829.9
666.354	7588.24
666.546	7268.75
666.737	7524.75
666.929	7348.62
667.12	7606.67
667.311	7299.47
667.503	7367.06
667.694	7317.9
667.885	7309.71
668.077	7297.42
668.268	7098.77
668.459	7242.13
668.651	7100.82
668.842	7121.3
669.033	7133.59
669.224	6785.43
669.416	7137.68
669.607	7008.66
669.798	6752.66
669.989	6924.69
670.18	6668.7
670.371	6949.27
670.563	6678.94
670.754	6736.28
670.945	6781.34
671.136	6930.84
671.327	6687.13
671.518	6576.54
671.709	6629.79
671.9	6502.81
672.091	6566.3
672.282	6390.17
672.473	6592.92
672.664	6488.48
672.855	6375.84
673.046	6472.09
673.237	6453.66
673.428	6455.71
673.619	6461.85
673.809	6386.08
674	6326.69
674.191	6390.17
674.382	6273.44
674.573	6363.55
674.764	6242.72
674.954	6338.98
675.145	6017.44
675.336	6181.28
675.527	6142.37
675.717	6173.09
675.908	5976.48
676.099	5945.77
676.289	6072.74
676.48	6070.69
676.671	6007.2
676.861	6132.13
677.052	5964.2
677.243	5892.52
677.433	5923.24
677.624	5996.96
677.814	5921.19
678.005	6080.93
678.195	5943.72
678.386	5818.79
678.576	5884.33
678.767	5855.65
678.957	5814.7
679.148	5781.93
679.338	5919.14
679.529	5798.31
679.719	5790.12
679.909	5818.79
680.1	5810.6
680.29	5886.37
680.481	5826.98
680.671	5958.05
680.861	5822.89
681.052	5757.35
681.242	5761.45
681.432	5755.3
681.622	5534.12
681.813	5659.05
682.003	5710.25
682.193	5646.76
682.383	5613.99
682.573	5540.27
682.764	5626.28
682.954	5779.88
683.144	5706.15
683.334	5630.38
683.524	5554.6
683.714	5722.54
683.904	5560.75
684.094	5570.99
684.284	5423.53
684.474	5466.54
684.664	5513.64
684.854	5554.6
685.044	5595.56
685.234	5611.95
685.424	5456.3
685.614	5417.39
685.804	5499.31
685.994	5349.81
686.184	5353.9
686.374	5358
686.564	5290.42
686.753	5405.1
686.943	5480.88
687.133	5317.04
687.323	5413.29
687.513	5476.78
687.702	5317.04
687.892	5464.49
688.082	5331.37
688.272	5413.29
688.461	5114.29
688.651	5364.14
688.841	5175.73
689.03	5314.99
689.22	5249.46
689.41	5312.94
689.599	5216.69
689.789	5159.35
689.979	5314.99
690.168	5259.7
690.358	5343.66
690.547	5065.14
690.737	5218.74
690.926	5237.17
691.116	5147.06
691.305	5239.22
691.495	5204.4
691.684	5065.14
691.874	5228.98
692.063	5165.49
692.252	5114.29
692.442	5243.31
692.631	5175.73
692.82	5228.98
693.01	5147.06
693.199	5206.45
693.388	5130.67
693.578	5278.13
693.767	5091.76
693.956	5218.74
694.146	5165.49
694.335	5108.15
694.524	5069.23
694.713	5136.82
694.902	5126.58
695.092	5245.36
695.281	5382.57
695.47	5161.39
695.659	5130.67
695.848	5116.34
696.037	5259.7
696.226	5257.65
696.415	5333.42
696.604	5263.79
696.793	5302.7
696.982	5245.36
697.171	5263.79
697.36	5372.33
697.549	5231.02
697.738	5204.4
697.927	5337.52
698.116	5366.19
698.305	5120.43
698.494	5261.74
698.683	5454.25
698.872	5429.68
699.061	5345.71
699.25	5325.23
699.438	5358
699.627	5417.39
699.816	5464.49
700.005	5282.22
700.193	5374.38
700.382	5513.64
700.571	5282.22
700.76	5491.12
700.948	5542.32
701.137	5409.2
701.326	5423.53
701.514	5405.1
701.703	5382.57
701.892	5466.54
702.08	5433.77
702.269	5470.64
702.457	5329.33
702.646	5372.33
702.834	5368.24
703.023	5446.06
703.212	5433.77
703.4	5505.45
703.589	5310.89
703.777	5341.61
703.965	5417.39
704.154	5480.88
704.342	5388.72
704.531	5384.62
704.719	5421.49
704.907	5519.79
705.096	5452.2
705.284	5366.19
705.472	5495.21
705.661	5775.78
705.849	5401.01
706.037	5517.74
706.226	5579.18
706.414	5276.08
706.602	5343.66
706.79	5501.36
706.979	5368.24
707.167	5382.57
707.355	5413.29
707.543	5472.68
707.731	5382.57
707.919	5401.01
708.107	5380.53
708.296	5286.32
708.484	5192.11
708.672	5226.93
708.86	5427.63
709.048	5294.51
709.236	5257.65
709.424	5423.53
709.612	5339.57
709.8	5345.71
709.988	5257.65
710.176	5241.26
710.364	5347.76
710.551	5267.89
710.739	5341.61
710.927	5233.07
711.115	5276.08
711.303	5190.06
711.491	5210.54
711.679	5214.64
711.866	5360.05
712.054	5261.74
712.242	5286.32
712.43	5321.13
712.617	5300.66
712.805	5222.83
712.993	5120.43
713.181	5159.35
713.368	5087.67
713.556	5122.48
713.744	5095.86
713.931	5265.84
714.119	5175.73
714.306	5149.11
714.494	5185.97
714.682	5061.04
714.869	4905.4
715.057	5112.24
715.244	5013.94
715.432	5284.27
715.619	4983.22
715.807	5046.71
715.994	5102
716.182	5073.33
716.369	5085.62
716.556	5122.48
716.744	4827.57
716.931	5044.66
717.119	5155.25
717.306	4886.97
717.493	5132.72
717.681	4929.97
717.868	4891.06
718.055	5145.01
718.242	5020.08
718.43	5095.86
718.617	4800.95
718.804	4882.87
718.991	4948.4
719.179	4934.07
719.366	4839.86
719.553	4839.86
719.74	4870.58
719.927	4956.6
720.114	4768.18
720.301	4848.05
720.488	4796.85
720.676	4678.07
720.863	4833.72
721.05	4874.68
721.237	4731.32
721.424	4889.01
721.611	4645.31
721.798	4688.31
721.985	4813.24
722.172	4651.45
722.358	4796.85
722.545	4829.62
722.732	4624.83
722.919	4633.02
723.106	4807.09
723.293	4551.1
723.48	4565.43
723.667	4673.98
723.853	4618.68
724.04	4680.12
724.227	4759.99
724.414	4508.09
724.6	4608.44
724.787	4604.35
724.974	4551.1
725.161	4649.4
725.347	4596.15
725.534	4547
725.72	4590.01
725.907	4567.48
726.094	4426.17
726.28	4581.82
726.467	4276.67
726.653	4510.14
726.84	4501.95
727.027	4614.59
727.213	4334.01
727.4	4383.17
727.586	4405.69
727.773	4430.27
727.959	4565.43
728.145	4473.28
728.332	4360.64
728.518	4348.35
728.705	4438.46
728.891	4465.08
729.077	4377.02
729.264	4350.4
729.45	4297.15
729.636	4444.6
729.823	4188.61
730.009	4383.17
730.195	4387.26
730.382	4147.65
730.568	4348.35
730.754	4182.46
730.94	4229.57
731.126	4147.65
731.313	4215.23
731.499	4225.47
731.685	4145.6
731.871	4166.08
732.057	4196.8
732.243	4243.9
732.429	4182.46
732.615	4131.26
732.801	4133.31
732.987	4010.43
733.173	3967.43
733.359	4061.63
733.545	4030.91
733.731	4051.39
733.917	4204.99
734.103	4008.39
734.289	4016.58
734.475	3957.19
734.661	4229.57
734.847	3953.09
735.033	4000.19
735.219	4080.07
735.404	3926.47
735.59	4004.29
735.776	3905.99
735.962	3908.04
736.148	4028.87
736.333	3930.56
736.519	3760.58
736.705	3848.65
736.89	3787.21
737.076	3836.36
737.262	3797.45
737.447	3803.59
737.633	3822.02
737.819	3897.8
738.004	3733.96
738.19	3762.63
738.375	3645.9
738.561	3875.27
738.747	3731.91
738.932	3545.55
739.118	3811.78
739.303	3795.4
739.489	3680.71
739.674	3574.22
739.859	3529.16
740.045	3617.22
740.23	3582.41
740.416	3430.86
740.601	3619.27
740.786	3465.68
740.972	3426.76
741.157	3353.04
741.342	3396.04
741.528	3459.53
741.713	3492.3
741.898	3525.07
742.084	3492.3
742.269	3365.32
742.454	3469.77
742.639	3510.73
742.824	3363.28
743.01	3404.24
743.195	3422.67
743.38	3416.52
743.565	3228.11
743.75	3287.5
743.935	3320.27
744.12	3299.79
744.305	3168.72
744.49	3336.65
744.675	3162.58
744.86	3226.06
745.045	3162.58
745.23	3217.87
745.415	3289.55
745.6	3043.79
745.785	3129.81
745.97	3242.45
746.155	3146.19
746.34	3140.05
746.525	2965.97
746.71	3031.51
746.895	2963.92
747.079	2929.11
747.264	2855.38
747.449	2951.63
747.634	2982.35
747.819	3035.6
748.003	2898.39
748.188	2826.71
748.373	2937.3
748.557	2808.28
748.742	2861.52
748.927	2902.48
749.111	2824.66
749.296	2669.02
749.481	2740.69
749.665	2730.45
749.85	2679.26
750.034	2839
750.219	2638.3
750.404	2716.12
750.588	2630.1
750.773	2615.77
750.957	2765.27
751.141	2652.63
751.326	2777.56
751.51	2554.33
751.695	2484.7
751.879	2521.56
752.064	2628.06
752.248	2431.45
752.432	2406.88
752.617	2589.14
752.801	2478.55
752.985	2367.96
753.17	2417.12
753.354	2513.37
753.538	2462.17
753.722	2341.34
753.907	2234.85
754.091	2376.16
754.275	2324.96
754.459	2175.45
754.643	2337.24
754.828	2302.43
755.012	2226.65
755.196	2224.61
755.38	2222.56
755.564	2181.6
755.748	2183.65
755.932	2249.18
756.116	2109.92
756.3	2212.32
756.484	2111.97
756.668	2073.06
756.852	1978.85
757.036	2093.54
757.22	2073.06
757.404	2206.17
757.588	2073.06
757.772	2021.86
757.956	2007.52
758.14	2097.63
758.323	1901.03
758.507	2040.29
758.691	1882.6
758.875	1939.94
759.059	1937.89
759.242	2025.95
759.426	2009.57
759.61	1802.72
759.794	1808.87
759.977	1901.03
760.161	1944.03
760.345	1843.68
760.528	1804.77
760.712	1886.69
760.895	1837.54
761.079	1819.11
761.263	1798.63
761.446	1765.86
761.63	1788.39
761.813	1698.28
761.997	1722.85
762.18	1761.77
762.364	1763.81
762.547	1667.56
762.731	1720.81
762.914	1683.94
763.098	1622.5
763.281	1665.51
763.464	1776.1
763.648	1726.95
763.831	1673.7
764.015	1706.47
764.198	1698.28
764.381	1638.89
764.564	1606.12
764.748	1657.32
764.931	1673.7
765.114	1561.06
765.297	1630.7
765.481	1548.78
765.664	1612.26
765.847	1679.85
766.03	1661.41
766.213	1634.79
766.397	1561.06
766.58	1583.59
766.763	1528.3
766.946	1579.5
767.129	1569.26
767.312	1530.34
767.495	1671.65
767.678	1602.02
767.861	1507.82
768.044	1524.2
768.227	1571.3
768.41	1561.06
768.593	1493.48
768.776	1452.52
768.959	1505.77
769.142	1522.15
769.324	1516.01
769.507	1520.1
769.69	1522.15
769.873	1511.91
770.056	1579.5
770.239	1374.7
770.421	1495.53
770.604	1544.68
770.787	1409.51
770.97	1534.44
771.152	1376.75
771.335	1477.1
771.518	1321.45
771.7	1464.81
771.883	1413.61
772.066	1413.61
772.248	1477.1
772.431	1405.42
772.613	1468.91
772.796	1370.6
772.978	1350.12
773.161	1366.51
773.343	1346.03
773.526	1364.46
773.708	1337.84
773.891	1200.62
774.073	1366.51
774.256	1278.44
774.438	1401.32
774.621	1214.96
774.803	1290.73
774.985	1266.16
775.168	1362.41
775.35	1169.9
775.532	1243.63
775.715	1274.35
775.897	1294.83
776.079	1184.24
776.261	1247.72
776.444	1202.67
776.626	1184.24
776.808	1155.57
776.99	1067.5
777.173	1192.43
777.355	1075.7
777.537	1130.99
777.719	1118.7
777.901	1120.75
778.083	989.68
778.265	1090.03
778.447	1098.22
778.629	1034.74
778.811	1053.17
778.993	1120.75
779.175	1104.37
779.357	1198.57
779.539	936.43
779.721	1104.37
779.903	1032.69
780.085	971.25
780.267	1038.83
780.449	1051.12
780.631	1051.12
780.812	991.73
780.994	967.15
781.176	1047.02
781.358	1018.35
781.54	885.23
781.721	944.63
781.903	1077.74
782.085	885.23
782.267	928.24
782.448	909.81
782.63	985.58
782.812	901.62
782.993	922.1
783.175	911.86
783.357	866.8
783.538	897.52
783.72	827.89
783.901	922.1
784.083	915.95
784.264	819.7
784.446	731.64
784.627	772.6
784.809	893.43
784.99	745.97
785.172	844.28
785.353	682.49
785.535	778.74
785.716	788.98
785.897	731.64
786.079	862.71
786.26	834.04
786.441	772.6
786.623	674.29
786.804	700.92
786.985	682.49
787.167	711.16
787.348	737.78
787.529	711.16
787.71	774.64
787.891	719.35
788.073	676.34
788.254	621.05
788.435	791.03
788.616	727.54
788.797	580.09
788.978	674.29
789.159	623.09
789.34	604.66
789.522	619
789.703	688.63
789.884	719.35
790.065	664.05
790.246	750.07
790.427	594.42
790.607	782.84
790.788	668.15
790.969	616.95
791.15	596.47
791.331	557.56
791.512	592.37
791.693	520.7
791.874	619
792.054	629.24
792.235	625.14
792.416	530.94
792.597	526.84
792.778	588.28
792.958	674.29
793.139	598.52
793.32	649.72
793.5	569.85
793.681	596.47
793.862	610.81
794.042	489.98
794.223	479.74
794.404	612.85
794.584	508.41
794.765	508.41
794.945	608.76
795.126	561.66
795.306	557.56
795.487	461.3
795.667	494.07
795.848	551.42
796.028	494.07
796.209	528.89
796.389	520.7
796.57	479.74
796.75	475.64
796.93	475.64
797.111	467.45
797.291	524.79
797.471	508.41
797.652	504.31
797.832	473.59
798.012	537.08
798.192	455.16
798.373	518.65
798.553	426.49
798.733	418.3
798.913	385.53
799.093	479.74
799.274	510.46
799.454	467.45
799.634	492.02
799.814	453.11
799.994	510.46
800.174	516.6
800.354	481.78
800.534	393.72
800.714	479.74
800.894	358.91
801.074	412.15
801.254	469.5
801.434	438.78
801.614	369.15
801.794	381.43
801.974	1352.17
802.154	389.63
802.334	500.22
802.514	344.57
802.693	356.86
802.873	348.67
803.053	492.02
803.233	354.81
803.413	391.67
803.592	453.11
803.772	354.81
803.952	416.25
804.131	379.39
804.311	412.15
804.491	393.72
804.67	317.95
804.85	334.33
805.03	360.95
805.209	444.92
805.389	365.05
805.568	348.67
805.748	287.23
805.928	377.34
806.107	377.34
806.287	473.59
806.466	430.59
806.646	297.47
806.825	303.61
807.004	356.86
807.184	354.81
807.363	360.95
807.543	397.82
807.722	360.95
807.901	383.48
808.081	389.63
808.26	262.65
808.439	367.1
808.619	303.61
808.798	303.61
808.977	324.09
809.156	330.23
809.336	291.32
809.515	332.28
809.694	293.37
809.873	297.47
810.052	375.29
810.231	385.53
810.411	303.61
810.59	373.24
810.769	344.57
810.948	381.43
811.127	213.5
811.306	305.66
811.485	248.32
811.664	356.86
811.843	262.65
812.022	311.8
812.201	254.46
812.38	295.42
812.559	158.21
812.737	289.28
812.916	246.27
813.095	279.04
813.274	313.85
813.453	248.32
813.632	342.52
813.811	315.9
813.989	203.26
814.168	303.61
814.347	231.93
814.526	236.03
814.704	270.84
814.883	270.84
815.062	178.69
815.24	254.46
815.419	227.84
815.598	188.93
815.776	205.31
815.955	305.66
816.133	164.35
816.312	219.64
816.49	172.54
816.669	236.03
816.847	285.18
817.026	225.79
817.204	246.27
817.383	264.7
817.561	244.22
817.74	283.13
817.918	242.17
818.097	207.36
818.275	195.07
818.453	322.04
818.632	229.88
818.81	162.3
818.988	219.64
819.167	141.82
819.345	197.12
819.523	205.31
819.701	260.6
819.879	268.8
820.058	213.5
820.236	223.74
820.414	219.64
820.592	178.69
820.77	268.8
820.948	139.77
821.127	143.87
821.305	172.54
821.483	170.49
821.661	303.61
821.839	260.6
822.017	160.25
822.195	178.69
822.373	307.71
822.551	223.74
822.729	305.66
822.907	211.45
823.085	324.09
823.262	166.4
823.44	258.56
823.618	190.97
823.796	254.46
823.974	172.54
824.152	164.35
824.329	203.26
824.507	133.63
824.685	295.42
824.863	190.97
825.04	162.3
825.218	213.5
825.396	166.4
825.574	166.4
825.751	215.55
825.929	246.27
826.107	231.93
826.284	76.29
826.462	174.59
826.639	70.14
826.817	139.77
826.994	156.16
827.172	162.3
827.349	246.27
827.527	164.35
827.704	213.5
827.882	199.16
828.059	231.93
828.237	135.68
828.414	225.79
828.591	135.68
828.769	107.01
828.946	127.49
829.124	117.25
829.301	166.4
829.478	111.1
829.655	252.41
829.833	94.72
830.01	115.2
830.187	195.07
830.364	135.68
830.542	154.11
830.719	156.16
830.896	145.92
831.073	141.82
831.25	121.34
831.427	174.59
831.604	152.06
831.782	109.05
831.959	139.77
832.136	117.25
832.313	147.97
832.49	41.47
832.667	158.21
832.844	84.48
833.021	197.12
833.198	184.83
833.374	121.34
833.551	156.16
833.728	154.11
833.905	233.98
834.082	53.76
834.259	201.21
834.436	170.49
834.612	90.62
834.789	233.98
834.966	190.97
835.143	115.2
835.319	141.82
835.496	150.01
835.673	86.53
835.85	164.35
836.026	129.53
836.203	166.4
836.38	135.68
836.556	84.48
836.733	82.43
836.909	213.5
837.086	117.25
837.262	53.76
837.439	123.39
837.616	104.96
837.792	96.77
837.968	195.07
838.145	-9.73
838.321	123.39
838.498	152.06
838.674	66.05
838.851	154.11
839.027	111.1
839.203	188.93
839.38	158.21
839.556	100.86
839.732	49.66
839.909	117.25
840.085	201.21
840.261	123.39
840.437	135.68
840.614	90.62
840.79	174.59
840.966	55.81
841.142	107.01
841.318	111.1
841.494	123.39
841.671	96.77
841.847	20.99
842.023	96.77
842.199	55.81
842.375	98.81
842.551	-42.5
842.727	16.9
842.903	125.44
843.079	39.42
843.255	164.35
843.431	123.39
843.607	143.87
843.783	6.66
843.959	59.9
844.134	72.19
844.31	182.78
844.486	31.23
844.662	57.86
844.838	96.77
845.013	100.86
845.189	113.15
845.365	127.49
845.541	41.47
845.716	133.63
845.892	104.96
846.068	45.57
846.244	8.7
846.419	78.33
846.595	33.28
846.77	113.15
846.946	154.11
847.122	61.95
847.297	80.38
847.473	135.68
847.648	35.33
847.824	147.97
847.999	37.38
848.175	4.61
848.35	160.25
848.526	109.05
848.701	45.57
848.876	119.29
849.052	117.25
849.227	107.01
849.403	98.81
849.578	117.25
849.753	88.57
849.929	61.95
850.104	-26.11
850.279	64
850.454	121.34
850.63	72.19
850.805	61.95
850.98	90.62
851.155	111.1
851.33	102.91
851.505	37.38
851.681	152.06
851.856	23.04
852.031	172.54
852.206	109.05
852.381	-38.4
852.556	31.23
852.731	53.76
852.906	129.53
853.081	57.86
853.256	145.92
853.431	115.2
853.606	72.19
853.781	55.81
853.956	18.94
854.131	141.82
854.305	55.81
854.48	107.01
854.655	23.04
854.83	35.33
855.005	51.71
855.18	111.1
855.354	129.53
855.529	70.14
855.704	43.52
855.879	29.18
856.053	0.51
856.228	158.21
856.403	70.14
856.577	59.9
856.752	-11.78
856.926	59.9
857.101	61.95
857.276	76.29
857.45	76.29
857.625	104.96
857.799	-1.54
857.974	115.2
858.148	18.94
858.323	-7.68
858.497	33.28
858.672	47.62
858.846	-3.58
859.02	-32.26
859.195	-28.16
859.369	27.14
859.543	70.14
859.718	123.39
859.892	92.67
860.066	98.81
860.241	-7.68
860.415	74.24
860.589	66.05
860.763	16.9
860.938	137.73
861.112	74.24
861.286	39.42
861.46	61.95
861.634	-5.63
861.808	86.53
861.982	31.23
862.157	31.23
862.331	47.62
862.505	84.48
862.679	-38.4
862.853	92.67
863.027	55.81
863.201	172.54
863.375	27.14
863.549	90.62
863.722	33.28
863.896	80.38
864.07	12.8
864.244	35.33
864.418	82.43
864.592	39.42
864.766	27.14
864.939	98.81
865.113	-24.06
865.287	98.81
865.461	39.42
865.634	100.86
865.808	49.66
865.982	90.62
866.156	10.75
866.329	16.9
866.503	8.7
866.676	90.62
866.85	37.38
867.024	8.7
867.197	117.25
867.371	141.82
867.544	113.15
867.718	14.85
867.891	88.57
868.065	59.9
868.238	29.18
868.412	100.86
868.585	64
868.759	-19.97
868.932	-24.06
869.105	43.52
869.279	55.81
869.452	2.56
869.625	39.42
869.799	16.9
869.972	4.61
870.145	49.66
870.319	100.86
870.492	41.47
870.665	14.85
870.838	4.61
871.011	-19.97
871.185	35.33
871.358	37.38
871.531	29.18
871.704	59.9
871.877	68.09
872.05	20.99
872.223	47.62
872.396	92.67
872.569	4.61
872.742	-26.11
872.915	45.57
873.088	20.99
873.261	53.76
873.434	133.63
873.607	10.75
873.78	74.24
873.953	-38.4
874.126	76.29
874.299	90.62
874.471	6.66
874.644	74.24
874.817	39.42
874.99	141.82
875.163	18.94
875.335	90.62
875.508	55.81
875.681	66.05
875.853	-9.73
876.026	12.8
876.199	96.77
876.371	43.52
876.544	-22.02
876.717	2.56
876.889	113.15
877.062	23.04
877.234	39.42
877.407	-15.87
877.579	43.52
877.752	107.01
877.924	55.81
878.097	29.18
878.269	49.66
878.442	74.24
878.614	-9.73
878.786	37.38
878.959	39.42
879.131	31.23
879.303	-38.4
879.476	-13.82
879.648	55.81
879.82	39.42
879.993	37.38
880.165	49.66
880.337	-26.11
880.509	47.62
880.681	-65.02
880.854	20.99
881.026	74.24
881.198	201.21
881.37	39.42
881.542	76.29
881.714	35.33
881.886	27.14
882.058	16.9
882.23	37.38
882.402	104.96
882.574	53.76
882.746	20.99
882.918	64
883.09	-1.54
883.262	66.05
883.434	-13.82
883.606	-13.82
883.778	59.9
883.95	121.34
884.122	12.8
884.293	76.29
884.465	12.8
884.637	166.4
884.809	4.61
884.98	49.66
885.152	29.18
885.324	76.29
885.496	-3.58
885.667	-34.3
885.839	-30.21
886.011	66.05
886.182	-7.68
886.354	86.53
886.525	14.85
886.697	2.56
886.869	18.94
887.04	-5.63
887.212	104.96
887.383	139.77
887.555	39.42
887.726	-32.26
887.897	23.04
888.069	72.19
888.24	84.48
888.412	92.67
888.583	82.43
888.754	86.53
888.926	-54.78
889.097	20.99
889.268	16.9
889.44	29.18
889.611	-54.78
889.782	-22.02
889.953	29.18
890.125	82.43
890.296	-13.82
890.467	23.04
890.638	20.99
890.809	66.05
890.98	-11.78
891.151	37.38
891.323	31.23
891.494	20.99
891.665	10.75
891.836	57.86
892.007	20.99
892.178	64
892.349	37.38
892.52	33.28
892.691	-38.4
892.862	-15.87
893.032	-28.16
893.203	51.71
893.374	20.99
893.545	86.53
893.716	33.28
893.887	82.43
894.057	66.05
894.228	12.8
894.399	8.7
894.57	70.14
894.74	41.47
894.911	27.14
895.082	47.62
895.253	20.99
895.423	-9.73
895.594	86.53
895.764	37.38
895.935	-38.4
896.106	90.62
896.276	-1.54
896.447	53.76
896.617	-105.98
896.788	-28.16
896.958	-91.65
897.129	16.9
897.299	-22.02
897.47	68.09
897.64	20.99
897.81	88.57
897.981	-9.73
898.151	-3.58
898.322	-30.21
898.492	59.9
898.662	66.05
898.832	90.62
899.003	-56.83
899.173	8.7
899.343	-36.35
899.513	-15.87
