Data from USB4F104151__62__12-12-27-154.txt Node

Date: Fri Mar 14 12:12:27 EDT 2025
User: louis
Spectrometer: USB4F10415
Trigger mode: 4
Integration Time (sec): 5.000000E-2
Scans to average: 1
Electric dark correction enabled: true
Nonlinearity correction enabled: false
Boxcar width: 0
XAxis mode: Wavelengths
Number of Pixels in Spectrum: 3648
>>>>>Begin Spectral Data<<<<<
178.204	-237.39
178.424	-237.39
178.644	-237.39
178.864	-245.59
179.084	-184.15
179.304	45.23
179.524	22.7
179.744	0.17
179.964	88.23
180.184	-51.03
180.404	0.17
180.624	12.46
180.844	-34.64
181.064	-34.64
181.283	22.7
181.503	-51.03
181.723	-20.31
181.943	-12.12
182.163	145.58
182.383	51.37
182.602	22.7
182.822	67.75
183.042	69.8
183.262	-61.27
183.482	-24.4
183.701	34.99
183.921	55.47
184.141	0.17
184.361	164.01
184.58	24.75
184.8	-5.97
185.02	32.94
185.239	104.62
185.459	53.42
185.679	24.75
185.898	-34.64
186.118	4.27
186.338	34.99
186.557	84.14
186.777	2.22
186.997	-10.07
187.216	90.28
187.436	77.99
187.655	131.24
187.875	14.51
188.095	-8.02
188.314	51.37
188.534	143.53
188.753	-32.6
188.973	26.79
189.192	63.66
189.412	26.79
189.631	39.08
189.851	61.61
190.07	55.47
190.29	-59.22
190.509	28.84
190.729	-32.6
190.948	73.9
191.168	149.67
191.387	34.99
191.607	22.7
191.826	71.85
192.045	37.03
192.265	37.03
192.484	116.9
192.704	8.36
192.923	-8.02
193.142	143.53
193.362	82.09
193.581	86.19
193.8	94.38
194.02	106.67
194.239	92.33
194.458	51.37
194.678	59.56
194.897	69.8
195.116	69.8
195.335	73.9
195.555	131.24
195.774	16.55
195.993	71.85
196.212	-5.97
196.432	45.23
196.651	12.46
196.87	73.9
197.089	114.86
197.308	34.99
197.528	55.47
197.747	-10.07
197.966	96.43
198.185	147.62
198.404	-38.74
198.623	131.24
198.842	37.03
199.062	86.19
199.281	65.71
199.5	94.38
199.719	43.18
199.938	125.1
200.157	45.23
200.376	77.99
200.595	45.23
200.814	71.85
201.033	-30.55
201.252	24.75
201.471	61.61
201.69	135.34
201.909	10.41
202.128	-18.26
202.347	61.61
202.566	-20.31
202.785	59.56
203.004	-10.07
203.223	77.99
203.442	6.31
203.661	12.46
203.879	61.61
204.098	61.61
204.317	14.51
204.536	55.47
204.755	51.37
204.974	65.71
205.193	125.1
205.411	139.43
205.63	88.23
205.849	-22.36
206.068	75.95
206.287	57.51
206.505	65.71
206.724	37.03
206.943	32.94
207.162	61.61
207.381	75.95
207.599	22.7
207.818	45.23
208.037	47.27
208.255	8.36
208.474	12.46
208.693	47.27
208.911	69.8
209.13	-12.12
209.349	94.38
209.567	-51.03
209.786	104.62
210.005	45.23
210.223	67.75
210.442	2.22
210.661	49.32
210.879	4.27
211.098	2.22
211.316	28.84
211.535	10.41
211.753	0.17
211.972	75.95
212.191	24.75
212.409	24.75
212.628	18.6
212.846	-40.79
213.065	86.19
213.283	53.42
213.502	43.18
213.72	-48.98
213.938	41.13
214.157	12.46
214.375	61.61
214.594	84.14
214.812	116.9
215.031	102.57
215.249	28.84
215.467	0.17
215.686	82.09
215.904	49.32
216.122	18.6
216.341	125.1
216.559	14.51
216.778	90.28
216.996	73.9
217.214	32.94
217.432	-1.88
217.651	37.03
217.869	37.03
218.087	39.08
218.306	-16.21
218.524	94.38
218.742	-24.4
218.96	61.61
219.179	51.37
219.397	18.6
219.615	121
219.833	80.04
220.051	30.89
220.27	32.94
220.488	55.47
220.706	-3.93
220.924	59.56
221.142	18.6
221.36	82.09
221.578	67.75
221.796	80.04
222.015	6.31
222.233	69.8
222.451	47.27
222.669	2.22
222.887	73.9
223.105	-87.89
223.323	51.37
223.541	51.37
223.759	92.33
223.977	92.33
224.195	106.67
224.413	125.1
224.631	108.71
224.849	34.99
225.067	82.09
225.285	-34.64
225.503	53.42
225.721	-46.93
225.939	18.6
226.157	77.99
226.375	110.76
226.592	30.89
226.81	73.9
227.028	118.95
227.246	86.19
227.464	61.61
227.682	141.48
227.9	96.43
228.117	0.17
228.335	100.52
228.553	-28.5
228.771	10.41
228.989	45.23
229.206	127.14
229.424	37.03
229.642	37.03
229.86	-28.5
230.077	71.85
230.295	51.37
230.513	125.1
230.731	61.61
230.948	51.37
231.166	77.99
231.384	2.22
231.601	6.31
231.819	73.9
232.037	53.42
232.254	-10.07
232.472	16.55
232.689	73.9
232.907	2.22
233.125	16.55
233.342	28.84
233.56	-3.93
233.777	34.99
233.995	37.03
234.213	88.23
234.43	57.51
234.648	47.27
234.865	47.27
235.083	53.42
235.3	16.55
235.518	45.23
235.735	57.51
235.953	53.42
236.17	12.46
236.388	6.31
236.605	77.99
236.822	71.85
237.04	69.8
237.257	63.66
237.475	-36.69
237.692	59.56
237.909	82.09
238.127	10.41
238.344	39.08
238.562	90.28
238.779	-20.31
238.996	-28.5
239.214	12.46
239.431	53.42
239.648	-34.64
239.865	10.41
240.083	-5.97
240.3	-5.97
240.517	24.75
240.735	18.6
240.952	43.18
241.169	28.84
241.386	43.18
241.603	69.8
241.821	37.03
242.038	53.42
242.255	75.95
242.472	-20.31
242.689	86.19
242.907	55.47
243.124	-20.31
243.341	-3.93
243.558	8.36
243.775	14.51
243.992	-30.55
244.209	110.76
244.426	86.19
244.643	82.09
244.86	-20.31
245.078	84.14
245.295	20.65
245.512	108.71
245.729	-77.65
245.946	123.05
246.163	57.51
246.38	26.79
246.597	51.37
246.814	-32.6
247.031	-8.02
247.248	-34.64
247.464	47.27
247.681	41.13
247.898	53.42
248.115	96.43
248.332	-55.12
248.549	22.7
248.766	121
248.983	73.9
249.2	45.23
249.417	96.43
249.633	-14.17
249.85	77.99
250.067	18.6
250.284	14.51
250.501	88.23
250.717	51.37
250.934	41.13
251.151	71.85
251.368	-24.4
251.585	24.75
251.801	39.08
252.018	-30.55
252.235	8.36
252.451	37.03
252.668	86.19
252.885	63.66
253.102	-1.88
253.318	47.27
253.535	22.7
253.752	28.84
253.968	-18.26
254.185	45.23
254.401	39.08
254.618	0.17
254.835	26.79
255.051	139.43
255.268	49.32
255.484	-32.6
255.701	57.51
255.917	98.47
256.134	14.51
256.351	2.22
256.567	90.28
256.784	49.32
257	-55.12
257.217	59.56
257.433	49.32
257.65	88.23
257.866	98.47
258.082	18.6
258.299	39.08
258.515	84.14
258.732	-1.88
258.948	-16.21
259.165	-30.55
259.381	22.7
259.597	100.52
259.814	-44.88
260.03	57.51
260.246	75.95
260.463	102.57
260.679	24.75
260.895	59.56
261.112	80.04
261.328	77.99
261.544	26.79
261.761	149.67
261.977	63.66
262.193	-8.02
262.409	-5.97
262.626	67.75
262.842	8.36
263.058	118.95
263.274	20.65
263.49	26.79
263.707	75.95
263.923	-10.07
264.139	-87.89
264.355	16.55
264.571	157.86
264.787	61.61
265.004	32.94
265.22	-10.07
265.436	-1.88
265.652	6.31
265.868	2.22
266.084	8.36
266.3	51.37
266.516	32.94
266.732	92.33
266.948	69.8
267.164	92.33
267.38	-12.12
267.596	20.65
267.812	108.71
268.028	30.89
268.244	14.51
268.46	37.03
268.676	104.62
268.892	92.33
269.108	-46.93
269.324	6.31
269.54	4.27
269.756	77.99
269.972	-8.02
270.188	28.84
270.403	2.22
270.619	34.99
270.835	94.38
271.051	63.66
271.267	0.17
271.483	51.37
271.698	32.94
271.914	100.52
272.13	-20.31
272.346	53.42
272.562	-3.93
272.777	37.03
272.993	86.19
273.209	37.03
273.425	20.65
273.64	-30.55
273.856	67.75
274.072	39.08
274.287	-10.07
274.503	10.41
274.719	14.51
274.934	26.79
275.15	4.27
275.366	8.36
275.581	-5.97
275.797	-12.12
276.012	71.85
276.228	49.32
276.444	71.85
276.659	100.52
276.875	-10.07
277.09	30.89
277.306	-8.02
277.521	34.99
277.737	63.66
277.952	77.99
278.168	80.04
278.383	65.71
278.599	57.51
278.814	94.38
279.03	26.79
279.245	96.43
279.461	75.95
279.676	67.75
279.892	-10.07
280.107	135.34
280.322	-5.97
280.538	65.71
280.753	-12.12
280.969	77.99
281.184	45.23
281.399	51.37
281.615	55.47
281.83	51.37
282.045	-12.12
282.26	-3.93
282.476	6.31
282.691	63.66
282.906	24.75
283.122	34.99
283.337	-1.88
283.552	102.57
283.767	-3.93
283.983	49.32
284.198	88.23
284.413	166.06
284.628	-3.93
284.843	51.37
285.058	125.1
285.274	24.75
285.489	86.19
285.704	63.66
285.919	8.36
286.134	75.95
286.349	57.51
286.564	77.99
286.779	51.37
286.995	77.99
287.21	-5.97
287.425	65.71
287.64	-28.5
287.855	22.7
288.07	-24.4
288.285	63.66
288.5	178.34
288.715	110.76
288.93	34.99
289.145	16.55
289.36	121
289.575	-16.21
289.79	155.82
290.004	-30.55
290.219	41.13
290.434	-3.93
290.649	-24.4
290.864	20.65
291.079	10.41
291.294	6.31
291.509	-57.17
291.724	2.22
291.938	-18.26
292.153	-55.12
292.368	12.46
292.583	2.22
292.798	88.23
293.012	20.65
293.227	-26.45
293.442	-22.36
293.657	143.53
293.871	106.67
294.086	92.33
294.301	90.28
294.516	-18.26
294.73	86.19
294.945	18.6
295.16	-1.88
295.374	90.28
295.589	118.95
295.804	2.22
296.018	-18.26
296.233	-20.31
296.447	67.75
296.662	14.51
296.877	20.65
297.091	53.42
297.306	61.61
297.52	123.05
297.735	88.23
297.949	92.33
298.164	53.42
298.378	-12.12
298.593	12.46
298.807	10.41
299.022	86.19
299.236	139.43
299.451	6.31
299.665	34.99
299.88	24.75
300.094	63.66
300.309	-5.97
300.523	30.89
300.737	86.19
300.952	94.38
301.166	4.27
301.381	-10.07
301.595	2.22
301.809	26.79
302.024	18.6
302.238	-28.5
302.452	59.56
302.667	-3.93
302.881	141.48
303.095	108.71
303.309	114.86
303.524	-8.02
303.738	14.51
303.952	39.08
304.166	86.19
304.381	28.84
304.595	116.9
304.809	8.36
305.023	80.04
305.237	59.56
305.452	-22.36
305.666	75.95
305.88	-8.02
306.094	22.7
306.308	77.99
306.522	125.1
306.736	55.47
306.95	53.42
307.164	59.56
307.379	39.08
307.593	127.14
307.807	45.23
308.021	49.32
308.235	125.1
308.449	39.08
308.663	65.71
308.877	104.62
309.091	2.22
309.305	75.95
309.519	-18.26
309.733	102.57
309.947	-32.6
310.161	82.09
310.374	30.89
310.588	137.38
310.802	37.03
311.016	12.46
311.23	67.75
311.444	8.36
311.658	14.51
311.872	59.56
312.085	59.56
312.299	110.76
312.513	59.56
312.727	30.89
312.941	6.31
313.154	69.8
313.368	141.48
313.582	86.19
313.796	28.84
314.009	43.18
314.223	108.71
314.437	131.24
314.651	61.61
314.864	18.6
315.078	-22.36
315.292	24.75
315.505	-12.12
315.719	86.19
315.933	118.95
316.146	71.85
316.36	-59.22
316.573	41.13
316.787	92.33
317.001	41.13
317.214	-40.79
317.428	112.81
317.641	34.99
317.855	20.65
318.068	16.55
318.282	47.27
318.495	141.48
318.709	59.56
318.922	-10.07
319.136	116.9
319.349	96.43
319.563	10.41
319.776	-12.12
319.99	-40.79
320.203	67.75
320.417	43.18
320.63	90.28
320.843	94.38
321.057	98.47
321.27	65.71
321.483	2.22
321.697	96.43
321.91	94.38
322.124	61.61
322.337	16.55
322.55	24.75
322.763	80.04
322.977	0.17
323.19	55.47
323.403	45.23
323.617	57.51
323.83	-3.93
324.043	75.95
324.256	59.56
324.469	-14.17
324.683	30.89
324.896	51.37
325.109	55.47
325.322	-8.02
325.535	125.1
325.748	41.13
325.962	-14.17
326.175	39.08
326.388	-51.03
326.601	164.01
326.814	-3.93
327.027	51.37
327.24	145.58
327.453	55.47
327.666	96.43
327.879	-8.02
328.092	67.75
328.305	12.46
328.518	45.23
328.731	43.18
328.944	20.65
329.157	53.42
329.37	39.08
329.583	112.81
329.796	71.85
330.009	-5.97
330.222	26.79
330.435	45.23
330.648	51.37
330.861	75.95
331.073	57.51
331.286	145.58
331.499	26.79
331.712	84.14
331.925	22.7
332.138	88.23
332.35	80.04
332.563	32.94
332.776	73.9
332.989	-14.17
333.202	-14.17
333.414	-3.93
333.627	63.66
333.84	8.36
334.053	39.08
334.265	34.99
334.478	51.37
334.691	41.13
334.903	59.56
335.116	14.51
335.329	37.03
335.541	65.71
335.754	65.71
335.966	26.79
336.179	61.61
336.392	26.79
336.604	-12.12
336.817	61.61
337.029	69.8
337.242	26.79
337.454	61.61
337.667	84.14
337.88	100.52
338.092	57.51
338.305	18.6
338.517	37.03
338.729	30.89
338.942	100.52
339.154	12.46
339.367	26.79
339.579	51.37
339.792	-22.36
340.004	100.52
340.217	2.22
340.429	108.71
340.641	45.23
340.854	73.9
341.066	121
341.278	149.67
341.491	143.53
341.703	51.37
341.915	75.95
342.128	100.52
342.34	16.55
342.552	24.75
342.764	20.65
342.977	80.04
343.189	49.32
343.401	86.19
343.613	67.75
343.826	51.37
344.038	-24.4
344.25	61.61
344.462	-44.88
344.674	-30.55
344.886	84.14
345.099	121
345.311	123.05
345.523	30.89
345.735	-44.88
345.947	12.46
346.159	55.47
346.371	4.27
346.583	57.51
346.795	192.68
347.007	71.85
347.219	-1.88
347.431	-40.79
347.643	90.28
347.855	88.23
348.067	149.67
348.279	-8.02
348.491	32.94
348.703	22.7
348.915	69.8
349.127	4.27
349.339	147.62
349.551	55.47
349.763	75.95
349.975	-14.17
350.187	71.85
350.399	116.9
350.61	39.08
350.822	14.51
351.034	123.05
351.246	53.42
351.458	80.04
351.669	77.99
351.881	102.57
352.093	71.85
352.305	32.94
352.517	116.9
352.728	84.14
352.94	90.28
353.152	4.27
353.363	30.89
353.575	39.08
353.787	71.85
353.999	67.75
354.21	118.95
354.422	-46.93
354.633	18.6
354.845	47.27
355.057	129.19
355.268	43.18
355.48	88.23
355.692	53.42
355.903	-5.97
356.115	32.94
356.326	-46.93
356.538	110.76
356.749	30.89
356.961	131.24
357.172	34.99
357.384	-24.4
357.595	118.95
357.807	39.08
358.018	10.41
358.23	30.89
358.441	118.95
358.653	20.65
358.864	59.56
359.075	26.79
359.287	114.86
359.498	96.43
359.709	18.6
359.921	53.42
360.132	94.38
360.344	65.71
360.555	26.79
360.766	86.19
360.977	-5.97
361.189	65.71
361.4	45.23
361.611	73.9
361.823	88.23
362.034	88.23
362.245	-104.28
362.456	-36.69
362.667	69.8
362.879	-28.5
363.09	53.42
363.301	102.57
363.512	77.99
363.723	12.46
363.935	6.31
364.146	86.19
364.357	47.27
364.568	98.47
364.779	-48.98
364.99	73.9
365.201	-8.02
365.412	100.52
365.623	24.75
365.834	63.66
366.045	92.33
366.256	82.09
366.467	96.43
366.678	49.32
366.889	98.47
367.1	43.18
367.311	24.75
367.522	69.8
367.733	59.56
367.944	143.53
368.155	125.1
368.366	125.1
368.577	84.14
368.788	135.34
368.999	82.09
369.209	12.46
369.42	178.34
369.631	121
369.842	-20.31
370.053	32.94
370.264	39.08
370.474	32.94
370.685	65.71
370.896	77.99
371.107	100.52
371.317	118.95
371.528	14.51
371.739	198.82
371.95	82.09
372.16	88.23
372.371	24.75
372.582	41.13
372.792	32.94
373.003	43.18
373.214	57.51
373.424	88.23
373.635	43.18
373.846	96.43
374.056	108.71
374.267	53.42
374.477	47.27
374.688	22.7
374.898	37.03
375.109	18.6
375.319	86.19
375.53	127.14
375.74	108.71
375.951	98.47
376.161	82.09
376.372	47.27
376.582	49.32
376.793	77.99
377.003	53.42
377.214	41.13
377.424	22.7
377.635	133.29
377.845	22.7
378.055	118.95
378.266	-18.26
378.476	125.1
378.686	102.57
378.897	86.19
379.107	47.27
379.317	55.47
379.528	63.66
379.738	106.67
379.948	-24.4
380.158	75.95
380.369	34.99
380.579	88.23
380.789	43.18
380.999	59.56
381.21	71.85
381.42	90.28
381.63	6.31
381.84	127.14
382.05	131.24
382.261	59.56
382.471	77.99
382.681	30.89
382.891	112.81
383.101	80.04
383.311	53.42
383.521	45.23
383.731	98.47
383.941	104.62
384.151	110.76
384.361	41.13
384.571	47.27
384.781	88.23
384.991	129.19
385.201	20.65
385.411	121
385.621	45.23
385.831	92.33
386.041	86.19
386.251	12.46
386.461	51.37
386.671	-18.26
386.881	116.9
387.091	32.94
387.301	88.23
387.511	59.56
387.72	100.52
387.93	59.56
388.14	32.94
388.35	88.23
388.56	86.19
388.769	170.15
388.979	16.55
389.189	-32.6
389.399	127.14
389.609	139.43
389.818	75.95
390.028	86.19
390.238	145.58
390.447	-57.17
390.657	141.48
390.867	82.09
391.076	22.7
391.286	49.32
391.496	73.9
391.705	114.86
391.915	188.58
392.125	110.76
392.334	34.99
392.544	112.81
392.753	26.79
392.963	20.65
393.172	86.19
393.382	57.51
393.591	129.19
393.801	57.51
394.01	24.75
394.22	94.38
394.429	75.95
394.639	77.99
394.848	149.67
395.058	34.99
395.267	65.71
395.477	127.14
395.686	161.96
395.895	125.1
396.105	137.38
396.314	67.75
396.524	94.38
396.733	149.67
396.942	198.82
397.152	219.3
397.361	137.38
397.57	28.84
397.78	145.58
397.989	73.9
398.198	164.01
398.407	75.95
398.617	73.9
398.826	151.72
399.035	80.04
399.244	164.01
399.453	131.24
399.663	116.9
399.872	164.01
400.081	73.9
400.29	217.26
400.499	61.61
400.708	174.25
400.917	24.75
401.127	123.05
401.336	145.58
401.545	176.3
401.754	176.3
401.963	209.06
402.172	180.39
402.381	94.38
402.59	100.52
402.799	53.42
403.008	204.97
403.217	176.3
403.426	149.67
403.635	98.47
403.844	196.78
404.053	80.04
404.262	174.25
404.471	282.79
404.68	194.73
404.888	90.28
405.097	157.86
405.306	223.4
405.515	182.44
405.724	67.75
405.933	262.31
406.142	184.49
406.35	272.55
406.559	186.54
406.768	225.45
406.977	274.6
407.185	264.36
407.394	305.32
407.603	207.02
407.812	250.02
408.02	284.84
408.229	295.08
408.438	262.31
408.646	190.63
408.855	247.97
409.064	237.74
409.272	270.5
409.481	377
409.69	377
409.898	235.69
410.107	317.61
410.315	362.66
410.524	329.89
410.733	415.91
410.941	356.52
411.15	409.76
411.358	415.91
411.567	508.07
411.775	430.24
411.984	438.44
412.192	491.68
412.401	485.54
412.609	571.55
412.818	602.27
413.026	596.13
413.234	585.89
413.443	551.07
413.651	622.75
413.86	583.84
414.068	649.38
414.276	702.62
414.485	743.58
414.693	762.02
414.901	809.12
415.11	780.45
415.318	790.69
415.526	850.08
415.734	993.44
415.943	874.65
416.151	946.33
416.359	870.56
416.567	966.81
416.776	1075.35
416.984	1108.12
417.192	1104.03
417.4	1054.87
417.608	1147.03
417.817	1108.12
418.025	1185.94
418.233	1433.75
418.441	1134.75
418.649	1263.77
418.857	1466.52
419.065	1417.37
419.273	1423.51
419.481	1394.84
419.689	1536.15
419.897	1609.87
420.105	1560.72
420.313	1552.53
420.521	1755.28
420.729	1835.15
420.937	1796.24
421.145	1831.05
421.353	1951.88
421.561	2021.52
421.769	2027.66
421.977	2205.83
422.185	2218.12
422.393	2398.34
422.601	2502.79
422.809	2349.19
423.017	2410.63
423.224	2560.13
423.432	2709.63
423.64	2687.11
423.848	3031.16
424.056	2801.79
424.263	3074.17
424.471	2973.82
424.679	3182.71
424.887	3373.18
425.094	3504.25
425.302	3344.5
425.51	3522.68
425.718	3639.41
425.925	3764.34
426.133	3827.82
426.341	3860.59
426.548	4221.03
426.756	4216.94
426.964	4255.85
427.171	4540.52
427.379	4456.55
427.586	4632.68
427.794	4925.54
428.001	5048.41
428.209	5204.06
428.417	5236.83
428.624	5369.94
428.832	5453.91
429.039	5392.47
429.247	5398.62
429.454	6064.21
429.662	6375.5
429.869	5871.7
430.076	6344.78
430.284	6099.02
430.491	6490.18
430.699	6793.28
430.906	6930.5
431.114	6801.47
431.321	7145.53
431.528	7247.93
431.736	7761.97
431.943	8065.07
432.15	7665.72
432.358	7903.28
432.565	8345.64
432.772	8165.42
432.979	8630.31
433.187	8886.31
433.394	8689.7
433.601	9455.64
433.808	9584.66
434.016	9439.26
434.223	9777.17
434.43	10395.66
434.637	10199.06
434.844	10776.58
435.052	10946.56
435.259	10921.99
435.466	11083.78
435.673	10911.75
435.88	11554.81
436.087	12257.26
436.294	12193.78
436.501	12005.36
436.708	12115.95
436.915	12437.48
437.122	13258.72
437.329	12982.24
437.537	13412.32
437.743	13608.92
437.95	13533.15
438.157	14256.08
438.364	14596.04
438.571	14634.96
438.778	14725.07
438.985	16193.46
439.192	15583.16
439.399	16033.72
439.606	15507.39
439.813	16324.53
440.02	17301.41
440.227	17199.01
440.433	17139.62
440.64	17549.21
440.847	17455.01
441.054	17899.42
441.261	19150.73
441.467	18745.23
441.674	19134.34
441.881	19726.21
442.088	19593.09
442.294	19308.42
442.501	19801.98
442.708	20234.1
442.914	21032.81
443.121	22081.37
443.328	21450.6
443.534	22900.56
443.741	22452.05
443.948	21755.74
444.154	23562.05
444.361	23222.09
444.568	23711.55
444.774	23375.69
444.981	23779.14
445.187	24481.59
445.394	25614.12
445.6	25290.54
445.807	27614.98
446.013	26414.87
446.22	26777.36
446.426	27606.79
446.633	28018.43
446.839	29202.16
447.046	27752.2
447.252	29322.99
447.459	29224.68
447.665	29101.81
447.871	30097.12
448.078	31706.82
448.284	30412.51
448.491	30854.87
448.697	32544.44
448.903	32755.38
449.11	32763.57
449.316	32220.86
449.522	32999.09
449.728	33849
449.935	33803.94
450.141	34225.82
450.347	34238.11
450.553	33482.41
450.76	33447.6
450.966	34932.37
451.172	34463.39
451.378	35116.69
451.584	34821.78
451.791	35782.28
451.997	35122.83
452.203	35452.56
452.409	35948.17
452.615	35886.73
452.821	34246.3
453.027	34078.37
453.233	35796.62
453.44	34256.54
453.646	34518.68
453.852	34743.96
454.058	35485.33
454.264	34293.41
454.47	35399.31
454.676	34092.71
454.882	35339.92
455.088	32104.13
455.294	32671.42
455.5	33275.57
455.705	33400.49
455.911	31758.02
456.117	31708.87
456.323	30844.63
456.529	29218.54
456.735	30609.11
456.941	29658.85
457.147	29325.04
457.352	28538.62
457.558	27662.08
457.764	28165.88
457.97	27698.95
458.176	26982.16
458.381	26998.54
458.587	25476.9
458.793	25655.08
458.999	24352.57
459.204	25992.99
459.41	25155.37
459.616	23668.55
459.821	23527.24
460.027	23150.41
460.233	23220.04
460.438	21798.75
460.644	21983.07
460.85	20637.55
461.055	20428.66
461.261	20531.06
461.466	18888.59
461.672	18302.87
461.878	19562.37
462.083	18345.87
462.289	17905.56
462.494	17631.13
462.7	17219.49
462.905	16715.69
463.111	17074.09
463.316	17090.47
463.522	16650.16
463.727	16412.59
463.932	16793.51
464.138	16424.88
464.343	16252.85
464.549	15990.71
464.754	16693.16
464.959	16523.18
465.165	15982.52
465.37	15658.94
465.575	14976.97
465.781	15519.68
465.986	15890.36
466.191	15247.3
466.397	14706.63
466.602	14153.68
466.807	14868.42
467.012	14596.04
467.218	14503.89
467.423	14702.54
467.628	14460.88
467.833	15204.29
468.038	14624.72
468.244	13756.38
468.449	14581.71
468.654	13961.17
468.859	13969.37
469.064	13934.55
469.269	13623.26
469.474	13420.51
469.679	13756.38
469.885	13477.85
470.09	13543.39
470.295	13301.73
470.5	13010.92
470.705	13152.23
470.91	12664.81
471.115	12679.15
471.32	12961.76
471.525	12845.03
471.73	12529.64
471.935	12384.24
472.139	12146.67
472.344	12187.63
472.549	11819
472.754	11909.11
472.959	11638.78
473.164	11661.3
473.369	11472.89
473.574	11608.06
473.778	11530.23
473.983	11337.73
474.188	11304.96
474.393	10780.68
474.598	10864.64
474.802	10780.68
475.007	10674.18
475.212	10686.47
475.417	10154
475.621	10366.99
475.826	10448.91
476.031	10086.42
476.235	10332.17
476.44	10164.24
476.645	9961.49
476.849	9674.78
477.054	9811.99
477.259	9650.2
477.463	9578.52
477.668	9326.62
477.872	9236.51
478.077	9314.33
478.282	9168.93
478.486	8945.7
478.691	8964.13
478.895	9013.28
479.1	8874.02
479.304	8771.62
479.509	8572.97
479.713	8884.26
479.918	8466.47
480.122	8413.23
480.326	8388.65
480.531	8454.19
480.735	8421.42
480.94	8370.22
481.144	8581.16
481.348	8151.09
481.553	8304.68
481.757	7983.15
481.961	8253.48
482.166	8138.8
482.37	8149.04
482.574	8216.62
482.778	8077.36
482.983	8288.3
483.187	8124.46
483.391	8202.29
483.595	8251.44
483.8	7997.49
484.004	7952.43
484.208	8138.8
484.412	8001.58
484.616	8040.5
484.821	7905.33
485.025	7919.67
485.229	8247.34
485.433	7809.08
485.637	7919.67
485.841	8036.4
486.045	7950.39
486.249	8015.92
486.453	8063.02
486.657	8046.64
486.861	8042.54
487.065	7807.03
487.269	7944.24
487.473	7813.17
487.677	8013.87
487.881	8273.96
488.085	7813.17
488.289	7991.34
488.493	7997.49
488.697	8020.02
488.901	8073.26
489.105	8011.82
489.309	8044.59
489.512	8247.34
489.716	8069.17
489.92	7950.39
490.124	7925.81
490.328	8292.4
490.531	7960.63
490.735	8112.17
490.939	8017.97
491.143	8177.71
491.346	8034.35
491.55	8185.9
491.754	8087.6
491.958	8179.76
492.161	8171.57
492.365	8308.78
492.569	8466.47
492.772	8437.8
492.976	8452.14
493.18	8433.71
493.383	8450.09
493.587	8554.54
493.79	8638.5
493.994	8495.15
494.197	8685.61
494.401	8794.15
494.605	8675.37
494.808	8992.8
495.012	8706.09
495.215	8808.48
495.419	8919.07
495.622	8966.18
495.825	9152.54
496.029	9056.29
496.232	9338.91
496.436	9177.12
496.639	9328.67
496.843	9365.53
497.046	9480.22
497.249	9570.33
497.453	9816.08
497.656	9703.45
497.859	9777.17
498.063	9881.62
498.266	10278.93
498.469	10070.03
498.673	10201.1
498.876	10360.84
499.079	10334.22
499.282	10577.93
499.485	10881.03
499.689	10749.96
499.892	10932.23
500.095	10809.35
500.298	11038.72
500.501	10891.27
500.705	11288.57
500.908	11661.3
501.111	11544.57
501.314	11653.11
501.517	11841.53
501.72	11792.37
501.923	11884.53
502.126	12087.28
502.329	12486.64
502.532	12308.46
502.735	12603.37
502.938	12754.92
503.141	12648.43
503.344	12879.85
503.547	13055.97
503.75	12976.1
503.953	13156.32
504.156	13328.35
504.359	13641.69
504.562	13715.42
504.765	13852.63
504.968	14090.2
505.17	14165.97
505.373	14118.87
505.576	14348.24
505.779	14430.16
505.982	14555.08
506.185	14677.96
506.387	14884.81
506.59	15065.03
506.793	15370.18
506.996	14999.49
507.198	15591.36
507.401	15452.09
507.604	15757.24
507.807	16256.95
508.009	16240.56
508.212	16269.23
508.415	16361.39
508.617	16738.22
508.82	16744.36
509.022	16656.3
509.225	17074.09
509.428	16910.25
509.63	17354.66
509.833	17256.36
510.035	17846.17
510.238	17684.38
510.44	17811.35
510.643	17803.16
510.845	18577.3
511.048	18282.39
511.25	18646.93
511.453	18763.66
511.655	19105.67
511.858	19281.8
512.06	19382.15
512.262	19462.02
512.465	19263.36
512.667	19840.89
512.87	19920.76
513.072	19980.15
513.274	20494.19
513.477	20397.94
513.679	20635.5
513.881	20707.18
514.084	20666.22
514.286	20893.55
514.488	21102.44
514.69	21567.33
514.893	21567.33
515.095	21309.29
515.297	22046.55
515.499	21940.06
515.701	22067.03
515.904	22454.1
516.106	22437.72
516.308	22667.09
516.51	23226.18
516.712	22632.27
516.914	23164.75
517.116	23574.34
517.318	23449.41
517.52	23945.02
517.722	23756.61
517.925	24092.48
518.127	24037.18
518.329	24418.1
518.531	24196.92
518.733	24567.6
518.935	24995.63
519.136	24905.52
519.338	25181.99
519.54	25161.51
519.742	25607.97
519.944	25476.9
520.146	25759.52
520.348	25949.98
520.55	26009.37
520.752	26472.21
520.954	26564.37
521.155	26474.26
521.357	26593.04
521.559	26726.16
521.761	27113.23
521.963	27074.32
522.164	27232.01
522.366	27494.15
522.568	27465.48
522.77	27907.84
522.971	28129.02
523.173	27559.69
523.375	28083.97
523.576	27965.18
523.778	28040.96
523.98	28323.58
524.181	28421.88
524.383	28817.14
524.584	28782.32
524.786	28716.79
524.988	29003.5
525.189	28962.54
525.391	28833.52
525.592	28786.42
525.794	29005.55
525.995	29234.92
526.197	29497.06
526.398	29202.16
526.6	29464.3
526.801	29441.77
527.003	29572.84
527.204	29687.53
527.406	29828.84
527.607	29978.34
527.808	30340.83
528.01	29318.89
528.211	29851.36
528.412	30250.72
528.614	30267.1
528.815	30193.37
529.016	30529.24
529.218	29875.94
529.419	30254.81
529.62	30443.23
529.822	30504.67
530.023	30164.7
530.224	30445.27
530.425	30351.07
530.626	30158.56
530.828	30336.73
531.029	30666.45
531.23	30451.42
531.431	30451.42
531.632	30363.36
531.833	30611.16
532.035	30455.51
532.236	30576.34
532.437	30611.16
532.638	30293.72
532.839	30416.6
533.04	30666.45
533.241	30361.31
533.442	30926.55
533.643	30668.5
533.844	30514.91
534.045	30959.31
534.246	30553.82
534.447	30668.5
534.648	30301.92
534.849	30623.45
535.05	30369.5
535.251	30775
535.451	30658.26
535.652	30809.81
535.853	30656.21
536.054	30514.91
536.255	30369.5
536.456	30197.47
536.657	30545.62
536.857	30457.56
537.058	30496.47
537.259	30269.15
537.46	30754.52
537.66	30265.05
537.861	30490.33
538.062	30332.64
538.263	30414.55
538.463	30058.21
538.664	30209.76
538.865	30611.16
539.065	30537.43
539.266	30650.07
539.466	30381.79
539.667	29943.52
539.868	30578.39
540.068	30254.81
540.269	30314.2
540.469	30240.48
540.67	30279.39
540.87	30152.41
541.071	30031.58
541.271	30584.54
541.472	30201.57
541.672	30406.36
541.873	29982.43
542.073	29832.93
542.274	30418.65
542.474	30002.91
542.675	29904.61
542.875	30504.67
543.075	30250.72
543.276	29611.75
543.476	30531.29
543.676	29957.86
543.877	30340.83
544.077	30297.82
544.277	29970.15
544.478	29904.61
544.678	30267.1
544.878	29843.17
545.078	30058.21
545.279	29673.19
545.479	29927.14
545.679	30052.06
545.879	29961.95
546.079	29994.72
546.28	30160.61
546.48	29413.1
546.68	30105.31
546.88	29972.19
547.08	29771.49
547.28	29519.59
547.48	29611.75
547.68	30199.52
547.88	29607.65
548.081	29976.29
548.281	29697.77
548.481	29406.95
548.681	30156.51
548.881	29951.71
549.081	29785.83
549.28	29693.67
549.48	29867.75
549.68	29869.79
549.88	29961.95
550.08	29556.46
550.28	29679.33
550.48	29554.41
550.68	29841.12
550.88	29648.61
551.08	29488.87
551.279	29611.75
551.479	29351.66
551.679	29544.17
551.879	29710.05
552.079	29830.88
552.278	29589.22
552.478	29419.24
552.678	29200.11
552.878	29961.95
553.077	29406.95
553.277	29751.01
553.477	29896.42
553.676	29556.46
553.876	29490.92
554.076	29495.02
554.275	29114.09
554.475	29423.34
554.674	29497.06
554.874	29275.88
555.074	29173.49
555.273	29241.07
555.473	29300.46
555.672	29124.33
555.872	29363.95
556.071	29341.42
556.271	29394.67
556.47	29419.24
556.67	28970.74
556.869	29130.48
557.068	29560.55
557.268	29011.7
557.467	29318.89
557.667	29277.93
557.866	29361.9
558.065	28927.73
558.265	28864.24
558.464	28825.33
558.663	29386.47
558.863	29116.14
559.062	29988.58
559.261	28686.07
559.461	29298.41
559.66	28856.05
559.859	29216.49
560.058	28876.53
560.258	29052.66
560.457	29239.02
560.656	28784.37
560.855	29124.33
561.054	29036.27
561.253	28784.37
561.453	28747.51
561.652	29193.97
561.851	29105.9
562.05	29138.67
562.249	28925.68
562.448	29146.86
562.647	29110
562.846	28722.93
563.045	28923.63
563.244	28229.37
563.443	29003.5
563.642	28534.52
563.841	28827.38
564.04	28653.3
564.239	29198.06
564.438	28669.69
564.637	28786.42
564.836	28714.74
565.035	28348.15
565.234	28919.54
565.432	28172.03
565.631	28522.23
565.83	28636.92
566.029	28489.46
566.228	28448.5
566.427	28696.31
566.625	28346.11
566.824	28288.76
567.023	28729.08
567.222	27930.37
567.42	28700.4
567.619	28571.38
567.818	28149.5
568.016	28352.25
568.215	28591.86
568.414	28069.63
568.612	28256
568.811	28202.75
569.01	28417.79
569.208	27956.99
569.407	27877.12
569.605	27954.94
569.804	28511.99
570.002	28149.5
570.201	28137.21
570.4	28055.29
570.598	27948.8
570.797	28043.01
570.995	28071.68
571.193	27744
571.392	27866.88
571.59	27787.01
571.789	27918.08
571.987	28010.24
572.186	28067.58
572.384	27635.46
572.582	27795.2
572.781	28194.56
572.979	27485.96
573.177	27834.11
573.376	27834.11
573.574	27477.77
573.772	27561.73
573.971	27811.59
574.169	27430.66
574.367	27336.46
574.565	27485.96
574.763	27283.21
574.962	27318.03
575.16	27035.41
575.358	27600.65
575.556	27199.24
575.754	27436.81
575.952	26957.58
576.151	27293.45
576.349	27010.83
576.547	27123.47
576.745	26912.53
576.943	27119.37
577.141	27506.44
577.339	27164.43
577.537	27066.13
577.735	26947.34
577.933	26797.84
578.131	27186.96
578.329	27193.1
578.527	26738.45
578.725	26857.23
578.923	26904.34
579.121	26736.4
579.319	27019.02
579.516	26541.85
579.714	26498.84
579.912	26894.1
580.11	26566.42
580.308	26836.75
580.506	26648.34
580.704	26101.53
580.901	26552.09
581.099	26713.88
581.297	26345.24
581.495	26234.65
581.692	26646.29
581.89	26267.42
582.088	26347.29
582.285	26316.57
582.483	26324.76
582.681	26136.35
582.878	26060.57
583.076	26158.88
583.274	26527.51
583.471	25878.3
583.669	26011.42
583.866	25806.62
584.064	26214.17
584.262	25921.31
584.459	25814.82
584.657	25741.09
584.854	25974.56
585.052	25562.92
585.249	25802.53
585.447	25986.85
585.644	25704.23
585.841	25616.16
586.039	25958.17
586.236	25704.23
586.434	25673.51
586.631	25370.41
586.828	25704.23
587.026	25650.98
587.223	25421.61
587.42	25272.11
587.618	25739.04
587.815	25331.5
588.012	25169.71
588.21	25300.78
588.407	25569.06
588.604	25460.52
588.801	25358.12
588.999	25407.27
589.196	25112.36
589.393	25130.8
589.59	25323.3
589.787	25431.85
589.984	25184.04
590.182	25212.71
590.379	25222.95
590.576	25016.11
590.773	25095.98
590.97	24837.94
591.167	24979.25
591.364	25169.71
591.561	24919.85
591.758	25034.54
591.955	25026.35
592.152	25245.48
592.349	24682.29
592.546	25106.22
592.743	25120.56
592.94	24624.95
593.137	24719.15
593.334	25030.44
593.531	24565.56
593.727	24930.09
593.924	24885.04
594.121	24680.24
594.318	24827.7
594.515	24782.64
594.712	25032.49
594.908	24702.77
595.105	24626.99
595.302	24260.41
595.499	24655.67
595.696	24702.77
595.892	24626.99
596.089	24784.69
596.286	24837.94
596.482	24891.18
596.679	24567.6
596.876	24909.61
597.072	24864.56
597.269	24745.78
597.466	24440.63
597.662	24606.52
597.859	24854.32
598.055	24682.29
598.252	24635.19
598.448	24672.05
598.645	24581.94
598.841	24561.46
599.038	24516.4
599.234	24678.19
599.431	24280.89
599.627	24461.11
599.824	24887.09
600.02	24594.23
600.217	24508.21
600.413	24706.87
600.609	24637.23
600.806	24317.75
601.002	25118.51
601.198	24520.5
601.395	24481.59
601.591	24682.29
601.787	24823.6
601.984	24469.3
602.18	24926
602.376	24622.9
602.572	24631.09
602.769	24864.56
602.965	24287.03
603.161	24727.35
603.357	24635.19
603.553	24452.92
603.75	24635.19
603.946	24717.11
604.142	25014.06
604.338	24739.63
604.534	24866.61
604.73	24602.42
604.926	24821.55
605.122	24792.88
605.318	24678.19
605.514	24688.43
605.71	24913.71
605.906	25001.77
606.102	25186.09
606.298	25040.68
606.494	25102.12
606.69	24923.95
606.886	25073.45
607.082	24932.14
607.278	25308.97
607.474	25102.12
607.67	25169.71
607.866	24731.44
608.062	25354.02
608.257	25333.54
608.453	25128.75
608.649	25126.7
608.845	25118.51
609.041	25575.2
609.236	25366.31
609.432	25263.91
609.628	25472.81
609.824	25718.56
610.019	25186.09
610.215	25562.92
610.411	25292.58
610.606	25560.87
610.802	25868.06
610.998	25757.47
611.193	25753.38
611.389	25675.55
611.584	25714.47
611.78	25501.48
611.976	25818.91
612.171	26076.96
612.367	26230.55
612.562	26056.48
612.758	25638.69
612.953	25947.93
613.149	26025.76
613.344	25882.4
613.539	26547.99
613.735	26191.64
613.93	26107.68
614.126	26167.07
614.321	26550.04
614.517	26423.06
614.712	26320.67
614.907	26195.74
615.103	26773.27
615.298	26654.48
615.493	26787.6
615.688	26464.02
615.884	26920.72
616.079	26380.06
616.274	26773.27
616.47	26771.22
616.665	27000.59
616.86	26670.87
617.055	27068.17
617.25	26574.61
617.445	27279.11
617.641	26781.46
617.836	26875.66
618.031	26627.86
618.226	26998.54
618.421	26930.96
618.616	27238.16
618.811	26654.48
619.006	26998.54
619.201	26664.72
619.396	26844.95
619.591	26654.48
619.786	26969.87
619.981	26560.28
620.176	26879.76
620.371	26451.74
620.566	26785.55
620.761	26816.27
620.956	26689.3
621.151	26517.27
621.346	26949.39
621.541	26355.48
621.735	26617.62
621.93	26285.85
622.125	26443.54
622.32	26169.12
622.515	26081.05
622.709	26148.64
622.904	26341.14
623.099	26031.9
623.294	26148.64
623.488	25884.45
623.683	25962.27
623.878	25861.92
624.072	26056.48
624.267	26214.17
624.462	25519.91
624.656	25579.3
624.851	25878.3
625.046	25403.18
625.24	25552.68
625.435	25333.54
625.629	25345.83
625.824	25270.06
626.018	25055.02
626.213	24477.49
626.407	25151.27
626.602	24708.91
626.796	24866.61
626.991	25016.11
627.185	24794.93
627.38	24563.51
627.574	24559.41
627.768	24475.45
627.963	24422.2
628.157	24289.08
628.352	24667.95
628.546	24278.84
628.74	24231.74
628.935	23918.4
629.129	24307.51
629.323	24098.62
629.517	23846.72
629.712	23480.13
629.906	23502.66
630.1	23488.32
630.294	23592.77
630.489	23449.41
630.683	23799.62
630.877	23086.92
631.071	23131.98
631.265	23420.74
631.459	23136.07
631.653	22925.13
631.848	22980.43
632.042	22880.08
632.236	22679.38
632.43	22706
632.624	22630.23
632.818	22572.88
633.012	22159.19
633.206	22259.54
633.4	22507.35
633.594	21964.64
633.788	22153.05
633.982	22144.86
634.176	22212.44
634.369	21802.85
634.563	21878.62
634.757	21503.84
634.951	21925.72
635.145	21739.36
635.339	21530.47
635.533	21464.93
635.726	21489.51
635.92	21313.38
636.114	21100.39
636.308	20817.77
636.501	20989.8
636.695	20883.31
636.889	20473.71
637.083	20744.05
637.276	20459.38
637.47	20514.67
637.664	20520.82
637.857	20209.53
638.051	20416.37
638.244	19992.44
638.438	20133.75
638.632	19955.58
638.825	19787.64
639.019	20094.84
639.212	19763.07
639.406	19556.22
639.599	19570.56
639.793	19505.03
639.986	19548.03
640.18	19232.65
640.373	19318.66
640.567	19038.09
640.76	19050.38
640.954	19023.75
641.147	18730.89
641.34	18651.02
641.534	18728.84
641.727	18737.04
641.92	18751.37
642.114	18468.75
642.307	18186.13
642.5	18206.61
642.694	17772.44
642.887	17954.71
643.08	17954.71
643.273	17866.65
643.467	17774.49
643.66	17274.79
643.853	17457.06
644.046	17268.64
644.239	17510.3
644.432	17127.33
644.626	17037.22
644.819	17121.19
645.012	17110.95
645.205	17172.39
645.398	16834.47
645.591	16551.85
645.784	16652.2
645.977	16097.21
646.17	16279.47
646.363	16136.12
646.556	16031.67
646.749	16222.13
646.942	16164.79
647.135	15964.09
647.328	15798.2
647.521	15734.71
647.714	15456.19
647.907	15554.49
648.099	15280.07
648.292	15546.3
648.485	15611.84
648.678	15198.15
648.871	15087.56
649.064	15267.78
649.256	15226.82
649.449	15034.31
649.642	14923.72
649.835	14702.54
650.027	14800.84
650.22	14684.11
650.413	14407.63
650.605	14456.78
650.798	14421.97
650.991	14260.18
651.183	14305.23
651.376	13985.75
651.568	14059.48
651.761	13774.81
651.954	13887.45
652.146	13856.73
652.339	13821.91
652.531	13670.36
652.724	13694.94
652.916	13414.37
653.109	13430.75
653.301	13563.87
653.494	13496.28
653.686	13025.25
653.879	13397.98
654.071	13166.56
654.263	12673
654.456	13055.97
654.648	13004.77
654.84	12589.03
655.033	12660.71
655.225	12644.33
655.417	12580.84
655.61	12736.49
655.802	12552.17
655.994	12466.16
656.186	12320.75
656.379	12208.11
656.571	12036.08
656.763	11986.93
656.955	11958.26
657.148	11978.74
657.34	11970.55
657.532	11671.54
657.724	11741.18
657.916	11655.16
658.108	11712.5
658.3	11749.37
658.492	11532.28
658.684	11208.7
658.876	11261.95
659.068	11069.44
659.26	11143.17
659.452	11014.15
659.644	11124.74
659.836	10797.06
660.028	11075.59
660.22	10663.94
660.412	10676.23
660.604	10743.81
660.796	10598.41
660.988	10780.68
661.18	10526.73
661.372	10297.36
661.563	10233.87
661.755	10039.31
661.947	10219.53
662.139	10182.67
662.331	10125.33
662.522	10029.07
662.714	9955.35
662.906	9701.4
663.097	9814.04
663.289	9703.45
663.481	9723.93
663.673	9572.38
663.864	9625.62
664.056	9297.95
664.247	9308.19
664.439	9369.63
664.631	9158.69
664.822	9179.17
665.014	9164.83
665.205	9166.88
665.397	9052.19
665.588	9338.91
665.78	8953.89
665.971	8849.44
666.163	8710.18
666.354	8902.69
666.546	8726.57
666.737	8763.43
666.929	8638.5
667.12	8673.32
667.311	8527.91
667.503	8685.61
667.694	8587.3
667.885	8554.54
668.077	8630.31
668.268	8304.68
668.459	8437.8
668.651	8407.08
668.842	8237.1
669.033	8044.59
669.224	8046.64
669.416	8206.38
669.607	7985.2
669.798	7899.19
669.989	8017.97
670.18	7977.01
670.371	7856.18
670.563	7735.35
670.754	7829.56
670.945	7684.15
671.136	7764.02
671.327	7632.95
671.518	7852.08
671.709	7600.18
671.9	7579.7
672.091	7680.05
672.282	7614.52
672.473	7542.84
672.664	7602.23
672.855	7329.85
673.046	7424.06
673.237	7295.04
673.428	7395.39
673.619	7383.1
673.809	7219.26
674	7237.69
674.191	7260.22
674.382	7120.96
674.573	7196.73
674.764	7145.53
674.954	7155.77
675.145	7225.4
675.336	7000.13
675.527	6930.5
675.717	7043.14
675.908	6752.32
676.099	6926.4
676.289	6926.4
676.48	6836.29
676.671	6971.46
676.861	6852.67
677.052	6852.67
677.243	6774.85
677.433	6789.19
677.624	6674.5
677.814	6756.42
678.005	6697.03
678.195	6754.37
678.386	6531.14
678.576	6664.26
678.767	6664.26
678.957	6475.85
679.148	6619.21
679.338	6694.98
679.529	6412.36
679.719	6471.75
679.909	6578.25
680.1	6496.33
680.29	6553.67
680.481	6492.23
680.671	6518.86
680.861	6535.24
681.052	6676.55
681.242	6383.69
681.432	6432.84
681.622	6338.63
681.813	6393.93
682.003	6416.46
682.193	6422.6
682.383	6215.76
682.573	6367.31
682.764	6434.89
682.954	6180.94
683.144	6502.47
683.334	6127.69
683.524	6314.06
683.714	6385.74
683.904	6209.61
684.094	6264.91
684.284	6398.03
684.474	6264.91
684.664	6271.05
684.854	6215.76
685.044	6232.14
685.234	6135.89
685.424	6152.27
685.614	6271.05
685.804	6090.83
685.994	6191.18
686.184	6117.45
686.374	6146.12
686.564	6154.32
686.753	6062.16
686.943	6049.87
687.133	6035.53
687.323	6144.08
687.513	6043.73
687.702	6096.97
687.892	5955.66
688.082	6002.77
688.272	6135.89
688.461	6019.15
688.651	5998.67
688.841	6064.21
689.03	5955.66
689.22	5871.7
689.41	6101.07
689.599	5808.21
689.789	5840.98
689.979	5994.58
690.168	5879.89
690.358	5826.64
690.547	5763.15
690.737	5867.6
690.926	5843.03
691.116	5720.15
691.305	5849.17
691.495	5668.95
691.684	5705.81
691.874	5648.47
692.063	5750.87
692.252	5589.08
692.442	5654.61
692.631	5546.07
692.82	5666.9
693.01	5394.52
693.199	5671
693.388	5714
693.578	5660.76
693.767	5630.04
693.956	5732.44
694.146	5658.71
694.335	5652.56
694.524	5496.92
694.713	5611.61
694.902	5474.39
695.092	5593.17
695.281	5433.43
695.47	5804.11
695.659	5472.34
695.848	5546.07
696.037	5644.37
696.226	5568.6
696.415	5638.23
696.604	5607.51
696.793	5404.76
696.982	5621.84
697.171	5771.35
697.36	5535.83
697.549	5437.53
697.738	5521.49
697.927	5564.5
698.116	5576.79
698.305	5570.65
698.494	5537.88
698.683	5376.09
698.872	5668.95
699.061	5505.11
699.25	5587.03
699.438	5517.4
699.627	5691.48
699.816	5644.37
700.005	5574.74
700.193	5386.33
700.382	5658.71
700.571	5431.38
700.76	5523.54
700.948	5658.71
701.137	5623.89
701.326	5685.33
701.514	5521.49
701.703	5546.07
701.892	5574.74
702.08	5757.01
702.269	5412.95
702.457	5443.67
702.646	5498.97
702.834	5351.51
703.023	5435.48
703.212	5458.01
703.4	5496.92
703.589	5476.44
703.777	5441.62
703.965	5468.25
704.154	5408.86
704.342	5425.24
704.531	5472.34
704.719	5181.53
704.907	5431.38
705.096	5234.78
705.284	5337.18
705.472	5306.46
705.661	5384.28
705.849	5384.28
706.037	5261.4
706.226	5331.03
706.414	5415
706.602	5259.35
706.79	5455.96
706.979	5447.77
707.167	5283.93
707.355	5212.25
707.543	5333.08
707.731	5402.71
707.919	5374.04
708.107	5154.91
708.296	5288.03
708.484	5021.79
708.672	5281.88
708.86	5316.7
709.048	5099.61
709.236	5187.68
709.424	5288.03
709.612	5150.81
709.8	5193.82
709.988	5167.2
710.176	5328.99
710.364	5093.47
710.551	5113.95
710.739	5085.28
710.927	5134.43
711.115	5212.25
711.303	5097.56
711.491	5077.09
711.679	5072.99
711.866	5042.27
712.054	5242.97
712.242	4876.38
712.43	5046.37
712.617	4980.83
712.805	5146.72
712.993	5064.8
713.181	4941.92
713.368	5032.03
713.556	5072.99
713.744	4855.9
713.931	5007.45
714.119	4950.11
714.306	4896.86
714.494	4769.89
714.682	4960.35
714.869	4923.49
715.057	4964.45
715.244	4919.39
715.432	4937.82
715.619	4808.8
715.807	4849.76
715.994	4819.04
716.182	4704.35
716.369	4896.86
716.556	5048.41
716.744	4696.16
716.931	4667.49
717.119	4741.22
717.306	4872.29
717.493	4722.79
717.681	4767.84
717.868	4628.58
718.055	4712.55
718.242	4616.29
718.43	4687.97
718.617	4548.71
718.804	4784.23
718.991	4642.92
719.179	4649.06
719.366	4481.13
719.553	4794.47
719.74	4472.93
719.927	4604
720.114	4485.22
720.301	4567.14
720.488	4419.69
720.676	4587.62
720.863	4466.79
721.05	4567.14
721.237	4665.44
721.424	4477.03
721.611	4515.94
721.798	4421.74
721.985	4526.18
722.172	4284.52
722.358	4507.75
722.545	4393.06
722.732	4272.23
722.919	4456.55
723.106	4462.69
723.293	4479.08
723.48	4382.82
723.667	4358.25
723.853	4290.67
724.04	4421.74
724.227	4335.72
724.414	4329.58
724.6	4384.87
724.787	4296.81
724.974	4483.17
725.161	4358.25
725.347	4253.8
725.534	4249.71
725.72	4206.7
725.907	4335.72
726.094	4257.9
726.28	4206.7
726.467	4284.52
726.653	4024.43
726.84	4194.41
727.027	4268.14
727.213	4212.84
727.4	4147.31
727.586	4116.59
727.773	4075.63
727.959	4046.96
728.145	4128.88
728.332	4018.29
728.518	4069.48
728.705	4089.96
728.891	4030.57
729.077	4038.77
729.264	3907.7
729.45	4010.09
729.636	4147.31
729.823	3870.83
730.009	4001.9
730.195	3993.71
730.382	3987.57
730.568	3891.31
730.754	3797.1
730.94	3971.18
731.126	3971.18
731.313	3958.89
731.499	3940.46
731.685	3946.61
731.871	3901.55
732.057	3897.46
732.243	3928.17
732.429	3825.78
732.615	3952.75
732.801	3879.02
732.987	3848.3
733.173	3764.34
733.359	3733.62
733.545	3741.81
733.731	3690.61
733.917	3797.1
734.103	3717.23
734.289	3795.06
734.475	3723.38
734.661	3827.82
734.847	3692.66
735.033	3723.38
735.219	3842.16
735.404	3682.42
735.59	3586.16
735.776	3672.18
735.962	3512.44
736.148	3672.18
736.333	3709.04
736.519	3514.49
736.705	3590.26
736.89	3635.32
737.076	3487.86
737.262	3481.72
737.447	3635.32
737.633	3477.62
737.819	3434.61
738.004	3451
738.19	3508.34
738.375	3336.31
738.561	3494.01
738.747	3391.61
738.932	3338.36
739.118	3420.28
739.303	3379.32
739.489	3500.15
739.674	3274.87
739.859	3264.63
740.045	3381.37
740.23	3461.24
740.416	3223.67
740.601	3266.68
740.786	3180.67
740.972	3254.39
741.157	3270.78
741.342	3088.51
741.528	3229.82
741.713	3356.79
741.898	3078.27
742.084	3121.28
742.269	3147.9
742.454	3156.09
742.639	3129.47
742.824	3020.92
743.01	3195
743.195	3119.23
743.38	3172.47
743.565	3039.36
743.75	3035.26
743.935	2910.33
744.12	3006.59
744.305	2959.49
744.49	2939.01
744.675	2988.16
744.86	2910.33
745.045	2959.49
745.23	2916.48
745.415	2883.71
745.6	2928.77
745.785	2732.16
745.97	2842.75
746.155	2846.85
746.34	2836.61
746.525	2838.66
746.71	2910.33
746.895	2726.02
747.079	2721.92
747.264	2715.78
747.449	2779.26
747.634	2599.04
747.819	2646.15
748.003	2601.09
748.188	2664.58
748.373	2672.77
748.557	2680.96
748.742	2627.71
748.927	2525.32
749.111	2562.18
749.296	2664.58
749.481	2547.84
749.665	2447.49
749.85	2515.08
750.034	2558.08
750.219	2523.27
750.404	2441.35
750.588	2367.62
750.773	2478.21
750.957	2375.81
751.141	2474.12
751.326	2408.58
751.51	2381.96
751.695	2222.22
751.879	2373.77
752.064	2381.96
752.248	2267.27
752.432	2377.86
752.617	2320.52
752.801	2261.13
752.985	2123.91
753.17	2316.42
753.354	2205.83
753.538	2080.91
753.722	2222.22
753.907	2123.91
754.091	2046.09
754.275	2175.11
754.459	2056.33
754.643	2105.48
754.828	2121.87
755.012	2072.72
755.196	2023.56
755.38	2070.67
755.564	2009.23
755.748	2054.28
755.932	2103.43
756.116	2048.14
756.3	1937.55
756.484	2013.32
756.668	1912.97
756.852	1910.93
757.036	1874.06
757.22	1798.29
757.404	1824.91
757.588	1886.35
757.772	1841.29
757.956	1822.86
758.14	1925.26
758.323	1912.97
758.507	1876.11
758.691	1763.47
758.875	1826.96
759.059	1687.7
759.242	1726.61
759.426	1757.33
759.61	1728.66
759.794	1677.46
759.977	1708.18
760.161	1845.39
760.345	1687.7
760.528	1675.41
760.712	1693.84
760.895	1757.33
761.079	1730.7
761.263	1689.74
761.446	1583.25
761.63	1708.18
761.813	1656.98
761.997	1562.77
762.18	1558.67
762.364	1519.76
762.547	1544.34
762.731	1656.98
762.914	1532.05
763.098	1618.07
763.281	1523.86
763.464	1562.77
763.648	1593.49
763.831	1482.9
764.015	1552.53
764.198	1530
764.381	1573.01
764.564	1503.38
764.748	1515.67
764.931	1478.8
765.114	1544.34
765.297	1548.44
765.481	1450.13
765.664	1429.65
765.847	1419.41
766.03	1515.67
766.213	1474.71
766.397	1468.56
766.58	1398.93
766.763	1491.09
766.946	1392.79
767.129	1398.93
767.312	1366.17
767.495	1431.7
767.678	1437.84
767.861	1403.03
768.044	1419.41
768.227	1480.85
768.41	1384.6
768.593	1466.52
768.776	1325.21
768.959	1327.25
769.142	1374.36
769.324	1368.21
769.507	1403.03
769.69	1337.49
769.873	1376.41
770.056	1343.64
770.239	1247.38
770.421	1364.12
770.604	1274.01
770.787	1376.41
770.97	1290.39
771.152	1306.77
771.335	1237.14
771.518	1183.9
771.7	1378.45
771.883	1271.96
772.066	1292.44
772.248	1364.12
772.431	1327.25
772.613	1259.67
772.796	1224.86
772.978	1226.9
773.161	1312.92
773.343	1306.77
773.526	1183.9
773.708	1161.37
773.891	1171.61
774.073	1165.46
774.256	1161.37
774.438	1339.54
774.621	1171.61
774.803	1210.52
774.985	1220.76
775.168	1116.31
775.35	1108.12
775.532	1228.95
775.715	1065.11
775.897	1161.37
776.079	1093.79
776.261	1093.79
776.444	1108.12
776.626	1009.82
776.808	1030.3
776.99	1040.54
777.173	1134.75
777.355	1024.16
777.537	1099.93
777.719	1015.96
777.901	1063.07
778.083	989.34
778.265	981.15
778.447	1071.26
778.629	983.2
778.811	940.19
778.993	919.71
779.175	962.72
779.357	925.85
779.539	905.37
779.721	1020.06
779.903	1013.92
780.085	952.48
780.267	882.85
780.449	819.36
780.631	917.66
780.812	940.19
780.994	858.27
781.176	886.94
781.358	966.81
781.54	979.1
781.721	921.76
781.903	964.76
782.085	794.78
782.267	983.2
782.448	886.94
782.63	762.02
782.812	888.99
782.993	798.88
783.175	876.7
783.357	782.49
783.538	774.3
783.72	841.89
783.901	749.73
784.083	794.78
784.264	741.54
784.446	682.14
784.627	712.86
784.809	729.25
784.99	784.54
785.172	897.18
785.353	645.28
785.535	745.63
785.716	669.86
785.897	684.19
786.079	708.77
786.26	743.58
786.441	778.4
786.623	667.81
786.804	780.45
786.985	739.49
787.167	682.14
787.348	637.09
787.529	759.97
787.71	796.83
787.891	647.33
788.073	600.23
788.254	624.8
788.435	673.95
788.616	659.62
788.797	557.22
788.978	630.95
789.159	565.41
789.34	563.36
789.522	696.48
789.703	598.18
789.884	626.85
790.065	606.37
790.246	635.04
790.427	651.42
790.607	612.51
790.788	655.52
790.969	585.89
791.15	641.18
791.331	561.31
791.512	491.68
791.693	438.44
791.874	530.59
792.054	569.51
792.235	516.26
792.416	536.74
792.597	481.44
792.778	585.89
792.958	520.35
793.139	508.07
793.32	493.73
793.5	446.63
793.681	514.21
793.862	458.92
794.042	446.63
794.223	469.16
794.404	510.11
794.584	458.92
794.765	456.87
794.945	432.29
795.126	489.64
795.306	594.08
795.487	430.24
795.667	426.15
795.848	463.01
796.028	475.3
796.209	465.06
796.389	467.11
796.57	538.79
796.75	473.25
796.93	411.81
797.111	364.71
797.291	317.61
797.471	393.38
797.652	483.49
797.832	452.77
798.012	506.02
798.192	415.91
798.373	413.86
798.553	454.82
798.733	446.63
798.913	377
799.093	325.8
799.274	473.25
799.454	420
799.634	438.44
799.814	452.77
799.994	469.16
800.174	426.15
800.354	381.09
800.534	299.17
800.714	397.48
800.894	354.47
801.074	327.85
801.254	290.98
801.434	411.81
801.614	387.24
801.794	336.04
801.974	1271.96
802.154	276.65
802.334	377
802.514	293.03
802.693	358.57
802.873	346.28
803.053	401.57
803.233	338.09
803.413	338.09
803.592	430.24
803.772	299.17
803.952	356.52
804.131	364.71
804.311	315.56
804.491	362.66
804.67	311.46
804.85	288.93
805.03	327.85
805.209	356.52
805.389	297.13
805.568	329.89
805.748	233.64
805.928	319.65
806.107	391.33
806.287	323.75
806.466	368.81
806.646	297.13
806.825	327.85
807.004	288.93
807.184	286.89
807.363	342.18
807.543	368.81
807.722	252.07
807.901	407.72
808.081	303.27
808.26	174.25
808.439	342.18
808.619	372.9
808.798	258.21
808.977	219.3
809.156	393.38
809.336	309.41
809.515	315.56
809.694	278.69
809.873	223.4
810.052	288.93
810.231	307.37
810.411	245.93
810.59	299.17
810.769	274.6
810.948	272.55
811.127	260.26
811.306	178.34
811.485	141.48
811.664	368.81
811.843	340.13
812.022	227.5
812.201	264.36
812.38	274.6
812.559	258.21
812.737	223.4
812.916	168.1
813.095	241.83
813.274	241.83
813.453	243.88
813.632	266.41
813.811	329.89
813.989	213.16
814.168	290.98
814.347	235.69
814.526	241.83
814.704	301.22
814.883	360.61
815.062	184.49
815.24	319.65
815.419	272.55
815.598	174.25
815.776	258.21
815.955	186.54
816.133	149.67
816.312	221.35
816.49	161.96
816.669	229.54
816.847	188.58
817.026	225.45
817.204	231.59
817.383	209.06
817.561	133.29
817.74	221.35
817.918	188.58
818.097	141.48
818.275	227.5
818.453	290.98
818.632	225.45
818.81	178.34
818.988	209.06
819.167	202.92
819.345	227.5
819.523	161.96
819.701	155.82
819.879	252.07
820.058	209.06
820.236	299.17
820.414	182.44
820.592	137.38
820.77	227.5
820.948	121
821.127	114.86
821.305	170.15
821.483	121
821.661	188.58
821.839	198.82
822.017	135.34
822.195	223.4
822.373	161.96
822.551	180.39
822.729	200.87
822.907	133.29
823.085	198.82
823.262	190.63
823.44	164.01
823.618	57.51
823.796	200.87
823.974	223.4
824.152	145.58
824.329	196.78
824.507	157.86
824.685	176.3
824.863	215.21
825.04	114.86
825.218	196.78
825.396	186.54
825.574	135.34
825.751	166.06
825.929	235.69
826.107	75.95
826.284	125.1
826.462	153.77
826.639	151.72
826.817	18.6
826.994	100.52
827.172	65.71
827.349	280.74
827.527	233.64
827.704	209.06
827.882	188.58
828.059	200.87
828.237	108.71
828.414	141.48
828.591	73.9
828.769	104.62
828.946	118.95
829.124	241.83
829.301	219.3
829.478	84.14
829.655	202.92
829.833	67.75
830.01	82.09
830.187	200.87
830.364	69.8
830.542	90.28
830.719	223.4
830.896	147.62
831.073	149.67
831.25	131.24
831.427	127.14
831.604	209.06
831.782	139.43
831.959	153.77
832.136	123.05
832.313	127.14
832.49	57.51
832.667	92.33
832.844	121
833.021	198.82
833.198	80.04
833.374	143.53
833.551	141.48
833.728	77.99
833.905	170.15
834.082	45.23
834.259	174.25
834.436	159.91
834.612	22.7
834.789	92.33
834.966	104.62
835.143	92.33
835.319	61.61
835.496	61.61
835.673	145.58
835.85	151.72
836.026	65.71
836.203	141.48
836.38	77.99
836.556	166.06
836.733	55.47
836.909	149.67
837.086	63.66
837.262	141.48
837.439	178.34
837.616	75.95
837.792	86.19
837.968	98.47
838.145	98.47
838.321	98.47
838.498	155.82
838.674	114.86
838.851	147.62
839.027	57.51
839.203	104.62
839.38	82.09
839.556	75.95
839.732	100.52
839.909	61.61
840.085	161.96
840.261	110.76
840.437	145.58
840.614	88.23
840.79	114.86
840.966	123.05
841.142	65.71
841.318	88.23
841.494	112.81
841.671	51.37
841.847	20.65
842.023	121
842.199	63.66
842.375	94.38
842.551	69.8
842.727	4.27
842.903	145.58
843.079	55.47
843.255	137.38
843.431	104.62
843.607	98.47
843.783	30.89
843.959	127.14
844.134	-14.17
844.31	131.24
844.486	14.51
844.662	73.9
844.838	65.71
845.013	141.48
845.189	61.61
845.365	88.23
845.541	73.9
845.716	75.95
845.892	90.28
846.068	37.03
846.244	55.47
846.419	137.38
846.595	65.71
846.77	86.19
846.946	28.84
847.122	84.14
847.297	12.46
847.473	125.1
847.648	57.51
847.824	69.8
847.999	41.13
848.175	63.66
848.35	127.14
848.526	45.23
848.701	161.96
848.876	125.1
849.052	88.23
849.227	118.95
849.403	53.42
849.578	-3.93
849.753	53.42
849.929	92.33
850.104	34.99
850.279	129.19
850.454	59.56
850.63	94.38
850.805	43.18
850.98	71.85
851.155	118.95
851.33	30.89
851.505	30.89
851.681	127.14
851.856	-1.88
852.031	141.48
852.206	53.42
852.381	-10.07
852.556	80.04
852.731	61.61
852.906	59.56
853.081	104.62
853.256	94.38
853.431	6.31
853.606	51.37
853.781	20.65
853.956	-8.02
854.131	161.96
854.305	22.7
854.48	59.56
854.655	-20.31
854.83	-40.79
855.005	-1.88
855.18	-5.97
855.354	57.51
855.529	39.08
855.704	-8.02
855.879	108.71
856.053	-26.45
856.228	86.19
856.403	8.36
856.577	108.71
856.752	10.41
856.926	20.65
857.101	80.04
857.276	49.32
857.45	47.27
857.625	45.23
857.799	51.37
857.974	71.85
858.148	-14.17
858.323	88.23
858.497	0.17
858.672	57.51
858.846	102.57
859.02	20.65
859.195	20.65
859.369	24.75
859.543	18.6
859.718	75.95
859.892	75.95
860.066	32.94
860.241	28.84
860.415	-12.12
860.589	45.23
860.763	59.56
860.938	69.8
861.112	39.08
861.286	6.31
861.46	-5.97
861.634	24.75
861.808	92.33
861.982	20.65
862.157	-18.26
862.331	24.75
862.505	2.22
862.679	-22.36
862.853	-34.64
863.027	8.36
863.201	71.85
863.375	-32.6
863.549	22.7
863.722	49.32
863.896	104.62
864.07	26.79
864.244	63.66
864.418	59.56
864.592	39.08
864.766	67.75
864.939	-3.93
865.113	-38.74
865.287	37.03
865.461	4.27
865.634	65.71
865.808	18.6
865.982	65.71
866.156	96.43
866.329	-46.93
866.503	12.46
866.676	49.32
866.85	116.9
867.024	-28.5
867.197	94.38
867.371	-22.36
867.544	45.23
867.718	-65.36
867.891	112.81
868.065	-14.17
868.238	16.55
868.412	108.71
868.585	22.7
868.759	-5.97
868.932	98.47
869.105	-8.02
869.279	26.79
869.452	14.51
869.625	-28.5
869.799	12.46
869.972	37.03
870.145	39.08
870.319	30.89
870.492	63.66
870.665	-57.17
870.838	-30.55
871.011	-36.69
871.185	-32.6
871.358	69.8
871.531	43.18
871.704	22.7
871.877	26.79
872.05	24.75
872.223	32.94
872.396	90.28
872.569	69.8
872.742	-12.12
872.915	16.55
873.088	-32.6
873.261	-24.4
873.434	73.9
873.607	18.6
873.78	18.6
873.953	20.65
874.126	0.17
874.299	28.84
874.471	61.61
874.644	20.65
874.817	82.09
874.99	86.19
875.163	41.13
875.335	53.42
875.508	32.94
875.681	55.47
875.853	-10.07
876.026	77.99
876.199	82.09
876.371	49.32
876.544	-73.56
876.717	-38.74
876.889	-14.17
877.062	43.18
877.234	61.61
877.407	39.08
877.579	43.18
877.752	-24.4
877.924	82.09
878.097	49.32
878.269	88.23
878.442	61.61
878.614	55.47
878.786	-8.02
878.959	86.19
879.131	75.95
879.303	-83.8
879.476	4.27
879.648	59.56
879.82	51.37
879.993	8.36
880.165	61.61
880.337	-61.27
880.509	-28.5
880.681	22.7
880.854	-53.08
881.026	82.09
881.198	37.03
881.37	49.32
881.542	45.23
881.714	10.41
881.886	26.79
882.058	57.51
882.23	41.13
882.402	-18.26
882.574	69.8
882.746	30.89
882.918	-81.75
883.09	41.13
883.262	8.36
883.434	88.23
883.606	-65.36
883.778	-10.07
883.95	106.67
884.122	16.55
884.293	67.75
884.465	-14.17
884.637	37.03
884.809	14.51
884.98	-10.07
885.152	71.85
885.324	-32.6
885.496	-71.51
885.667	-5.97
885.839	0.17
886.011	145.58
886.182	39.08
886.354	110.76
886.525	37.03
886.697	26.79
886.869	-26.45
887.04	28.84
887.212	63.66
887.383	55.47
887.555	2.22
887.726	32.94
887.897	-38.74
888.069	24.75
888.24	51.37
888.412	-30.55
888.583	-1.88
888.754	0.17
888.926	-53.08
889.097	37.03
889.268	-16.21
889.44	71.85
889.611	-3.93
889.782	84.14
889.953	-22.36
890.125	20.65
890.296	-32.6
890.467	-42.84
890.638	41.13
890.809	-53.08
890.98	14.51
891.151	6.31
891.323	57.51
891.494	80.04
891.665	18.6
891.836	30.89
892.007	-32.6
892.178	-32.6
892.349	30.89
892.52	51.37
892.691	2.22
892.862	-30.55
893.032	-34.64
893.203	47.27
893.374	-22.36
893.545	65.71
893.716	-5.97
893.887	100.52
894.057	43.18
894.228	10.41
894.399	-16.21
894.57	20.65
894.74	10.41
894.911	88.23
895.082	30.89
895.253	-63.32
895.423	-8.02
895.594	55.47
895.764	30.89
895.935	22.7
896.106	43.18
896.276	8.36
896.447	-42.84
896.617	2.22
896.788	51.37
896.958	32.94
897.129	47.27
897.299	-59.22
897.47	114.86
897.64	14.51
897.81	-1.88
897.981	-46.93
898.151	-30.55
898.322	69.8
898.492	-5.97
898.662	18.6
898.832	63.66
899.003	12.46
899.173	116.9
899.343	-3.93
899.513	-32.6
