Data from USB4F104151__71__12-12-39-903.txt Node

Date: Fri Mar 14 12:12:39 EDT 2025
User: louis
Spectrometer: USB4F10415
Trigger mode: 4
Integration Time (sec): 5.000000E-2
Scans to average: 1
Electric dark correction enabled: true
Nonlinearity correction enabled: false
Boxcar width: 0
XAxis mode: Wavelengths
Number of Pixels in Spectrum: 3648
>>>>>Begin Spectral Data<<<<<
178.204	-190.29
178.424	-190.29
178.644	-190.29
178.864	-155.47
179.084	-235.35
179.304	6.31
179.524	26.79
179.744	-8.02
179.964	41.13
180.184	41.13
180.404	2.22
180.624	-20.31
180.844	-26.45
181.064	16.55
181.283	10.41
181.503	-98.13
181.723	8.36
181.943	-85.84
182.163	116.9
182.383	-3.93
182.602	59.56
182.822	65.71
183.042	55.47
183.262	12.46
183.482	-20.31
183.701	77.99
183.921	57.51
184.141	20.65
184.361	98.47
184.58	53.42
184.8	90.28
185.02	18.6
185.239	155.82
185.459	59.56
185.679	0.17
185.898	-46.93
186.118	10.41
186.338	22.7
186.557	-18.26
186.777	30.89
186.997	-26.45
187.216	-16.21
187.436	84.14
187.655	20.65
187.875	69.8
188.095	51.37
188.314	121
188.534	112.81
188.753	49.32
188.973	94.38
189.192	77.99
189.412	-1.88
189.631	20.65
189.851	92.33
190.07	147.62
190.29	28.84
190.509	0.17
190.729	37.03
190.948	125.1
191.168	192.68
191.387	41.13
191.607	-18.26
191.826	82.09
192.045	43.18
192.265	16.55
192.484	-8.02
192.704	28.84
192.923	-42.84
193.142	145.58
193.362	65.71
193.581	49.32
193.8	82.09
194.02	114.86
194.239	-32.6
194.458	10.41
194.678	14.51
194.897	61.61
195.116	6.31
195.335	55.47
195.555	32.94
195.774	12.46
195.993	-10.07
196.212	39.08
196.432	12.46
196.651	8.36
196.87	16.55
197.089	135.34
197.308	71.85
197.528	77.99
197.747	-30.55
197.966	22.7
198.185	65.71
198.404	0.17
198.623	61.61
198.842	92.33
199.062	90.28
199.281	75.95
199.5	55.47
199.719	22.7
199.938	71.85
200.157	123.05
200.376	-24.4
200.595	153.77
200.814	39.08
201.033	0.17
201.252	133.29
201.471	18.6
201.69	37.03
201.909	94.38
202.128	-5.97
202.347	106.67
202.566	28.84
202.785	39.08
203.004	0.17
203.223	127.14
203.442	92.33
203.661	-48.98
203.879	123.05
204.098	43.18
204.317	-30.55
204.536	39.08
204.755	116.9
204.974	94.38
205.193	77.99
205.411	59.56
205.63	65.71
205.849	2.22
206.068	100.52
206.287	39.08
206.505	98.47
206.724	108.71
206.943	-8.02
207.162	0.17
207.381	34.99
207.599	14.51
207.818	-8.02
208.037	6.31
208.255	-3.93
208.474	65.71
208.693	8.36
208.911	-5.97
209.13	20.65
209.349	47.27
209.567	34.99
209.786	71.85
210.005	84.14
210.223	-8.02
210.442	22.7
210.661	28.84
210.879	55.47
211.098	-5.97
211.316	39.08
211.535	41.13
211.753	75.95
211.972	16.55
212.191	28.84
212.409	-1.88
212.628	12.46
212.846	16.55
213.065	-8.02
213.283	94.38
213.502	34.99
213.72	49.32
213.938	-40.79
214.157	12.46
214.375	90.28
214.594	10.41
214.812	0.17
215.031	47.27
215.249	-57.17
215.467	10.41
215.686	45.23
215.904	123.05
216.122	67.75
216.341	43.18
216.559	16.55
216.778	45.23
216.996	14.51
217.214	12.46
217.432	-24.4
217.651	-18.26
217.869	104.62
218.087	102.57
218.306	18.6
218.524	65.71
218.742	24.75
218.96	84.14
219.179	43.18
219.397	-42.84
219.615	96.43
219.833	8.36
220.051	-71.51
220.27	39.08
220.488	55.47
220.706	77.99
220.924	-18.26
221.142	51.37
221.36	-3.93
221.578	20.65
221.796	-3.93
222.015	-77.65
222.233	-79.7
222.451	106.67
222.669	28.84
222.887	131.24
223.105	6.31
223.323	-16.21
223.541	80.04
223.759	43.18
223.977	-46.93
224.195	125.1
224.413	59.56
224.631	16.55
224.849	53.42
225.067	133.29
225.285	55.47
225.503	88.23
225.721	-10.07
225.939	82.09
226.157	57.51
226.375	196.78
226.592	-18.26
226.81	-12.12
227.028	59.56
227.246	8.36
227.464	57.51
227.682	14.51
227.9	-8.02
228.117	47.27
228.335	127.14
228.553	63.66
228.771	28.84
228.989	-14.17
229.206	30.89
229.424	10.41
229.642	-12.12
229.86	30.89
230.077	61.61
230.295	-1.88
230.513	106.67
230.731	129.19
230.948	0.17
231.166	41.13
231.384	90.28
231.601	51.37
231.819	73.9
232.037	8.36
232.254	-12.12
232.472	-40.79
232.689	-96.08
232.907	75.95
233.125	51.37
233.342	20.65
233.56	-53.08
233.777	49.32
233.995	51.37
234.213	30.89
234.43	4.27
234.648	65.71
234.865	-24.4
235.083	106.67
235.3	10.41
235.518	24.75
235.735	155.82
235.953	92.33
236.17	2.22
236.388	20.65
236.605	69.8
236.822	166.06
237.04	69.8
237.257	49.32
237.475	-40.79
237.692	127.14
237.909	6.31
238.127	18.6
238.344	112.81
238.562	49.32
238.779	-65.36
238.996	-32.6
239.214	94.38
239.431	71.85
239.648	-48.98
239.865	86.19
240.083	67.75
240.3	10.41
240.517	-8.02
240.735	-3.93
240.952	141.48
241.169	96.43
241.386	67.75
241.603	18.6
241.821	-44.88
242.038	47.27
242.255	39.08
242.472	-10.07
242.689	18.6
242.907	100.52
243.124	51.37
243.341	67.75
243.558	-8.02
243.775	-108.37
243.992	26.79
244.209	34.99
244.426	166.06
244.643	18.6
244.86	16.55
245.078	34.99
245.295	4.27
245.512	18.6
245.729	53.42
245.946	24.75
246.163	6.31
246.38	57.51
246.597	-14.17
246.814	-18.26
247.031	43.18
247.248	14.51
247.464	100.52
247.681	10.41
247.898	51.37
248.115	-10.07
248.332	-20.31
248.549	104.62
248.766	121
248.983	34.99
249.2	125.1
249.417	51.37
249.633	32.94
249.85	41.13
250.067	18.6
250.284	92.33
250.501	57.51
250.717	94.38
250.934	34.99
251.151	34.99
251.368	114.86
251.585	53.42
251.801	43.18
252.018	-16.21
252.235	0.17
252.451	41.13
252.668	-71.51
252.885	84.14
253.102	102.57
253.318	4.27
253.535	53.42
253.752	-14.17
253.968	43.18
254.185	-32.6
254.401	-16.21
254.618	24.75
254.835	2.22
255.051	73.9
255.268	86.19
255.484	86.19
255.701	69.8
255.917	12.46
256.134	2.22
256.351	-42.84
256.567	-10.07
256.784	16.55
257	-30.55
257.217	96.43
257.433	-16.21
257.65	22.7
257.866	63.66
258.082	43.18
258.299	-18.26
258.515	61.61
258.732	16.55
258.948	-26.45
259.165	-5.97
259.381	-28.5
259.597	32.94
259.814	10.41
260.03	22.7
260.246	18.6
260.463	147.62
260.679	-10.07
260.895	28.84
261.112	55.47
261.328	12.46
261.544	-77.65
261.761	118.95
261.977	-30.55
262.193	-28.5
262.409	0.17
262.626	88.23
262.842	0.17
263.058	8.36
263.274	0.17
263.49	47.27
263.707	129.19
263.923	-85.84
264.139	12.46
264.355	-44.88
264.571	47.27
264.787	26.79
265.004	116.9
265.22	-18.26
265.436	-44.88
265.652	61.61
265.868	69.8
266.084	-12.12
266.3	-22.36
266.516	4.27
266.732	61.61
266.948	86.19
267.164	16.55
267.38	34.99
267.596	57.51
267.812	133.29
268.028	-5.97
268.244	-32.6
268.46	0.17
268.676	18.6
268.892	10.41
269.108	18.6
269.324	26.79
269.54	-38.74
269.756	69.8
269.972	22.7
270.188	-8.02
270.403	-12.12
270.619	77.99
270.835	82.09
271.051	55.47
271.267	-42.84
271.483	0.17
271.698	125.1
271.914	116.9
272.13	-48.98
272.346	32.94
272.562	49.32
272.777	45.23
272.993	24.75
273.209	49.32
273.425	32.94
273.64	-63.32
273.856	77.99
274.072	39.08
274.287	39.08
274.503	121
274.719	39.08
274.934	28.84
275.15	-40.79
275.366	84.14
275.581	10.41
275.797	86.19
276.012	43.18
276.228	0.17
276.444	12.46
276.659	133.29
276.875	-57.17
277.09	16.55
277.306	18.6
277.521	67.75
277.737	39.08
277.952	12.46
278.168	110.76
278.383	80.04
278.599	51.37
278.814	92.33
279.03	37.03
279.245	84.14
279.461	43.18
279.676	59.56
279.892	-36.69
280.107	-40.79
280.322	8.36
280.538	32.94
280.753	32.94
280.969	32.94
281.184	24.75
281.399	174.25
281.615	59.56
281.83	30.89
282.045	8.36
282.26	-8.02
282.476	12.46
282.691	53.42
282.906	32.94
283.122	34.99
283.337	57.51
283.552	-10.07
283.767	20.65
283.983	37.03
284.198	75.95
284.413	-5.97
284.628	-67.41
284.843	43.18
285.058	63.66
285.274	22.7
285.489	102.57
285.704	67.75
285.919	-8.02
286.134	8.36
286.349	20.65
286.564	-40.79
286.779	47.27
286.995	-12.12
287.21	100.52
287.425	14.51
287.64	2.22
287.855	-24.4
288.07	-46.93
288.285	63.66
288.5	92.33
288.715	26.79
288.93	18.6
289.145	12.46
289.36	53.42
289.575	14.51
289.79	20.65
290.004	34.99
290.219	53.42
290.434	0.17
290.649	-22.36
290.864	-18.26
291.079	112.81
291.294	49.32
291.509	65.71
291.724	63.66
291.938	0.17
292.153	-34.64
292.368	-67.41
292.583	104.62
292.798	-16.21
293.012	63.66
293.227	-36.69
293.442	20.65
293.657	176.3
293.871	77.99
294.086	30.89
294.301	164.01
294.516	104.62
294.73	92.33
294.945	59.56
295.16	24.75
295.374	147.62
295.589	20.65
295.804	-16.21
296.018	84.14
296.233	65.71
296.447	-12.12
296.662	75.95
296.877	39.08
297.091	43.18
297.306	82.09
297.52	-12.12
297.735	-12.12
297.949	73.9
298.164	34.99
298.378	-51.03
298.593	37.03
298.807	-32.6
299.022	4.27
299.236	90.28
299.451	16.55
299.665	73.9
299.88	-69.46
300.094	57.51
300.309	-10.07
300.523	73.9
300.737	34.99
300.952	10.41
301.166	34.99
301.381	51.37
301.595	-5.97
301.809	2.22
302.024	30.89
302.238	-26.45
302.452	59.56
302.667	39.08
302.881	88.23
303.095	20.65
303.309	114.86
303.524	65.71
303.738	-57.17
303.952	-8.02
304.166	-14.17
304.381	-8.02
304.595	-3.93
304.809	-5.97
305.023	69.8
305.237	-32.6
305.452	16.55
305.666	108.71
305.88	10.41
306.094	-5.97
306.308	24.75
306.522	75.95
306.736	-10.07
306.95	24.75
307.164	37.03
307.379	-8.02
307.593	32.94
307.807	118.95
308.021	55.47
308.235	37.03
308.449	-14.17
308.663	-63.32
308.877	80.04
309.091	112.81
309.305	20.65
309.519	-10.07
309.733	112.81
309.947	-38.74
310.161	55.47
310.374	53.42
310.588	20.65
310.802	-3.93
311.016	-5.97
311.23	30.89
311.444	6.31
311.658	-8.02
311.872	55.47
312.085	88.23
312.299	104.62
312.513	37.03
312.727	12.46
312.941	-18.26
313.154	39.08
313.368	39.08
313.582	41.13
313.796	131.24
314.009	-8.02
314.223	86.19
314.437	12.46
314.651	131.24
314.864	77.99
315.078	14.51
315.292	8.36
315.505	14.51
315.719	43.18
315.933	53.42
316.146	80.04
316.36	32.94
316.573	69.8
316.787	2.22
317.001	-38.74
317.214	-40.79
317.428	26.79
317.641	-38.74
317.855	-67.41
318.068	30.89
318.282	-26.45
318.495	204.97
318.709	47.27
318.922	26.79
319.136	69.8
319.349	94.38
319.563	-18.26
319.776	84.14
319.99	-22.36
320.203	32.94
320.417	65.71
320.63	94.38
320.843	39.08
321.057	82.09
321.27	6.31
321.483	67.75
321.697	82.09
321.91	-28.5
322.124	77.99
322.337	45.23
322.55	-8.02
322.763	28.84
322.977	43.18
323.19	-18.26
323.403	88.23
323.617	2.22
323.83	125.1
324.043	26.79
324.256	92.33
324.469	-42.84
324.683	41.13
324.896	51.37
325.109	22.7
325.322	26.79
325.535	166.06
325.748	65.71
325.962	16.55
326.175	-8.02
326.388	90.28
326.601	8.36
326.814	43.18
327.027	-8.02
327.24	155.82
327.453	2.22
327.666	98.47
327.879	30.89
328.092	14.51
328.305	82.09
328.518	49.32
328.731	-20.31
328.944	-5.97
329.157	20.65
329.37	-22.36
329.583	100.52
329.796	98.47
330.009	-28.5
330.222	108.71
330.435	65.71
330.648	53.42
330.861	26.79
331.073	53.42
331.286	55.47
331.499	53.42
331.712	-10.07
331.925	-12.12
332.138	16.55
332.35	82.09
332.563	-73.56
332.776	125.1
332.989	-46.93
333.202	22.7
333.414	8.36
333.627	63.66
333.84	75.95
334.053	45.23
334.265	-5.97
334.478	-18.26
334.691	43.18
334.903	90.28
335.116	-48.98
335.329	59.56
335.541	116.9
335.754	73.9
335.966	57.51
336.179	34.99
336.392	10.41
336.604	8.36
336.817	22.7
337.029	43.18
337.242	65.71
337.454	67.75
337.667	55.47
337.88	137.38
338.092	-8.02
338.305	69.8
338.517	20.65
338.729	41.13
338.942	121
339.154	8.36
339.367	-8.02
339.579	39.08
339.792	-22.36
340.004	129.19
340.217	24.75
340.429	30.89
340.641	59.56
340.854	22.7
341.066	69.8
341.278	110.76
341.491	106.67
341.703	84.14
341.915	24.75
342.128	-5.97
342.34	22.7
342.552	-14.17
342.764	-3.93
342.977	2.22
343.189	121
343.401	22.7
343.613	14.51
343.826	-61.27
344.038	-57.17
344.25	-8.02
344.462	-89.94
344.674	32.94
344.886	30.89
345.099	63.66
345.311	51.37
345.523	26.79
345.735	37.03
345.947	112.81
346.159	-10.07
346.371	-36.69
346.583	10.41
346.795	153.77
347.007	4.27
347.219	41.13
347.431	32.94
347.643	96.43
347.855	28.84
348.067	71.85
348.279	-14.17
348.491	10.41
348.703	2.22
348.915	61.61
349.127	-5.97
349.339	-18.26
349.551	-22.36
349.763	65.71
349.975	34.99
350.187	90.28
350.399	92.33
350.61	61.61
350.822	37.03
351.034	24.75
351.246	53.42
351.458	-46.93
351.669	53.42
351.881	73.9
352.093	108.71
352.305	110.76
352.517	30.89
352.728	106.67
352.94	18.6
353.152	0.17
353.363	8.36
353.575	82.09
353.787	108.71
353.999	24.75
354.21	131.24
354.422	45.23
354.633	51.37
354.845	55.47
355.057	51.37
355.268	73.9
355.48	43.18
355.692	-24.4
355.903	20.65
356.115	-75.6
356.326	-40.79
356.538	116.9
356.749	96.43
356.961	147.62
357.172	-12.12
357.384	-63.32
357.595	59.56
357.807	-34.64
358.018	-16.21
358.23	-30.55
358.441	61.61
358.653	37.03
358.864	-40.79
359.075	37.03
359.287	80.04
359.498	49.32
359.709	32.94
359.921	24.75
360.132	63.66
360.344	-16.21
360.555	63.66
360.766	22.7
360.977	102.57
361.189	39.08
361.4	-16.21
361.611	141.48
361.823	57.51
362.034	39.08
362.245	16.55
362.456	-1.88
362.667	96.43
362.879	-63.32
363.09	51.37
363.301	86.19
363.512	80.04
363.723	-24.4
363.935	-22.36
364.146	51.37
364.357	53.42
364.568	94.38
364.779	28.84
364.99	155.82
365.201	10.41
365.412	108.71
365.623	-75.6
365.834	67.75
366.045	-42.84
366.256	30.89
366.467	8.36
366.678	6.31
366.889	18.6
367.1	39.08
367.311	102.57
367.522	28.84
367.733	-10.07
367.944	71.85
368.155	-34.64
368.366	73.9
368.577	116.9
368.788	51.37
368.999	-16.21
369.209	75.95
369.42	172.2
369.631	104.62
369.842	82.09
370.053	43.18
370.264	69.8
370.474	-77.65
370.685	67.75
370.896	8.36
371.107	137.38
371.317	92.33
371.528	-12.12
371.739	63.66
371.95	106.67
372.16	69.8
372.371	-14.17
372.582	-8.02
372.792	88.23
373.003	51.37
373.214	20.65
373.424	110.76
373.635	-12.12
373.846	71.85
374.056	-16.21
374.267	12.46
374.477	-3.93
374.688	22.7
374.898	123.05
375.109	153.77
375.319	77.99
375.53	8.36
375.74	104.62
375.951	-3.93
376.161	28.84
376.372	-1.88
376.582	-3.93
376.793	49.32
377.003	-48.98
377.214	63.66
377.424	14.51
377.635	30.89
377.845	-1.88
378.055	139.43
378.266	-28.5
378.476	26.79
378.686	22.7
378.897	34.99
379.107	106.67
379.317	100.52
379.528	34.99
379.738	90.28
379.948	-10.07
380.158	55.47
380.369	75.95
380.579	39.08
380.789	4.27
380.999	84.14
381.21	45.23
381.42	151.72
381.63	2.22
381.84	106.67
382.05	110.76
382.261	65.71
382.471	67.75
382.681	16.55
382.891	67.75
383.101	80.04
383.311	-16.21
383.521	47.27
383.731	49.32
383.941	104.62
384.151	73.9
384.361	-46.93
384.571	10.41
384.781	-32.6
384.991	129.19
385.201	118.95
385.411	24.75
385.621	80.04
385.831	30.89
386.041	75.95
386.251	2.22
386.461	92.33
386.671	-16.21
386.881	28.84
387.091	88.23
387.301	41.13
387.511	10.41
387.72	82.09
387.93	16.55
388.14	-28.5
388.35	-30.55
388.56	108.71
388.769	90.28
388.979	12.46
389.189	63.66
389.399	-22.36
389.609	-1.88
389.818	67.75
390.028	65.71
390.238	34.99
390.447	30.89
390.657	49.32
390.867	28.84
391.076	-34.64
391.286	112.81
391.496	-3.93
391.705	34.99
391.915	82.09
392.125	86.19
392.334	28.84
392.544	133.29
392.753	77.99
392.963	28.84
393.172	57.51
393.382	28.84
393.591	80.04
393.801	51.37
394.01	131.24
394.22	84.14
394.429	16.55
394.639	84.14
394.848	43.18
395.058	-5.97
395.267	37.03
395.477	114.86
395.686	57.51
395.895	141.48
396.105	184.49
396.314	102.57
396.524	16.55
396.733	77.99
396.942	137.38
397.152	-3.93
397.361	71.85
397.57	116.9
397.78	45.23
397.989	133.29
398.198	92.33
398.407	67.75
398.617	18.6
398.826	-1.88
399.035	106.67
399.244	71.85
399.453	0.17
399.663	98.47
399.872	166.06
400.081	57.51
400.29	184.49
400.499	28.84
400.708	96.43
400.917	30.89
401.127	98.47
401.336	55.47
401.545	211.11
401.754	129.19
401.963	96.43
402.172	84.14
402.381	43.18
402.59	39.08
402.799	49.32
403.008	116.9
403.217	114.86
403.426	114.86
403.635	37.03
403.844	82.09
404.053	90.28
404.262	129.19
404.471	204.97
404.68	90.28
404.888	22.7
405.097	82.09
405.306	86.19
405.515	75.95
405.724	0.17
405.933	86.19
406.142	174.25
406.35	108.71
406.559	106.67
406.768	164.01
406.977	149.67
407.185	82.09
407.394	98.47
407.603	121
407.812	192.68
408.02	155.82
408.229	75.95
408.438	196.78
408.646	57.51
408.855	135.34
409.064	219.3
409.272	196.78
409.481	184.49
409.69	141.48
409.898	90.28
410.107	207.02
410.315	282.79
410.524	213.16
410.733	180.39
410.941	168.1
411.15	180.39
411.358	221.35
411.567	213.16
411.775	178.34
411.984	209.06
412.192	235.69
412.401	235.69
412.609	333.99
412.818	336.04
413.026	282.79
413.234	223.4
413.443	311.46
413.651	331.94
413.86	313.51
414.068	440.48
414.276	428.2
414.485	323.75
414.693	436.39
414.901	469.16
415.11	475.3
415.318	350.37
415.526	426.15
415.734	428.2
415.943	456.87
416.151	444.58
416.359	495.78
416.567	514.21
416.776	624.8
416.984	557.22
417.192	632.99
417.4	583.84
417.608	532.64
417.817	583.84
418.025	694.43
418.233	876.7
418.441	606.37
418.649	608.42
418.857	665.76
419.065	833.69
419.273	608.42
419.481	833.69
419.689	823.45
419.897	862.37
420.105	794.78
420.313	983.2
420.521	909.47
420.729	985.24
420.937	1005.72
421.145	1026.2
421.353	1104.03
421.561	1126.55
421.769	1134.75
421.977	1097.88
422.185	1130.65
422.393	1218.71
422.601	1357.97
422.809	1237.14
423.017	1325.21
423.224	1394.84
423.432	1484.95
423.64	1484.95
423.848	1556.63
424.056	1468.56
424.263	1630.35
424.471	1613.97
424.679	1683.6
424.887	1634.45
425.094	1857.68
425.302	1820.81
425.51	1765.52
425.718	1986.7
425.925	1933.45
426.133	2058.38
426.341	2291.85
426.548	2230.41
426.756	2193.55
426.964	2320.52
427.171	2289.8
427.379	2392.2
427.586	2594.95
427.794	2576.52
428.001	2777.22
428.209	2861.18
428.417	2758.78
428.624	2945.15
428.832	3020.92
429.039	2910.33
429.247	2834.56
429.454	3319.93
429.662	3354.74
429.869	3205.24
430.076	3512.44
430.284	3270.78
430.491	3547.25
430.699	3641.46
430.906	3786.86
431.114	3745.91
431.321	3903.6
431.528	3979.37
431.736	4081.77
431.943	4403.3
432.15	4227.18
432.358	4261.99
432.565	4608.1
432.772	4364.39
432.979	4864.1
433.187	4845.66
433.394	4903.01
433.601	5179.48
433.808	5179.48
434.016	5353.56
434.223	5296.22
434.43	5609.56
434.637	5621.84
434.844	5904.46
435.052	5996.62
435.259	5873.75
435.466	6096.97
435.673	6049.87
435.88	6447.18
436.087	6807.62
436.294	6711.36
436.501	6465.61
436.708	6670.4
436.915	6893.63
437.122	7161.92
437.329	7006.27
437.537	7198.78
437.743	7376.95
437.95	7458.87
438.157	7788.6
438.364	7921.71
438.571	7997.49
438.778	8204.33
438.985	8722.47
439.192	8474.67
439.399	8820.77
439.606	8624.17
439.813	9173.02
440.02	9586.71
440.227	9480.22
440.433	9400.35
440.64	9408.54
440.847	9590.81
441.054	9986.07
441.261	10725.38
441.467	10076.18
441.674	10598.41
441.881	10792.97
442.088	10778.63
442.294	10967.04
442.501	10921.99
442.708	11458.56
442.914	11649.02
443.121	12130.29
443.328	11761.66
443.534	12820.46
443.741	12322.8
443.948	12165.11
444.154	12924.9
444.361	12769.26
444.568	13041.64
444.774	12885.99
444.981	13074.4
445.187	13627.35
445.394	14161.87
445.6	14106.58
445.807	15226.82
446.013	14639.05
446.22	14811.08
446.426	15208.39
446.633	15714.23
446.839	15972.28
447.046	15339.46
447.252	16160.69
447.459	16318.39
447.665	16310.19
447.871	16836.52
448.078	17555.36
448.284	16967.59
448.491	17207.2
448.697	18233.24
448.903	18352.02
449.11	18550.67
449.316	17932.19
449.522	18118.55
449.728	18935.69
449.935	19261.32
450.141	18995.08
450.347	19388.29
450.553	18763.66
450.76	18831.24
450.966	20006.78
451.172	19349.38
451.378	20082.55
451.584	19398.53
451.791	19937.15
451.997	20094.84
452.203	20336.5
452.409	20141.94
452.615	20139.9
452.821	19292.04
453.027	19445.63
453.233	20127.61
453.44	19414.91
453.646	19697.53
453.852	19791.74
454.058	20305.78
454.264	19652.48
454.47	19926.91
454.676	19345.28
454.882	19890.04
455.088	18268.05
455.294	18501.52
455.5	19013.51
455.705	18788.24
455.911	18444.18
456.117	18071.45
456.323	17895.32
456.529	17055.65
456.735	17457.06
456.941	17313.7
457.147	16889.77
457.352	16549.81
457.558	16132.02
457.764	16183.22
457.97	15617.98
458.176	15583.16
458.381	15509.44
458.587	14866.38
458.793	14792.65
458.999	14088.15
459.204	14970.82
459.41	14604.24
459.616	13610.97
459.821	13531.1
460.027	13770.71
460.233	13451.23
460.438	12742.63
460.644	12845.03
460.85	12261.36
461.055	11954.16
461.261	11868.15
461.466	11085.83
461.672	10663.94
461.878	11571.19
462.083	10821.64
462.289	10584.07
462.494	10295.31
462.7	9977.87
462.905	9517.08
463.111	10049.55
463.316	10016.79
463.522	9859.09
463.727	9840.66
463.932	9652.25
464.138	9601.05
464.343	9613.34
464.549	9396.25
464.754	10024.98
464.959	9664.54
465.165	9506.84
465.37	8955.94
465.575	9000.99
465.781	9127.97
465.986	9314.33
466.191	8998.95
466.397	8808.48
466.602	8329.26
466.807	8779.81
467.012	8624.17
467.218	8642.6
467.423	8378.41
467.628	8726.57
467.833	8814.63
468.038	8683.56
468.244	8425.51
468.449	8681.51
468.654	8489
468.859	8343.6
469.064	8294.44
469.269	8044.59
469.474	8151.09
469.679	8290.35
469.885	7960.63
470.09	8144.94
470.295	8077.36
470.5	7598.13
470.705	7974.96
470.91	7569.46
471.115	7669.81
471.32	7743.54
471.525	7653.43
471.73	7688.25
471.935	7553.08
472.139	7512.12
472.344	7354.43
472.549	7161.92
472.754	7315.52
472.959	7039.04
473.164	6838.34
473.369	6912.07
473.574	7063.61
473.778	6991.94
473.983	6996.03
474.188	6754.37
474.393	6578.25
474.598	6703.17
474.802	6565.96
475.007	6527.05
475.212	6457.42
475.417	6295.63
475.621	6160.46
475.826	6201.42
476.031	6129.74
476.235	5904.46
476.44	6123.6
476.645	6062.16
476.849	5892.18
477.054	5978.19
477.259	5943.38
477.463	5963.86
477.668	5744.72
477.872	5939.28
478.077	5630.04
478.282	5675.09
478.486	5441.62
478.691	5427.29
478.895	5539.93
479.1	5423.19
479.304	5341.27
479.509	5400.66
479.713	5324.89
479.918	5365.85
480.122	5187.68
480.326	5285.98
480.531	5261.4
480.735	5154.91
480.94	5140.57
481.144	5251.16
481.348	5079.13
481.553	5240.92
481.757	4919.39
481.961	4995.17
482.166	5118.04
482.37	5138.52
482.574	4819.04
482.778	5197.92
482.983	5277.79
483.187	5089.37
483.391	4913.25
483.595	5007.45
483.8	4788.32
484.004	5060.7
484.208	5204.06
484.412	5099.61
484.616	4978.78
484.821	5068.89
485.025	4935.78
485.229	5075.04
485.433	5003.36
485.637	4943.97
485.841	4952.16
486.045	4724.83
486.249	4923.49
486.453	4819.04
486.657	5072.99
486.861	5013.6
487.065	4835.42
487.269	5062.75
487.473	4921.44
487.677	5019.74
487.881	5126.24
488.085	5019.74
488.289	5083.23
488.493	4919.39
488.697	5163.1
488.901	5036.13
489.105	5070.94
489.309	4892.77
489.512	5091.42
489.716	5179.48
489.92	4958.3
490.124	5056.61
490.328	5251.16
490.531	5066.85
490.735	5331.03
490.939	4995.17
491.143	5230.68
491.346	5052.51
491.55	5163.1
491.754	5156.96
491.958	5216.35
492.161	5197.92
492.365	5253.21
492.569	5232.73
492.772	5281.88
492.976	5359.7
493.18	5261.4
493.383	5386.33
493.587	5439.58
493.79	5544.02
493.994	5464.15
494.197	5445.72
494.401	5498.97
494.605	5556.31
494.808	5644.37
495.012	5771.35
495.215	5627.99
495.419	5795.92
495.622	5732.44
495.825	5916.75
496.029	5654.61
496.232	5951.57
496.436	5949.52
496.639	6039.63
496.843	5953.62
497.046	5986.38
497.249	6144.08
497.453	6271.05
497.656	6221.9
497.859	6418.5
498.063	6375.5
498.266	6441.03
498.469	6201.42
498.673	6514.76
498.876	6391.88
499.079	6619.21
499.282	6645.83
499.485	6862.91
499.689	6869.06
499.892	7102.53
500.095	6877.25
500.298	7108.67
500.501	7086.14
500.705	7077.95
500.908	7198.78
501.111	7409.72
501.314	7385.15
501.517	7551.03
501.72	7573.56
501.923	7596.09
502.126	7847.99
502.329	7995.44
502.532	8005.68
502.735	7958.58
502.938	8003.63
503.141	8192.05
503.344	8198.19
503.547	8310.83
503.75	8368.17
503.953	8556.58
504.156	8380.46
504.359	8405.03
504.562	8445.99
504.765	8824.87
504.968	8824.87
505.17	8953.89
505.373	9023.52
505.576	9287.71
505.779	9207.84
505.982	9394.2
506.185	9400.35
506.387	9515.03
506.59	9699.35
506.793	9732.12
506.996	9826.32
507.198	10137.62
507.401	10074.13
507.604	10094.61
507.807	10264.59
508.009	10467.34
508.212	10299.41
508.415	10688.52
508.617	10651.66
508.82	10598.41
509.022	10725.38
509.225	10772.49
509.428	10866.69
509.63	10973.19
509.833	11055.11
510.035	11315.2
510.238	11458.56
510.44	11427.84
510.643	11427.84
510.845	11749.37
511.048	11634.68
511.25	11718.65
511.453	11819
511.655	12343.28
511.858	12054.51
512.06	12345.33
512.262	12386.29
512.465	12384.24
512.667	12627.95
512.87	12531.69
513.072	12810.22
513.274	13031.4
513.477	13141.99
513.679	12965.86
513.881	13289.44
514.084	13529.05
514.286	13324.26
514.488	13336.54
514.69	13649.88
514.893	13776.86
515.095	13514.72
515.297	14028.76
515.499	14036.95
515.701	14227.41
515.904	14157.78
516.106	14393.3
516.308	14419.92
516.51	14933.96
516.712	14761.93
516.914	14706.63
517.116	14911.43
517.318	14886.86
517.52	15239.11
517.722	15093.7
517.925	15355.84
518.127	15491.01
518.329	15519.68
518.531	15286.21
518.733	15798.2
518.935	15869.88
519.136	15892.41
519.338	15986.61
519.54	16138.16
519.742	16215.99
519.944	16408.5
520.146	16480.18
520.348	16465.84
520.55	16719.79
520.752	16918.44
520.954	16865.19
521.155	16740.27
521.357	16936.87
521.559	17100.71
521.761	17305.51
521.963	17055.65
522.164	17360.8
522.366	17299.36
522.568	17706.91
522.77	17575.84
522.971	17751.96
523.173	17565.6
523.375	17954.71
523.576	17950.62
523.778	17711
523.98	18235.28
524.181	18274.2
524.383	18120.6
524.584	18626.45
524.786	18214.8
524.988	18435.99
525.189	18270.1
525.391	18605.97
525.592	18593.68
525.794	18575.25
525.995	18673.55
526.197	18599.82
526.398	18872.2
526.6	18917.26
526.801	19038.09
527.003	19167.11
527.204	18900.87
527.406	19392.39
527.607	19072.9
527.808	19062.66
528.01	18857.87
528.211	19019.66
528.412	19335.04
528.614	19429.25
528.815	19122.05
529.016	19545.98
529.218	19249.03
529.419	19396.48
529.62	19173.25
529.822	19316.61
530.023	19425.15
530.224	19435.39
530.425	19300.23
530.626	19056.52
530.828	19472.26
531.029	19634.05
531.23	19167.11
531.431	19226.5
531.632	19588.99
531.833	19445.63
532.035	19228.55
532.236	19625.86
532.437	19353.48
532.638	19384.19
532.839	19251.08
533.04	19662.72
533.241	19337.09
533.442	19758.97
533.643	19548.03
533.844	19476.35
534.045	19738.49
534.246	19449.73
534.447	19531.65
534.648	19443.59
534.849	19431.3
535.05	19433.35
535.251	19351.43
535.451	19619.71
535.652	19578.75
535.853	19269.51
536.054	19718.01
536.255	19373.96
536.456	19152.77
536.657	19621.76
536.857	19525.5
537.058	19414.91
537.259	19384.19
537.46	19568.51
537.66	19476.35
537.861	19181.45
538.062	19210.12
538.263	19365.76
538.463	19224.45
538.664	19396.48
538.865	19324.8
539.065	19593.09
539.266	19167.11
539.466	19799.93
539.667	19320.71
539.868	19801.98
540.068	19427.2
540.269	19081.1
540.469	19185.54
540.67	19253.12
540.87	19101.58
541.071	19132.29
541.271	19068.81
541.472	19263.36
541.672	19074.95
541.873	19259.27
542.073	18954.12
542.274	19529.6
542.474	19148.68
542.675	19111.82
542.875	19236.74
543.075	19267.46
543.276	18974.6
543.476	19048.33
543.676	19077
543.877	19392.39
544.077	19081.1
544.277	19173.25
544.478	19169.16
544.678	19042.18
544.878	19117.96
545.078	18829.2
545.279	19023.75
545.479	19222.41
545.679	19394.43
545.879	19070.86
546.079	19027.85
546.28	18984.84
546.48	18821
546.68	19193.73
546.88	18952.07
547.08	19181.45
547.28	18833.29
547.48	18689.93
547.68	19285.89
547.88	18861.96
548.081	19011.46
548.281	18796.43
548.481	18702.22
548.681	18751.37
548.881	18972.55
549.081	18882.44
549.28	18833.29
549.48	18812.81
549.68	18683.79
549.88	19038.09
550.08	18796.43
550.28	18937.74
550.48	18802.57
550.68	19019.66
550.88	18806.67
551.08	19068.81
551.279	19050.38
551.479	18757.52
551.679	18800.52
551.879	18622.35
552.079	19042.18
552.278	18933.64
552.478	18952.07
552.678	18853.77
552.878	18964.36
553.077	18810.76
553.277	18591.63
553.477	19033.99
553.676	18931.59
553.876	18685.84
554.076	18534.29
554.275	18456.47
554.475	18433.94
554.674	18745.23
554.874	18485.14
555.074	18497.42
555.273	18575.25
555.473	18679.69
555.672	18608.01
555.872	18626.45
556.071	18501.52
556.271	18980.75
556.47	18532.24
556.67	18524.05
556.869	18511.76
557.068	18806.67
557.268	18372.5
557.467	18460.56
557.667	18753.42
557.866	18546.58
558.065	18497.42
558.265	18624.4
558.464	18435.99
558.663	18503.57
558.863	18354.07
559.062	18841.48
559.261	18220.95
559.461	18597.77
559.66	18495.38
559.859	18313.11
560.058	18315.16
560.258	18409.36
560.457	18313.11
560.656	18821
560.855	18374.55
561.054	18595.73
561.253	18255.76
561.453	18464.66
561.652	18528.14
561.851	18581.39
562.05	18081.69
562.249	17835.93
562.448	18667.41
562.647	18188.18
562.846	18376.59
563.045	18419.6
563.244	18130.84
563.443	18630.54
563.642	17967
563.841	18304.92
564.04	18229.14
564.239	18282.39
564.438	18132.89
564.637	18403.22
564.836	18306.96
565.035	18036.63
565.234	18005.91
565.432	18218.9
565.631	18091.93
565.83	18136.98
566.029	18225.04
566.228	17926.04
566.427	18040.73
566.625	17921.95
566.824	18018.2
567.023	18278.29
567.222	17751.96
567.42	17973.14
567.619	18120.6
567.818	17946.52
568.016	18010.01
568.215	17913.75
568.414	18280.34
568.612	18118.55
568.811	18022.3
569.01	17907.61
569.208	18005.91
569.407	18032.54
569.605	17885.08
569.804	18038.68
570.002	17676.19
570.201	17999.77
570.4	17852.31
570.598	17532.83
570.797	17561.5
570.995	17756.06
571.193	17317.79
571.392	17614.75
571.59	17500.06
571.789	17524.64
571.987	17469.34
572.186	17573.79
572.384	17459.1
572.582	17794.97
572.781	17633.18
572.979	17514.4
573.177	17895.32
573.376	17473.44
573.574	17395.62
573.772	17696.67
573.971	17418.14
574.169	17231.78
574.367	17563.55
574.565	17475.49
574.763	17465.25
574.962	17311.65
575.16	17209.25
575.358	17485.73
575.556	17139.62
575.754	17567.65
575.952	17156
576.151	17223.59
576.349	17047.46
576.547	16947.11
576.745	16893.86
576.943	16936.87
577.141	17039.27
577.339	17117.09
577.537	16926.63
577.735	17004.46
577.933	16740.27
578.131	16916.39
578.329	16854.95
578.527	16615.34
578.725	16945.06
578.923	16988.07
579.121	16627.63
579.319	16773.03
579.516	16822.19
579.714	16900.01
579.912	16766.89
580.11	16601.01
580.308	16687.02
580.506	16555.95
580.704	16414.64
580.901	16572.33
581.099	16613.29
581.297	16482.22
581.495	16144.31
581.692	16383.92
581.89	16465.84
582.088	16435.12
582.285	16265.14
582.483	16398.26
582.681	16449.46
582.878	16338.87
583.076	16205.75
583.274	16355.25
583.471	16293.81
583.669	16185.27
583.866	16021.43
584.064	16269.23
584.262	16007.09
584.459	16066.49
584.657	15857.59
584.854	16326.58
585.052	15908.79
585.249	16113.59
585.447	16017.33
585.644	15744.95
585.841	16050.1
586.039	16123.83
586.236	15794.11
586.434	15636.41
586.631	15589.31
586.828	15830.97
587.026	15767.48
587.223	15642.56
587.42	15650.75
587.618	15900.6
587.815	15624.12
588.012	15529.92
588.21	15519.68
588.407	15771.58
588.604	15531.97
588.801	15620.03
588.999	15417.28
589.196	15689.66
589.393	15669.18
589.59	15398.85
589.787	15491.01
589.984	15235.01
590.182	15056.84
590.379	15398.85
590.576	15196.1
590.773	15177.67
590.97	15259.59
591.167	15384.51
591.364	15067.08
591.561	15249.35
591.758	14985.16
591.955	14964.68
592.152	15042.5
592.349	14950.34
592.546	14911.43
592.743	14813.13
592.94	14671.82
593.137	14739.4
593.334	15105.99
593.531	14538.7
593.727	14948.29
593.924	14729.16
594.121	14741.45
594.318	14772.17
594.515	14438.35
594.712	14921.67
594.908	14510.03
595.105	14612.43
595.302	14428.11
595.499	14528.46
595.696	14362.58
595.892	14548.94
596.089	14651.34
596.286	14550.99
596.482	14528.46
596.679	14364.62
596.876	14419.92
597.072	14215.12
597.269	14305.23
597.466	14159.83
597.662	14145.49
597.859	14131.16
598.055	14284.75
598.252	14170.07
598.448	14354.38
598.645	14213.07
598.841	13989.85
599.038	14104.53
599.234	13971.41
599.431	13846.49
599.627	13918.17
599.824	14116.82
600.02	13938.65
600.217	13735.9
600.413	13785.05
600.609	13811.67
600.806	13854.68
601.002	13696.99
601.198	13373.41
601.395	13635.55
601.591	13582.3
601.787	13950.93
601.984	13889.49
602.18	13713.37
602.376	13656.03
602.572	13475.81
602.769	13582.3
602.965	13262.82
603.161	13471.71
603.357	13422.56
603.553	13586.4
603.75	13426.65
603.946	13369.31
604.142	13504.48
604.338	13336.54
604.534	13162.47
604.73	13240.29
604.926	13148.13
605.122	13279.2
605.318	13049.83
605.514	13107.17
605.71	13230.05
605.906	13359.07
606.102	13141.99
606.298	13246.43
606.494	13164.51
606.69	13092.83
606.886	13047.78
607.082	13019.11
607.278	13098.98
607.474	12920.81
607.67	13172.71
607.866	12830.69
608.062	12881.89
608.257	12728.3
608.453	12830.69
608.649	12976.1
608.845	12806.12
609.041	12746.73
609.236	12724.2
609.432	12775.4
609.628	12570.6
609.824	12664.81
610.019	12681.19
610.215	12716.01
610.411	12894.18
610.606	12445.68
610.802	12636.14
610.998	12675.05
611.193	12638.19
611.389	12603.37
611.584	12740.58
611.78	12464.11
611.976	12476.4
612.171	12574.7
612.367	12419.05
612.562	12367.85
612.758	12374
612.953	12287.98
613.149	12478.44
613.344	12316.65
613.539	12396.53
613.735	12212.21
613.93	12478.44
614.126	11970.55
614.321	12576.75
614.517	12359.66
614.712	12408.81
614.907	12296.18
615.103	12273.65
615.298	12181.49
615.493	12242.93
615.688	12029.94
615.884	12302.32
616.079	12072.95
616.274	12275.7
616.47	12128.24
616.665	12029.94
616.86	12001.27
617.055	11806.71
617.25	11872.25
617.445	11999.22
617.641	11835.38
617.836	11919.35
618.031	11798.52
618.226	12093.43
618.421	11884.53
618.616	11913.2
618.811	11667.45
619.006	12031.99
619.201	11587.58
619.396	11896.82
619.591	11659.26
619.786	11757.56
619.981	11524.09
620.176	11382.78
620.371	11425.79
620.566	11399.16
620.761	11356.16
620.956	11419.64
621.151	11376.64
621.346	11333.63
621.541	11100.16
621.735	11341.82
621.93	11212.8
622.125	11206.66
622.32	10905.6
622.515	10995.71
622.709	11026.43
622.904	10952.71
623.099	10893.32
623.294	10833.93
623.488	10584.07
623.683	10899.46
623.878	10637.32
624.072	10659.85
624.267	10719.24
624.462	10549.26
624.656	10293.26
624.851	10684.42
625.046	10174.48
625.24	10184.72
625.435	10420.24
625.629	10336.27
625.824	10164.24
626.018	10180.62
626.213	10221.58
626.407	10067.99
626.602	9668.63
626.796	10080.27
626.991	10231.82
627.185	9732.12
627.38	9873.43
627.574	9834.52
627.768	9752.6
627.963	9644.06
628.157	9531.42
628.352	9627.67
628.546	9355.29
628.74	9449.5
628.935	9429.02
629.129	9404.44
629.323	9349.15
629.517	9238.56
629.712	9199.65
629.906	9431.07
630.1	9177.12
630.294	9072.67
630.489	8853.54
630.683	9119.78
630.877	8841.25
631.071	8933.41
631.265	8947.75
631.459	8771.62
631.653	8708.13
631.848	8853.54
632.042	8630.31
632.236	8765.48
632.43	8800.29
632.624	8544.3
632.818	8445.99
633.012	8570.92
633.206	8595.5
633.4	8501.29
633.594	8296.49
633.788	8431.66
633.982	8312.88
634.176	8450.09
634.369	8190
634.563	8224.81
634.757	8241.2
634.951	8329.26
635.145	8058.93
635.339	8216.62
635.533	8060.98
635.726	8144.94
635.92	7821.36
636.114	7723.06
636.308	7626.81
636.501	7874.61
636.695	7884.85
636.889	7694.39
637.083	7772.21
637.276	7751.73
637.47	7510.07
637.664	7473.21
637.857	7534.65
638.051	7610.42
638.244	7360.57
638.438	7577.66
638.632	7493.69
638.825	7321.66
639.019	7272.51
639.212	7174.21
639.406	7221.31
639.599	7143.49
639.793	6979.65
639.986	7032.9
640.18	7206.97
640.373	7153.73
640.567	6963.26
640.76	7047.23
640.954	6959.17
641.147	6764.61
641.34	6899.78
641.534	6967.36
641.727	6844.48
641.92	6733.89
642.114	6746.18
642.307	6801.47
642.5	6555.72
642.694	6492.23
642.887	6561.86
643.08	6561.86
643.273	6430.79
643.467	6504.52
643.66	6137.93
643.853	6543.43
644.046	6359.11
644.239	6228.04
644.432	6168.65
644.626	6193.23
644.819	6047.82
645.012	6234.19
645.205	6264.91
645.398	6051.92
645.591	6004.82
645.784	6013.01
645.977	5976.14
646.17	5857.36
646.363	5949.52
646.556	5656.66
646.749	5818.45
646.942	5769.3
647.135	5781.59
647.328	5779.54
647.521	5701.72
647.714	5570.65
647.907	5595.22
648.099	5576.79
648.292	5584.98
648.485	5666.9
648.678	5478.49
648.871	5525.59
649.064	5458.01
649.256	5584.98
649.449	5423.19
649.642	5265.5
649.835	5337.18
650.027	5154.91
650.22	5388.38
650.413	5312.6
650.605	5259.35
650.798	5261.4
650.991	5154.91
651.183	5111.9
651.376	5210.2
651.568	5042.27
651.761	5109.85
651.954	4952.16
652.146	5040.22
652.339	4964.45
652.531	5066.85
652.724	4984.93
652.916	4849.76
653.109	4710.5
653.301	4989.02
653.494	4745.31
653.686	4599.91
653.879	4900.96
654.071	4765.79
654.263	4747.36
654.456	4747.36
654.648	4810.85
654.84	4677.73
655.033	4472.93
655.225	4604
655.417	4393.06
655.61	4540.52
655.802	4724.83
655.994	4491.37
656.186	4386.92
656.379	4450.41
656.571	4522.09
656.763	4298.86
656.955	4366.44
657.148	4341.86
657.34	4466.79
657.532	4376.68
657.724	4294.76
657.916	4278.38
658.108	4253.8
658.3	4239.47
658.492	4272.23
658.684	4112.49
658.876	4155.5
659.068	4163.69
659.26	4026.48
659.452	4069.48
659.644	4159.6
659.836	4118.64
660.028	4106.35
660.22	3930.22
660.412	4026.48
660.604	3985.52
660.796	4044.91
660.988	3840.11
661.18	3860.59
661.372	3811.44
661.563	3827.82
661.755	3895.41
661.947	3909.74
662.139	3879.02
662.331	3731.57
662.522	3821.68
662.714	3629.17
662.906	3754.1
663.097	3827.82
663.289	3768.43
663.481	3516.53
663.673	3735.67
663.864	3635.32
664.056	3543.16
664.247	3711.09
664.439	3668.08
664.631	3463.29
664.822	3541.11
665.014	3457.14
665.205	3543.16
665.397	3516.53
665.588	3479.67
665.78	3475.57
665.971	3430.52
666.163	3457.14
666.354	3625.08
666.546	3244.15
666.737	3289.21
666.929	3315.83
667.12	3330.17
667.311	3438.71
667.503	3377.27
667.694	3274.87
667.885	3371.13
668.077	3272.82
668.268	3098.75
668.459	3346.55
668.651	3303.54
668.842	3272.82
669.033	3227.77
669.224	3186.81
669.416	3264.63
669.607	3246.2
669.798	3162.23
669.989	3285.11
670.18	3137.66
670.371	2984.06
670.563	3170.43
670.754	3131.51
670.945	2990.21
671.136	3154.04
671.327	3127.42
671.518	3121.28
671.709	3240.06
671.9	3184.76
672.091	3154.04
672.282	3205.24
672.473	3084.41
672.664	3008.64
672.855	3096.7
673.046	3088.51
673.237	3070.08
673.428	3055.74
673.619	3086.46
673.809	3070.08
674	3055.74
674.191	2998.4
674.382	2988.16
674.573	3016.83
674.764	3070.08
674.954	2992.25
675.145	2883.71
675.336	3008.64
675.527	2857.09
675.717	3027.07
675.908	2957.44
676.099	3076.22
676.289	2896
676.48	2918.53
676.671	3047.55
676.861	3092.6
677.052	2920.57
677.243	2834.56
677.433	2984.06
677.624	3188.86
677.814	3018.88
678.005	2984.06
678.195	3022.97
678.386	2965.63
678.576	3065.98
678.767	3006.59
678.957	2979.97
679.148	2990.21
679.338	2891.9
679.529	2928.77
679.719	2930.81
679.909	3033.21
680.1	2955.39
680.29	2967.68
680.481	2916.48
680.671	2896
680.861	2963.58
681.052	3041.4
681.242	3004.54
681.432	3033.21
681.622	3014.78
681.813	2877.57
682.003	3008.64
682.193	2930.81
682.383	3039.36
682.573	2998.4
682.764	3022.97
682.954	2936.96
683.144	3078.27
683.334	2961.53
683.524	3074.17
683.714	2955.39
683.904	2867.33
684.094	2932.86
684.284	2969.73
684.474	2965.63
684.664	2988.16
684.854	3068.03
685.044	2844.8
685.234	2939.01
685.424	2973.82
685.614	2949.25
685.804	3108.99
685.994	3008.64
686.184	2916.48
686.374	2959.49
686.564	2865.28
686.753	2879.61
686.943	2766.98
687.133	2742.4
687.323	2775.17
687.513	2883.71
687.702	2826.37
687.892	2730.11
688.082	2750.59
688.272	2775.17
688.461	2809.98
688.651	2826.37
688.841	2816.13
689.03	2793.6
689.22	2824.32
689.41	2848.9
689.599	2785.41
689.789	2715.78
689.979	2920.57
690.168	2654.34
690.358	2594.95
690.547	2805.89
690.737	2687.11
690.926	2685.06
691.116	2660.48
691.305	2744.45
691.495	2623.62
691.684	2672.77
691.874	2566.28
692.063	2599.04
692.252	2551.94
692.442	2586.76
692.631	2549.89
692.82	2549.89
693.01	2658.43
693.199	2435.21
693.388	2578.56
693.578	2480.26
693.767	2728.07
693.956	2574.47
694.146	2457.73
694.335	2564.23
694.524	2461.83
694.713	2721.92
694.902	2400.39
695.092	2531.46
695.281	2492.55
695.47	2531.46
695.659	2482.31
695.848	2597
696.037	2601.09
696.226	2517.12
696.415	2537.6
696.604	2648.19
696.793	2597
696.982	2609.28
697.171	2648.19
697.36	2580.61
697.549	2574.47
697.738	2547.84
697.927	2556.04
698.116	2365.57
698.305	2558.08
698.494	2625.67
698.683	2529.41
698.872	2613.38
699.061	2513.03
699.25	2433.16
699.438	2560.13
699.627	2529.41
699.816	2627.71
700.005	2533.51
700.193	2539.65
700.382	2666.63
700.571	2490.5
700.76	2545.8
700.948	2586.76
701.137	2556.04
701.326	2611.33
701.514	2648.19
701.703	2687.11
701.892	2660.48
702.08	2816.13
702.269	2697.35
702.457	2713.73
702.646	2599.04
702.834	2594.95
703.023	2646.15
703.212	2717.83
703.4	2742.4
703.589	2576.52
703.777	2578.56
703.965	2637.95
704.154	2664.58
704.342	2588.8
704.531	2705.54
704.719	2607.23
704.907	2760.83
705.096	2640
705.284	2777.22
705.472	2611.33
705.661	2744.45
705.849	2838.66
706.037	2818.18
706.226	2560.13
706.414	2697.35
706.602	2705.54
706.79	2732.16
706.979	2683.01
707.167	2769.02
707.355	2752.64
707.543	2775.17
707.731	2744.45
707.919	2777.22
708.107	2629.76
708.296	2805.89
708.484	2711.68
708.672	2773.12
708.86	2820.22
709.048	2709.63
709.236	2732.16
709.424	2797.7
709.612	2771.07
709.8	2857.09
709.988	2734.21
710.176	2789.5
710.364	2834.56
710.551	2871.42
710.739	2666.63
710.927	2863.23
711.115	2785.41
711.303	2971.77
711.491	2844.8
711.679	2807.94
711.866	2754.69
712.054	2844.8
712.242	2812.03
712.43	3000.44
712.617	2844.8
712.805	2850.94
712.993	2812.03
713.181	2803.84
713.368	2869.37
713.556	3020.92
713.744	2805.89
713.931	2977.92
714.119	2889.85
714.306	2873.47
714.494	2797.7
714.682	2869.37
714.869	2807.94
715.057	2926.72
715.244	2789.5
715.432	2963.58
715.619	2828.42
715.807	2852.99
715.994	2822.27
716.182	2924.67
716.369	2930.81
716.556	2922.62
716.744	2816.13
716.931	2867.33
717.119	2912.38
717.306	2949.25
717.493	2861.18
717.681	2791.55
717.868	2893.95
718.055	2877.57
718.242	2824.32
718.43	2900.09
718.617	2848.9
718.804	3025.02
718.991	2965.63
719.179	2918.53
719.366	2922.62
719.553	2971.77
719.74	2971.77
719.927	2990.21
720.114	2930.81
720.301	3053.69
720.488	2902.14
720.676	2842.75
720.863	2973.82
721.05	2924.67
721.237	2977.92
721.424	2930.81
721.611	3045.5
721.798	2916.48
721.985	2863.23
722.172	2891.9
722.358	2957.44
722.545	2936.96
722.732	2986.11
722.919	3098.75
723.106	2900.09
723.293	3014.78
723.48	2969.73
723.667	2963.58
723.853	2975.87
724.04	3049.6
724.227	2947.2
724.414	2996.35
724.6	3106.94
724.787	3000.44
724.974	3004.54
725.161	3086.46
725.347	2984.06
725.534	3008.64
725.72	2951.29
725.907	2992.25
726.094	3002.49
726.28	2965.63
726.467	2887.81
726.653	2928.77
726.84	3035.26
727.027	3143.8
727.213	2947.2
727.4	3059.84
727.586	3020.92
727.773	3037.31
727.959	3006.59
728.145	3084.41
728.332	2947.2
728.518	2844.8
728.705	2910.33
728.891	2943.1
729.077	2969.73
729.264	2889.85
729.45	3002.49
729.636	3002.49
729.823	2826.37
730.009	3090.56
730.195	2885.76
730.382	2908.29
730.568	2914.43
730.754	2994.3
730.94	2969.73
731.126	3022.97
731.313	2926.72
731.499	2926.72
731.685	2977.92
731.871	3047.55
732.057	2871.42
732.243	2973.82
732.429	2920.57
732.615	2971.77
732.801	3035.26
732.987	2936.96
733.173	2816.13
733.359	2840.7
733.545	2912.38
733.731	2861.18
733.917	2951.29
734.103	2861.18
734.289	2996.35
734.475	2861.18
734.661	2916.48
734.847	2916.48
735.033	2881.66
735.219	2918.53
735.404	2855.04
735.59	2809.98
735.776	2781.31
735.962	2869.37
736.148	2902.14
736.333	2801.79
736.519	2842.75
736.705	2904.19
736.89	2826.37
737.076	2881.66
737.262	2844.8
737.447	2795.65
737.633	2826.37
737.819	2967.68
738.004	2904.19
738.19	2795.65
738.375	2777.22
738.561	2805.89
738.747	2750.59
738.932	2705.54
739.118	2738.3
739.303	2779.26
739.489	2793.6
739.674	2689.15
739.859	2750.59
740.045	2814.08
740.23	2717.83
740.416	2658.43
740.601	2672.77
740.786	2732.16
740.972	2707.59
741.157	2668.67
741.342	2564.23
741.528	2746.5
741.713	2752.64
741.898	2623.62
742.084	2660.48
742.269	2617.47
742.454	2519.17
742.639	2695.3
742.824	2723.97
743.01	2580.61
743.195	2650.24
743.38	2627.71
743.565	2553.99
743.75	2603.14
743.935	2570.37
744.12	2556.04
744.305	2418.82
744.49	2467.97
744.675	2392.2
744.86	2445.45
745.045	2531.46
745.23	2508.93
745.415	2510.98
745.6	2441.35
745.785	2310.28
745.97	2310.28
746.155	2570.37
746.34	2470.02
746.525	2316.42
746.71	2263.18
746.895	2222.22
747.079	2441.35
747.264	2320.52
747.449	2439.3
747.634	2257.03
747.819	2236.55
748.003	2310.28
748.188	2289.8
748.373	2236.55
748.557	2242.7
748.742	2164.87
748.927	2168.97
749.111	2060.43
749.296	2097.29
749.481	2252.94
749.665	2125.96
749.85	2044.04
750.034	2177.16
750.219	2193.55
750.404	2183.31
750.588	2142.35
750.773	2037.9
750.957	1953.93
751.141	2019.47
751.326	1921.17
751.51	1818.77
751.695	1923.21
751.879	1876.11
752.064	2021.52
752.248	1878.16
752.432	1878.16
752.617	1951.88
752.801	1923.21
752.985	1945.74
753.17	1894.54
753.354	1863.82
753.538	1869.97
753.722	1890.45
753.907	1732.75
754.091	1687.7
754.275	1757.33
754.459	1831.05
754.643	1800.34
754.828	1667.22
755.012	1759.38
755.196	1663.12
755.38	1710.22
755.564	1714.32
755.748	1636.5
755.932	1689.74
756.116	1712.27
756.3	1659.03
756.484	1659.03
756.668	1716.37
756.852	1540.24
757.036	1656.98
757.22	1646.74
757.404	1634.45
757.588	1515.67
757.772	1562.77
757.956	1636.5
758.14	1634.45
758.323	1560.72
758.507	1538.2
758.691	1519.76
758.875	1460.37
759.059	1646.74
759.242	1480.85
759.426	1521.81
759.61	1384.6
759.794	1466.52
759.977	1482.9
760.161	1570.96
760.345	1523.86
760.528	1489.04
760.712	1511.57
760.895	1407.13
761.079	1458.32
761.263	1439.89
761.446	1446.04
761.63	1400.98
761.813	1429.65
761.997	1347.73
762.18	1319.06
762.364	1446.04
762.547	1255.58
762.731	1282.2
762.914	1300.63
763.098	1345.69
763.281	1290.39
763.464	1296.53
763.648	1271.96
763.831	1249.43
764.015	1357.97
764.198	1351.83
764.381	1276.06
764.564	1292.44
764.748	1206.42
764.931	1304.73
765.114	1245.34
765.297	1267.86
765.481	1190.04
765.664	1292.44
765.847	1235.1
766.03	1296.53
766.213	1187.99
766.397	1231
766.58	1171.61
766.763	1220.76
766.946	1235.1
767.129	1177.75
767.312	1132.7
767.495	1247.38
767.678	1194.14
767.861	1085.59
768.044	1187.99
768.227	1228.95
768.41	1218.71
768.593	1228.95
768.776	1175.7
768.959	1118.36
769.142	1108.12
769.324	1177.75
769.507	1083.55
769.69	1200.28
769.873	1116.31
770.056	1118.36
770.239	1003.68
770.421	1157.27
770.604	1097.88
770.787	1206.42
770.97	1106.07
771.152	1009.82
771.335	1058.97
771.518	1091.74
771.7	1122.46
771.883	1075.35
772.066	1089.69
772.248	1038.49
772.431	1091.74
772.613	1015.96
772.796	970.91
772.978	1067.16
773.161	1128.6
773.343	958.62
773.526	917.66
773.708	886.94
773.891	897.18
774.073	1056.92
774.256	1097.88
774.438	1097.88
774.621	981.15
774.803	911.52
774.985	1087.64
775.168	983.2
775.35	891.04
775.532	903.32
775.715	829.6
775.897	970.91
776.079	954.52
776.261	954.52
776.444	899.23
776.626	895.13
776.808	825.5
776.99	905.37
777.173	794.78
777.355	895.13
777.537	954.52
777.719	825.5
777.901	866.46
778.083	835.74
778.265	788.64
778.447	800.93
778.629	809.12
778.811	815.26
778.993	839.84
779.175	852.13
779.357	882.85
779.539	700.58
779.721	741.54
779.903	819.36
780.085	772.25
780.267	786.59
780.449	768.16
780.631	700.58
780.812	692.38
780.994	657.57
781.176	805.02
781.358	766.11
781.54	739.49
781.721	782.49
781.903	757.92
782.085	729.25
782.267	694.43
782.448	653.47
782.63	780.45
782.812	630.95
782.993	768.16
783.175	716.96
783.357	657.57
783.538	626.85
783.72	581.79
783.901	618.66
784.083	657.57
784.264	610.47
784.446	587.94
784.627	602.27
784.809	542.88
784.99	571.55
785.172	686.24
785.353	673.95
785.535	606.37
785.716	565.41
785.897	522.4
786.079	565.41
786.26	520.35
786.441	632.99
786.623	428.2
786.804	561.31
786.985	530.59
787.167	508.07
787.348	510.11
787.529	493.73
787.71	643.23
787.891	493.73
788.073	495.78
788.254	460.96
788.435	608.42
788.616	544.93
788.797	475.3
788.978	551.07
789.159	428.2
789.34	510.11
789.522	526.5
789.703	501.92
789.884	422.05
790.065	499.88
790.246	549.03
790.427	432.29
790.607	524.45
790.788	407.72
790.969	436.39
791.15	489.64
791.331	432.29
791.512	452.77
791.693	452.77
791.874	436.39
792.054	563.36
792.235	434.34
792.416	379.04
792.597	442.53
792.778	389.28
792.958	522.4
793.139	436.39
793.32	446.63
793.5	381.09
793.681	442.53
793.862	442.53
794.042	438.44
794.223	327.85
794.404	432.29
794.584	354.47
794.765	463.01
794.945	333.99
795.126	420
795.306	469.16
795.487	297.13
795.667	305.32
795.848	352.42
796.028	420
796.209	383.14
796.389	413.86
796.57	420
796.75	309.41
796.93	352.42
797.111	293.03
797.291	362.66
797.471	362.66
797.652	403.62
797.832	317.61
798.012	426.15
798.192	307.37
798.373	305.32
798.553	383.14
798.733	405.67
798.913	340.13
799.093	358.57
799.274	311.46
799.454	295.08
799.634	317.61
799.814	397.48
799.994	325.8
800.174	336.04
800.354	237.74
800.534	256.17
800.714	342.18
800.894	354.47
801.074	264.36
801.254	270.5
801.434	317.61
801.614	250.02
801.794	254.12
801.974	1187.99
802.154	245.93
802.334	293.03
802.514	270.5
802.693	303.27
802.873	293.03
803.053	329.89
803.233	295.08
803.413	297.13
803.592	297.13
803.772	301.22
803.952	323.75
804.131	188.58
804.311	260.26
804.491	411.81
804.67	266.41
804.85	237.74
805.03	286.89
805.209	389.28
805.389	268.45
805.568	250.02
805.748	219.3
805.928	231.59
806.107	270.5
806.287	211.11
806.466	268.45
806.646	295.08
806.825	325.8
807.004	217.26
807.184	288.93
807.363	276.65
807.543	237.74
807.722	186.54
807.901	313.51
808.081	219.3
808.26	194.73
808.439	256.17
808.619	231.59
808.798	184.49
808.977	239.78
809.156	247.97
809.336	280.74
809.515	284.84
809.694	180.39
809.873	207.02
810.052	143.53
810.231	338.09
810.411	245.93
810.59	223.4
810.769	209.06
810.948	178.34
811.127	164.01
811.306	168.1
811.485	217.26
811.664	268.45
811.843	198.82
812.022	254.12
812.201	223.4
812.38	32.94
812.559	151.72
812.737	223.4
812.916	137.38
813.095	170.15
813.274	204.97
813.453	211.11
813.632	204.97
813.811	182.44
813.989	121
814.168	204.97
814.347	104.62
814.526	172.2
814.704	204.97
814.883	278.69
815.062	133.29
815.24	270.5
815.419	90.28
815.598	239.78
815.776	129.19
815.955	221.35
816.133	118.95
816.312	176.3
816.49	116.9
816.669	211.11
816.847	157.86
817.026	282.79
817.204	133.29
817.383	196.78
817.561	223.4
817.74	188.58
817.918	237.74
818.097	123.05
818.275	63.66
818.453	102.57
818.632	125.1
818.81	157.86
818.988	155.82
819.167	116.9
819.345	190.63
819.523	133.29
819.701	168.1
819.879	243.88
820.058	96.43
820.236	129.19
820.414	127.14
820.592	141.48
820.77	168.1
820.948	147.62
821.127	71.85
821.305	112.81
821.483	135.34
821.661	159.91
821.839	221.35
822.017	131.24
822.195	102.57
822.373	143.53
822.551	98.47
822.729	118.95
822.907	149.67
823.085	92.33
823.262	133.29
823.44	55.47
823.618	100.52
823.796	157.86
823.974	90.28
824.152	65.71
824.329	196.78
824.507	145.58
824.685	149.67
824.863	73.9
825.04	198.82
825.218	172.2
825.396	125.1
825.574	166.06
825.751	155.82
825.929	131.24
826.107	157.86
826.284	151.72
826.462	151.72
826.639	55.47
826.817	57.51
826.994	145.58
827.172	147.62
827.349	121
827.527	180.39
827.704	147.62
827.882	274.6
828.059	55.47
828.237	123.05
828.414	121
828.591	65.71
828.769	108.71
828.946	53.42
829.124	196.78
829.301	141.48
829.478	65.71
829.655	92.33
829.833	61.61
830.01	24.75
830.187	133.29
830.364	96.43
830.542	166.06
830.719	188.58
830.896	90.28
831.073	157.86
831.25	110.76
831.427	114.86
831.604	71.85
831.782	0.17
831.959	180.39
832.136	61.61
832.313	116.9
832.49	82.09
832.667	57.51
832.844	59.56
833.021	262.31
833.198	125.1
833.374	110.76
833.551	84.14
833.728	104.62
833.905	131.24
834.082	-30.55
834.259	102.57
834.436	63.66
834.612	59.56
834.789	129.19
834.966	59.56
835.143	75.95
835.319	55.47
835.496	69.8
835.673	186.54
835.85	61.61
836.026	71.85
836.203	43.18
836.38	-5.97
836.556	47.27
836.733	20.65
836.909	159.91
837.086	47.27
837.262	12.46
837.439	77.99
837.616	28.84
837.792	41.13
837.968	96.43
838.145	43.18
838.321	26.79
838.498	55.47
838.674	51.37
838.851	90.28
839.027	137.38
839.203	86.19
839.38	63.66
839.556	45.23
839.732	16.55
839.909	71.85
840.085	18.6
840.261	63.66
840.437	2.22
840.614	59.56
840.79	88.23
840.966	30.89
841.142	75.95
841.318	75.95
841.494	49.32
841.671	139.43
841.847	69.8
842.023	24.75
842.199	86.19
842.375	104.62
842.551	45.23
842.727	-22.36
842.903	137.38
843.079	16.55
843.255	90.28
843.431	75.95
843.607	96.43
843.783	-3.93
843.959	143.53
844.134	71.85
844.31	116.9
844.486	77.99
844.662	39.08
844.838	112.81
845.013	65.71
845.189	20.65
845.365	121
845.541	63.66
845.716	102.57
845.892	47.27
846.068	-8.02
846.244	0.17
846.419	127.14
846.595	41.13
846.77	63.66
846.946	43.18
847.122	-59.22
847.297	26.79
847.473	57.51
847.648	-3.93
847.824	73.9
847.999	8.36
848.175	32.94
848.35	88.23
848.526	123.05
848.701	57.51
848.876	90.28
849.052	73.9
849.227	114.86
849.403	53.42
849.578	-5.97
849.753	73.9
849.929	104.62
850.104	47.27
850.279	45.23
850.454	55.47
850.63	110.76
850.805	43.18
850.98	12.46
851.155	2.22
851.33	-51.03
851.505	75.95
851.681	63.66
851.856	84.14
852.031	18.6
852.206	63.66
852.381	-8.02
852.556	94.38
852.731	92.33
852.906	102.57
853.081	116.9
853.256	141.48
853.431	49.32
853.606	-3.93
853.781	32.94
853.956	-32.6
854.131	16.55
854.305	-46.93
854.48	65.71
854.655	-73.56
854.83	65.71
855.005	14.51
855.18	-8.02
855.354	39.08
855.529	41.13
855.704	34.99
855.879	34.99
856.053	-3.93
856.228	32.94
856.403	-3.93
856.577	86.19
856.752	-46.93
856.926	-12.12
857.101	49.32
857.276	75.95
857.45	77.99
857.625	114.86
857.799	92.33
857.974	-1.88
858.148	-69.46
858.323	65.71
858.497	-30.55
858.672	69.8
858.846	12.46
859.02	26.79
859.195	-42.84
859.369	86.19
859.543	45.23
859.718	-8.02
859.892	22.7
860.066	55.47
860.241	41.13
860.415	57.51
860.589	-14.17
860.763	45.23
860.938	22.7
861.112	32.94
861.286	24.75
861.46	57.51
861.634	12.46
861.808	92.33
861.982	26.79
862.157	-44.88
862.331	-3.93
862.505	-38.74
862.679	-22.36
862.853	53.42
863.027	30.89
863.201	88.23
863.375	-36.69
863.549	37.03
863.722	22.7
863.896	67.75
864.07	-3.93
864.244	41.13
864.418	53.42
864.592	22.7
864.766	16.55
864.939	-5.97
865.113	55.47
865.287	57.51
865.461	-14.17
865.634	8.36
865.808	8.36
865.982	14.51
866.156	-16.21
866.329	12.46
866.503	-8.02
866.676	34.99
866.85	12.46
867.024	16.55
867.197	34.99
867.371	65.71
867.544	30.89
867.718	-34.64
867.891	57.51
868.065	-53.08
868.238	14.51
868.412	100.52
868.585	86.19
868.759	28.84
868.932	-16.21
869.105	-28.5
869.279	45.23
869.452	-42.84
869.625	20.65
869.799	-14.17
869.972	20.65
870.145	24.75
870.319	16.55
870.492	14.51
870.665	18.6
870.838	43.18
871.011	-87.89
871.185	34.99
871.358	-24.4
871.531	-20.31
871.704	16.55
871.877	37.03
872.05	-57.17
872.223	-48.98
872.396	39.08
872.569	20.65
872.742	-75.6
872.915	10.41
873.088	24.75
873.261	10.41
873.434	127.14
873.607	34.99
873.78	49.32
873.953	-22.36
874.126	22.7
874.299	-22.36
874.471	-1.88
874.644	-8.02
874.817	59.56
874.99	141.48
875.163	2.22
875.335	-5.97
875.508	55.47
875.681	14.51
875.853	20.65
876.026	-18.26
876.199	84.14
876.371	37.03
876.544	-20.31
876.717	49.32
876.889	32.94
877.062	-36.69
877.234	-24.4
877.407	43.18
877.579	-26.45
877.752	69.8
877.924	104.62
878.097	-55.12
878.269	-81.75
878.442	8.36
878.614	2.22
878.786	61.61
878.959	-32.6
879.131	43.18
879.303	-1.88
879.476	37.03
879.648	67.75
879.82	73.9
879.993	-77.65
880.165	55.47
880.337	-69.46
880.509	37.03
880.681	-73.56
880.854	-38.74
881.026	-1.88
881.198	125.1
881.37	2.22
881.542	41.13
881.714	-44.88
881.886	-36.69
882.058	55.47
882.23	-14.17
882.402	6.31
882.574	-61.27
882.746	-14.17
882.918	10.41
883.09	34.99
883.262	84.14
883.434	-30.55
883.606	-106.32
883.778	-51.03
883.95	53.42
884.122	4.27
884.293	18.6
884.465	2.22
884.637	108.71
884.809	-94.04
884.98	-16.21
885.152	88.23
885.324	10.41
885.496	-26.45
885.667	-3.93
885.839	-85.84
886.011	57.51
886.182	0.17
886.354	39.08
886.525	18.6
886.697	37.03
886.869	-1.88
887.04	26.79
887.212	4.27
887.383	49.32
887.555	0.17
887.726	8.36
887.897	82.09
888.069	-42.84
888.24	47.27
888.412	16.55
888.583	-10.07
888.754	-79.7
888.926	-38.74
889.097	-18.26
889.268	-38.74
889.44	-20.31
889.611	-48.98
889.782	-40.79
889.953	-14.17
890.125	71.85
890.296	-67.41
890.467	32.94
890.638	-36.69
890.809	30.89
890.98	-108.37
891.151	34.99
891.323	34.99
891.494	28.84
891.665	-14.17
891.836	18.6
892.007	-24.4
892.178	90.28
892.349	34.99
892.52	-26.45
892.691	-42.84
892.862	-10.07
893.032	-128.85
893.203	-40.79
893.374	2.22
893.545	80.04
893.716	-63.32
893.887	14.51
894.057	-5.97
894.228	-32.6
894.399	-34.64
894.57	63.66
894.74	12.46
894.911	49.32
895.082	10.41
895.253	-24.4
895.423	-3.93
895.594	6.31
895.764	63.66
895.935	-12.12
896.106	-12.12
896.276	49.32
896.447	4.27
896.617	-8.02
896.788	-57.17
896.958	102.57
897.129	-26.45
897.299	-30.55
897.47	32.94
897.64	37.03
897.81	-42.84
897.981	-8.02
898.151	-3.93
898.322	-48.98
898.492	-3.93
898.662	-42.84
898.832	75.95
899.003	12.46
899.173	0.17
899.343	-48.98
899.513	-79.7
