Data from USB4F104151__37__12-11-59-507.txt Node

Date: Fri Mar 14 12:11:59 EDT 2025
User: louis
Spectrometer: USB4F10415
Trigger mode: 4
Integration Time (sec): 5.000000E-2
Scans to average: 1
Electric dark correction enabled: true
Nonlinearity correction enabled: false
Boxcar width: 0
XAxis mode: Wavelengths
Number of Pixels in Spectrum: 3648
>>>>>Begin Spectral Data<<<<<
178.204	-270.16
178.424	-270.16
178.644	-270.16
178.864	-210.77
179.084	-196.43
179.304	-16.21
179.524	-40.79
179.744	-8.02
179.964	92.33
180.184	28.84
180.404	77.99
180.624	18.6
180.844	-10.07
181.064	-26.45
181.283	-38.74
181.503	-77.65
181.723	0.17
181.943	-132.95
182.163	92.33
182.383	-36.69
182.602	16.55
182.822	65.71
183.042	-8.02
183.262	-40.79
183.482	-63.32
183.701	-18.26
183.921	125.1
184.141	47.27
184.361	71.85
184.58	61.61
184.8	24.75
185.02	-30.55
185.239	84.14
185.459	80.04
185.679	34.99
185.898	-36.69
186.118	12.46
186.338	10.41
186.557	73.9
186.777	-22.36
186.997	12.46
187.216	-3.93
187.436	145.58
187.655	2.22
187.875	108.71
188.095	26.79
188.314	49.32
188.534	135.34
188.753	-24.4
188.973	18.6
189.192	135.34
189.412	-34.64
189.631	55.47
189.851	10.41
190.07	49.32
190.29	-28.5
190.509	84.14
190.729	12.46
190.948	110.76
191.168	262.31
191.387	69.8
191.607	34.99
191.826	88.23
192.045	16.55
192.265	-1.88
192.484	26.79
192.704	49.32
192.923	16.55
193.142	67.75
193.362	90.28
193.581	43.18
193.8	61.61
194.02	65.71
194.239	14.51
194.458	65.71
194.678	94.38
194.897	14.51
195.116	75.95
195.335	28.84
195.555	49.32
195.774	43.18
195.993	55.47
196.212	-1.88
196.432	14.51
196.651	28.84
196.87	28.84
197.089	188.58
197.308	71.85
197.528	0.17
197.747	-57.17
197.966	2.22
198.185	104.62
198.404	20.65
198.623	77.99
198.842	84.14
199.062	45.23
199.281	71.85
199.5	-3.93
199.719	41.13
199.938	49.32
200.157	104.62
200.376	-14.17
200.595	86.19
200.814	88.23
201.033	18.6
201.252	24.75
201.471	26.79
201.69	90.28
201.909	106.67
202.128	59.56
202.347	-24.4
202.566	-34.64
202.785	2.22
203.004	-87.89
203.223	135.34
203.442	34.99
203.661	-14.17
203.879	14.51
204.098	28.84
204.317	32.94
204.536	100.52
204.755	80.04
204.974	43.18
205.193	71.85
205.411	164.01
205.63	14.51
205.849	-3.93
206.068	8.36
206.287	47.27
206.505	86.19
206.724	55.47
206.943	90.28
207.162	10.41
207.381	0.17
207.599	43.18
207.818	4.27
208.037	20.65
208.255	0.17
208.474	12.46
208.693	16.55
208.911	24.75
209.13	47.27
209.349	-5.97
209.567	129.19
209.786	51.37
210.005	84.14
210.223	-16.21
210.442	14.51
210.661	73.9
210.879	18.6
211.098	24.75
211.316	24.75
211.535	51.37
211.753	12.46
211.972	102.57
212.191	63.66
212.409	45.23
212.628	20.65
212.846	10.41
213.065	41.13
213.283	26.79
213.502	-14.17
213.72	59.56
213.938	-22.36
214.157	39.08
214.375	51.37
214.594	90.28
214.812	84.14
215.031	18.6
215.249	39.08
215.467	22.7
215.686	16.55
215.904	16.55
216.122	-5.97
216.341	90.28
216.559	77.99
216.778	57.51
216.996	80.04
217.214	-65.36
217.432	-3.93
217.651	-57.17
217.869	28.84
218.087	12.46
218.306	-34.64
218.524	45.23
218.742	26.79
218.96	84.14
219.179	26.79
219.397	28.84
219.615	61.61
219.833	8.36
220.051	32.94
220.27	82.09
220.488	37.03
220.706	28.84
220.924	-16.21
221.142	51.37
221.36	65.71
221.578	77.99
221.796	16.55
222.015	6.31
222.233	-14.17
222.451	123.05
222.669	-32.6
222.887	100.52
223.105	53.42
223.323	47.27
223.541	-28.5
223.759	55.47
223.977	80.04
224.195	90.28
224.413	39.08
224.631	114.86
224.849	57.51
225.067	110.76
225.285	-71.51
225.503	41.13
225.721	-128.85
225.939	30.89
226.157	41.13
226.375	164.01
226.592	-57.17
226.81	90.28
227.028	98.47
227.246	84.14
227.464	14.51
227.682	0.17
227.9	47.27
228.117	69.8
228.335	6.31
228.553	37.03
228.771	-34.64
228.989	39.08
229.206	-8.02
229.424	24.75
229.642	-5.97
229.86	47.27
230.077	98.47
230.295	41.13
230.513	61.61
230.731	-28.5
230.948	92.33
231.166	82.09
231.384	-14.17
231.601	-32.6
231.819	90.28
232.037	-42.84
232.254	22.7
232.472	28.84
232.689	71.85
232.907	96.43
233.125	18.6
233.342	28.84
233.56	22.7
233.777	34.99
233.995	18.6
234.213	8.36
234.43	-8.02
234.648	22.7
234.865	61.61
235.083	16.55
235.3	41.13
235.518	92.33
235.735	102.57
235.953	51.37
236.17	41.13
236.388	-61.27
236.605	-3.93
236.822	121
237.04	32.94
237.257	37.03
237.475	39.08
237.692	67.75
237.909	77.99
238.127	45.23
238.344	82.09
238.562	129.19
238.779	8.36
238.996	-8.02
239.214	41.13
239.431	71.85
239.648	-18.26
239.865	67.75
240.083	-12.12
240.3	-32.6
240.517	-14.17
240.735	22.7
240.952	96.43
241.169	121
241.386	37.03
241.603	71.85
241.821	-61.27
242.038	100.52
242.255	73.9
242.472	32.94
242.689	69.8
242.907	51.37
243.124	57.51
243.341	-20.31
243.558	-12.12
243.775	8.36
243.992	-22.36
244.209	65.71
244.426	98.47
244.643	-14.17
244.86	-3.93
245.078	24.75
245.295	43.18
245.512	75.95
245.729	-12.12
245.946	-30.55
246.163	-5.97
246.38	0.17
246.597	57.51
246.814	69.8
247.031	14.51
247.248	63.66
247.464	61.61
247.681	43.18
247.898	55.47
248.115	61.61
248.332	14.51
248.549	20.65
248.766	114.86
248.983	102.57
249.2	-1.88
249.417	34.99
249.633	28.84
249.85	32.94
250.067	28.84
250.284	49.32
250.501	67.75
250.717	34.99
250.934	16.55
251.151	86.19
251.368	-40.79
251.585	4.27
251.801	8.36
252.018	-1.88
252.235	112.81
252.451	-83.8
252.668	-32.6
252.885	92.33
253.102	49.32
253.318	-22.36
253.535	49.32
253.752	16.55
253.968	26.79
254.185	-114.52
254.401	10.41
254.618	80.04
254.835	-36.69
255.051	63.66
255.268	65.71
255.484	10.41
255.701	96.43
255.917	75.95
256.134	49.32
256.351	71.85
256.567	14.51
256.784	12.46
257	-44.88
257.217	96.43
257.433	67.75
257.65	28.84
257.866	84.14
258.082	18.6
258.299	-3.93
258.515	47.27
258.732	26.79
258.948	-46.93
259.165	114.86
259.381	16.55
259.597	96.43
259.814	6.31
260.03	61.61
260.246	-12.12
260.463	63.66
260.679	2.22
260.895	47.27
261.112	61.61
261.328	43.18
261.544	14.51
261.761	32.94
261.977	6.31
262.193	-8.02
262.409	-8.02
262.626	88.23
262.842	-10.07
263.058	-3.93
263.274	20.65
263.49	82.09
263.707	108.71
263.923	53.42
264.139	-59.22
264.355	18.6
264.571	82.09
264.787	-10.07
265.004	41.13
265.22	49.32
265.436	30.89
265.652	-8.02
265.868	41.13
266.084	-38.74
266.3	112.81
266.516	0.17
266.732	8.36
266.948	-24.4
267.164	59.56
267.38	69.8
267.596	92.33
267.812	123.05
268.028	-55.12
268.244	-18.26
268.46	-5.97
268.676	100.52
268.892	41.13
269.108	61.61
269.324	-40.79
269.54	-3.93
269.756	65.71
269.972	24.75
270.188	24.75
270.403	26.79
270.619	75.95
270.835	34.99
271.051	26.79
271.267	10.41
271.483	39.08
271.698	16.55
271.914	69.8
272.13	37.03
272.346	49.32
272.562	49.32
272.777	112.81
272.993	-16.21
273.209	108.71
273.425	26.79
273.64	-5.97
273.856	80.04
274.072	-12.12
274.287	34.99
274.503	-57.17
274.719	32.94
274.934	49.32
275.15	-77.65
275.366	106.67
275.581	-1.88
275.797	18.6
276.012	-42.84
276.228	-46.93
276.444	-10.07
276.659	102.57
276.875	12.46
277.09	0.17
277.306	0.17
277.521	30.89
277.737	45.23
277.952	28.84
278.168	100.52
278.383	-28.5
278.599	49.32
278.814	57.51
279.03	-40.79
279.245	20.65
279.461	6.31
279.676	129.19
279.892	34.99
280.107	-46.93
280.322	-3.93
280.538	125.1
280.753	10.41
280.969	-73.56
281.184	22.7
281.399	168.1
281.615	6.31
281.83	77.99
282.045	-18.26
282.26	51.37
282.476	18.6
282.691	57.51
282.906	14.51
283.122	37.03
283.337	45.23
283.552	102.57
283.767	22.7
283.983	102.57
284.198	18.6
284.413	61.61
284.628	-14.17
284.843	49.32
285.058	118.95
285.274	26.79
285.489	-28.5
285.704	41.13
285.919	51.37
286.134	80.04
286.349	53.42
286.564	-12.12
286.779	84.14
286.995	37.03
287.21	-12.12
287.425	-20.31
287.64	-28.5
287.855	45.23
288.07	-36.69
288.285	53.42
288.5	73.9
288.715	-57.17
288.93	6.31
289.145	51.37
289.36	65.71
289.575	43.18
289.79	98.47
290.004	43.18
290.219	45.23
290.434	12.46
290.649	14.51
290.864	37.03
291.079	-30.55
291.294	16.55
291.509	26.79
291.724	28.84
291.938	65.71
292.153	14.51
292.368	67.75
292.583	65.71
292.798	106.67
293.012	96.43
293.227	-10.07
293.442	22.7
293.657	57.51
293.871	100.52
294.086	0.17
294.301	131.24
294.516	24.75
294.73	47.27
294.945	8.36
295.16	-1.88
295.374	116.9
295.589	112.81
295.804	-1.88
296.018	43.18
296.233	155.82
296.447	22.7
296.662	-48.98
296.877	137.38
297.091	51.37
297.306	14.51
297.52	49.32
297.735	-14.17
297.949	59.56
298.164	45.23
298.378	30.89
298.593	10.41
298.807	-3.93
299.022	-53.08
299.236	80.04
299.451	8.36
299.665	-24.4
299.88	-32.6
300.094	-18.26
300.309	61.61
300.523	37.03
300.737	16.55
300.952	16.55
301.166	106.67
301.381	47.27
301.595	8.36
301.809	30.89
302.024	2.22
302.238	39.08
302.452	41.13
302.667	2.22
302.881	51.37
303.095	43.18
303.309	22.7
303.524	28.84
303.738	8.36
303.952	-96.08
304.166	28.84
304.381	-10.07
304.595	69.8
304.809	2.22
305.023	32.94
305.237	24.75
305.452	4.27
305.666	8.36
305.88	61.61
306.094	41.13
306.308	118.95
306.522	77.99
306.736	2.22
306.95	-28.5
307.164	26.79
307.379	41.13
307.593	123.05
307.807	98.47
308.021	41.13
308.235	106.67
308.449	-63.32
308.663	67.75
308.877	102.57
309.091	71.85
309.305	-26.45
309.519	-67.41
309.733	75.95
309.947	-69.46
310.161	51.37
310.374	59.56
310.588	53.42
310.802	22.7
311.016	61.61
311.23	80.04
311.444	0.17
311.658	92.33
311.872	86.19
312.085	82.09
312.299	71.85
312.513	161.96
312.727	59.56
312.941	0.17
313.154	39.08
313.368	98.47
313.582	16.55
313.796	53.42
314.009	59.56
314.223	61.61
314.437	49.32
314.651	69.8
314.864	0.17
315.078	55.47
315.292	4.27
315.505	-83.8
315.719	16.55
315.933	18.6
316.146	-22.36
316.36	39.08
316.573	55.47
316.787	39.08
317.001	69.8
317.214	-14.17
317.428	-26.45
317.641	-69.46
317.855	61.61
318.068	30.89
318.282	96.43
318.495	41.13
318.709	108.71
318.922	-3.93
319.136	63.66
319.349	145.58
319.563	61.61
319.776	82.09
319.99	59.56
320.203	34.99
320.417	26.79
320.63	26.79
320.843	61.61
321.057	-10.07
321.27	77.99
321.483	22.7
321.697	65.71
321.91	47.27
322.124	88.23
322.337	98.47
322.55	-65.36
322.763	32.94
322.977	63.66
323.19	-51.03
323.403	63.66
323.617	26.79
323.83	63.66
324.043	47.27
324.256	63.66
324.469	-32.6
324.683	116.9
324.896	-8.02
325.109	-34.64
325.322	-20.31
325.535	98.47
325.748	24.75
325.962	55.47
326.175	39.08
326.388	61.61
326.601	96.43
326.814	6.31
327.027	8.36
327.24	104.62
327.453	30.89
327.666	61.61
327.879	75.95
328.092	41.13
328.305	10.41
328.518	22.7
328.731	-22.36
328.944	57.51
329.157	43.18
329.37	34.99
329.583	114.86
329.796	131.24
330.009	-40.79
330.222	61.61
330.435	34.99
330.648	84.14
330.861	80.04
331.073	121
331.286	37.03
331.499	49.32
331.712	37.03
331.925	114.86
332.138	10.41
332.35	82.09
332.563	0.17
332.776	90.28
332.989	-18.26
333.202	-14.17
333.414	86.19
333.627	96.43
333.84	75.95
334.053	75.95
334.265	-20.31
334.478	45.23
334.691	49.32
334.903	-12.12
335.116	8.36
335.329	59.56
335.541	10.41
335.754	108.71
335.966	6.31
336.179	-12.12
336.392	-28.5
336.604	94.38
336.817	135.34
337.029	28.84
337.242	118.95
337.454	39.08
337.667	26.79
337.88	143.53
338.092	47.27
338.305	69.8
338.517	-63.32
338.729	55.47
338.942	92.33
339.154	84.14
339.367	20.65
339.579	18.6
339.792	2.22
340.004	61.61
340.217	75.95
340.429	-16.21
340.641	-5.97
340.854	8.36
341.066	51.37
341.278	88.23
341.491	125.1
341.703	55.47
341.915	4.27
342.128	94.38
342.34	2.22
342.552	8.36
342.764	53.42
342.977	28.84
343.189	110.76
343.401	55.47
343.613	69.8
343.826	104.62
344.038	16.55
344.25	118.95
344.462	41.13
344.674	45.23
344.886	10.41
345.099	98.47
345.311	84.14
345.523	65.71
345.735	-22.36
345.947	102.57
346.159	8.36
346.371	77.99
346.583	47.27
346.795	180.39
347.007	6.31
347.219	71.85
347.431	84.14
347.643	71.85
347.855	0.17
348.067	63.66
348.279	-10.07
348.491	45.23
348.703	123.05
348.915	96.43
349.127	43.18
349.339	49.32
349.551	2.22
349.763	133.29
349.975	16.55
350.187	96.43
350.399	100.52
350.61	139.43
350.822	14.51
351.034	63.66
351.246	41.13
351.458	24.75
351.669	6.31
351.881	71.85
352.093	133.29
352.305	92.33
352.517	67.75
352.728	147.62
352.94	61.61
353.152	73.9
353.363	8.36
353.575	94.38
353.787	149.67
353.999	75.95
354.21	102.57
354.422	67.75
354.633	47.27
354.845	-24.4
355.057	37.03
355.268	47.27
355.48	45.23
355.692	-16.21
355.903	37.03
356.115	-59.22
356.326	-32.6
356.538	69.8
356.749	94.38
356.961	77.99
357.172	61.61
357.384	59.56
357.595	153.77
357.807	0.17
358.018	-26.45
358.23	57.51
358.441	161.96
358.653	106.67
358.864	55.47
359.075	59.56
359.287	104.62
359.498	88.23
359.709	39.08
359.921	43.18
360.132	12.46
360.344	32.94
360.555	-32.6
360.766	37.03
360.977	59.56
361.189	59.56
361.4	47.27
361.611	49.32
361.823	88.23
362.034	94.38
362.245	4.27
362.456	53.42
362.667	2.22
362.879	20.65
363.09	77.99
363.301	43.18
363.512	57.51
363.723	32.94
363.935	30.89
364.146	18.6
364.357	-5.97
364.568	51.37
364.779	-30.55
364.99	67.75
365.201	-22.36
365.412	141.48
365.623	39.08
365.834	102.57
366.045	121
366.256	18.6
366.467	45.23
366.678	41.13
366.889	18.6
367.1	37.03
367.311	143.53
367.522	49.32
367.733	73.9
367.944	69.8
368.155	37.03
368.366	45.23
368.577	57.51
368.788	98.47
368.999	-42.84
369.209	18.6
369.42	112.81
369.631	166.06
369.842	63.66
370.053	24.75
370.264	106.67
370.474	49.32
370.685	-14.17
370.896	77.99
371.107	94.38
371.317	135.34
371.528	26.79
371.739	106.67
371.95	145.58
372.16	49.32
372.371	4.27
372.582	30.89
372.792	108.71
373.003	88.23
373.214	67.75
373.424	121
373.635	-20.31
373.846	73.9
374.056	-1.88
374.267	2.22
374.477	98.47
374.688	53.42
374.898	75.95
375.109	34.99
375.319	24.75
375.53	49.32
375.74	53.42
375.951	8.36
376.161	47.27
376.372	75.95
376.582	24.75
376.793	-12.12
377.003	28.84
377.214	16.55
377.424	12.46
377.635	0.17
377.845	-55.12
378.055	88.23
378.266	59.56
378.476	-5.97
378.686	-14.17
378.897	84.14
379.107	114.86
379.317	88.23
379.528	-18.26
379.738	67.75
379.948	-28.5
380.158	51.37
380.369	39.08
380.579	71.85
380.789	22.7
380.999	100.52
381.21	47.27
381.42	149.67
381.63	16.55
381.84	100.52
382.05	125.1
382.261	86.19
382.471	32.94
382.681	-8.02
382.891	45.23
383.101	84.14
383.311	-100.18
383.521	2.22
383.731	69.8
383.941	20.65
384.151	73.9
384.361	-5.97
384.571	82.09
384.781	12.46
384.991	88.23
385.201	123.05
385.411	88.23
385.621	94.38
385.831	26.79
386.041	6.31
386.251	71.85
386.461	141.48
386.671	55.47
386.881	84.14
387.091	77.99
387.301	45.23
387.511	69.8
387.72	63.66
387.93	82.09
388.14	-28.5
388.35	90.28
388.56	82.09
388.769	172.2
388.979	106.67
389.189	-12.12
389.399	32.94
389.609	116.9
389.818	82.09
390.028	26.79
390.238	100.52
390.447	77.99
390.657	67.75
390.867	-53.08
391.076	0.17
391.286	30.89
391.496	98.47
391.705	86.19
391.915	161.96
392.125	155.82
392.334	-22.36
392.544	106.67
392.753	65.71
392.963	0.17
393.172	90.28
393.382	65.71
393.591	86.19
393.801	37.03
394.01	121
394.22	94.38
394.429	125.1
394.639	26.79
394.848	34.99
395.058	75.95
395.267	67.75
395.477	143.53
395.686	94.38
395.895	196.78
396.105	114.86
396.314	88.23
396.524	127.14
396.733	47.27
396.942	71.85
397.152	129.19
397.361	153.77
397.57	47.27
397.78	49.32
397.989	112.81
398.198	192.68
398.407	125.1
398.617	63.66
398.826	65.71
399.035	71.85
399.244	143.53
399.453	102.57
399.663	159.91
399.872	143.53
400.081	125.1
400.29	168.1
400.499	39.08
400.708	155.82
400.917	159.91
401.127	47.27
401.336	145.58
401.545	207.02
401.754	123.05
401.963	112.81
402.172	90.28
402.381	82.09
402.59	86.19
402.799	180.39
403.008	153.77
403.217	135.34
403.426	139.43
403.635	123.05
403.844	104.62
404.053	207.02
404.262	53.42
404.471	221.35
404.68	73.9
404.888	172.2
405.097	141.48
405.306	96.43
405.515	170.15
405.724	184.49
405.933	202.92
406.142	108.71
406.35	200.87
406.559	194.73
406.768	190.63
406.977	268.45
407.185	243.88
407.394	231.59
407.603	176.3
407.812	217.26
408.02	207.02
408.229	260.26
408.438	262.31
408.646	221.35
408.855	241.83
409.064	276.65
409.272	229.54
409.481	264.36
409.69	223.4
409.898	270.5
410.107	325.8
410.315	377
410.524	309.41
410.733	338.09
410.941	391.33
411.15	405.67
411.358	407.72
411.567	385.19
411.775	393.38
411.984	403.62
412.192	508.07
412.401	444.58
412.609	553.12
412.818	555.17
413.026	522.4
413.234	485.54
413.443	415.91
413.651	684.19
413.86	510.11
414.068	665.76
414.276	620.71
414.485	600.23
414.693	753.82
414.901	766.11
415.11	686.24
415.318	762.02
415.526	753.82
415.734	845.98
415.943	815.26
416.151	923.8
416.359	909.47
416.567	909.47
416.776	962.72
416.984	987.29
417.192	1032.35
417.4	970.91
417.608	989.34
417.817	1052.83
418.025	1235.1
418.233	1222.81
418.441	1169.56
418.649	1274.01
418.857	1261.72
419.065	1335.45
419.273	1271.96
419.481	1394.84
419.689	1441.94
419.897	1540.24
420.105	1501.33
420.313	1663.12
420.521	1605.78
420.729	1693.84
420.937	1671.31
421.145	1769.62
421.353	1972.36
421.561	2089.1
421.769	1970.32
421.977	2027.66
422.185	1970.32
422.393	2138.25
422.601	2320.52
422.809	2310.28
423.017	2392.2
423.224	2375.81
423.432	2603.14
423.64	2578.56
423.848	2738.3
424.056	2721.92
424.263	2898.05
424.471	2926.72
424.679	2934.91
424.887	3119.23
425.094	3211.39
425.302	3227.77
425.51	3305.59
425.718	3379.32
425.925	3430.52
426.133	3479.67
426.341	3860.59
426.548	3971.18
426.756	4010.09
426.964	4018.29
427.171	4272.23
427.379	4325.48
427.586	4425.83
427.794	4704.35
428.001	4667.49
428.209	4907.1
428.417	4794.47
428.624	5081.18
428.832	5202.01
429.039	5376.09
429.247	5167.2
429.454	5765.2
429.662	6092.88
429.869	5693.52
430.076	6170.7
430.284	5924.94
430.491	6228.04
430.699	6443.08
430.906	6500.42
431.114	6514.76
431.321	6901.83
431.528	7118.91
431.736	7327.8
431.943	7686.2
432.15	7469.11
432.358	7759.92
432.565	8028.21
432.772	7977.01
432.979	8374.31
433.187	8476.71
433.394	8634.41
433.601	9027.62
433.808	9136.16
434.016	9246.75
434.223	9697.3
434.43	10008.59
434.637	10248.21
434.844	10532.87
435.052	10809.35
435.259	10792.97
435.466	10647.56
435.673	10622.98
435.88	11313.15
436.087	12005.36
436.294	12009.46
436.501	11718.65
436.708	11872.25
436.915	12351.47
437.122	12842.98
437.329	12783.59
437.537	13369.31
437.743	13635.55
437.95	13498.33
438.157	14061.52
438.364	14686.15
438.571	14211.03
438.778	14649.29
438.985	15900.6
439.192	15431.62
439.399	15847.35
439.606	15261.63
439.813	16283.57
440.02	17145.77
440.227	16967.59
440.433	16961.45
440.64	17276.84
440.847	17227.68
441.054	17835.93
441.261	19134.34
441.467	18691.98
441.674	18636.69
441.881	19724.16
442.088	19642.24
442.294	19468.16
442.501	20045.69
442.708	20586.35
442.914	21155.69
443.121	21972.83
443.328	21462.88
443.534	23029.58
443.741	22548.31
443.948	22087.51
444.154	23729.98
444.361	23623.49
444.568	23881.53
444.774	23705.41
444.981	24457.01
445.187	24559.41
445.394	25788.19
445.6	25351.98
445.807	27461.38
446.013	26697.49
446.22	27051.79
446.426	28202.75
446.633	28745.46
446.839	29519.59
447.046	28073.73
447.252	29816.55
447.459	29955.81
447.665	29777.64
447.871	31241.93
448.078	32407.23
448.284	30658.26
448.491	31422.16
448.697	33386.16
448.903	33392.3
449.11	33648.3
449.316	33089.2
449.522	33648.3
449.728	34457.24
449.935	34786.97
450.141	34766.49
450.347	35667.59
450.553	34516.64
450.76	34520.73
450.966	36150.92
451.172	35628.68
451.378	36892.28
451.584	35835.53
451.791	36871.8
451.997	36785.79
452.203	37060.21
452.409	37426.8
452.615	37047.93
452.821	35585.68
453.027	35669.64
453.233	37107.32
453.44	35550.86
453.646	35948.17
453.852	36816.5
454.058	37092.98
454.264	36081.28
454.47	36615.8
454.676	35260.05
454.882	36646.52
455.088	33808.04
455.294	33947.3
455.5	35002
455.705	35133.07
455.911	33380.01
456.117	32868.02
456.323	32546.49
456.529	30867.16
456.735	32218.82
456.941	31540.94
457.147	31059.66
457.352	29777.64
457.558	29556.46
457.764	29665
457.97	29175.53
458.176	28524.28
458.381	28921.59
458.587	27420.42
458.793	27094.8
458.999	25775.91
459.204	27647.75
459.41	26724.11
459.616	25284.39
459.821	24837.94
460.027	24844.08
460.233	24563.51
460.438	23111.5
460.644	23514.95
460.85	22513.49
461.055	22089.56
461.261	21956.44
461.466	20268.92
461.672	19826.56
461.878	21026.67
462.083	19855.23
462.289	19439.49
462.494	19240.84
462.7	18470.8
462.905	17737.63
463.111	18452.37
463.316	18489.23
463.522	17991.58
463.727	18112.41
463.932	18073.49
464.138	17991.58
464.343	18016.15
464.549	17541.02
464.754	18114.45
464.959	17940.38
465.165	17610.65
465.37	17100.71
465.575	16547.76
465.781	17319.84
465.986	17274.79
466.191	16738.22
466.397	16687.02
466.602	15568.83
466.807	16211.89
467.012	16326.58
467.218	16097.21
467.423	16078.77
467.628	16068.53
467.833	16576.43
468.038	15886.26
468.244	15697.85
468.449	16150.45
468.654	15677.37
468.859	15710.14
469.064	15314.88
469.269	14708.68
469.474	15103.94
469.679	15437.76
469.885	14802.89
470.09	15044.55
470.295	15015.88
470.5	14747.59
470.705	14655.44
470.91	14241.75
471.115	14084.05
471.32	14540.75
471.525	14407.63
471.73	13932.5
471.935	13967.32
472.139	13496.28
472.344	13639.64
472.549	13475.81
472.754	13416.41
472.959	12996.58
473.164	12875.75
473.369	12750.82
473.574	13092.83
473.778	13109.22
473.983	12836.84
474.188	12912.61
474.393	12111.86
474.598	12218.35
474.802	12314.61
475.007	11966.45
475.212	12244.98
475.417	11616.25
475.621	11767.8
475.826	11702.26
476.031	11433.98
476.235	11261.95
476.44	11536.38
476.645	11141.12
476.849	11139.07
477.054	11022.34
477.259	11040.77
477.463	10799.11
477.668	10635.27
477.872	10813.45
478.077	10463.24
478.282	10276.88
478.486	10321.93
478.691	10164.24
478.895	10233.87
479.1	10250.25
479.304	10119.18
479.509	9738.26
479.713	10049.55
479.918	9904.15
480.122	9603.1
480.326	9797.65
480.531	9725.97
480.735	9713.69
480.94	9527.32
481.144	9961.49
481.348	9476.12
481.553	9558.04
481.757	9363.48
481.961	9410.59
482.166	9791.51
482.37	9492.51
482.574	9340.96
482.778	9195.55
482.983	9799.7
483.187	9201.69
483.391	9480.22
483.595	9472.03
483.8	9273.37
484.004	9510.94
484.208	9560.09
484.412	9250.85
484.616	9492.51
484.821	9390.11
485.025	9123.87
485.229	9469.98
485.433	9392.16
485.637	9406.49
485.841	9095.2
486.045	9154.59
486.249	9373.72
486.453	9283.61
486.657	9318.43
486.861	9312.28
487.065	9111.58
487.269	9406.49
487.473	9261.09
487.677	9187.36
487.881	9631.77
488.085	9261.09
488.289	9377.82
488.493	9222.17
488.697	9336.86
488.901	9451.55
489.105	9353.24
489.309	9381.92
489.512	9650.2
489.716	9388.06
489.92	9433.11
490.124	9494.55
490.328	9656.34
490.531	9373.72
490.735	9611.29
490.939	9623.58
491.143	9459.74
491.346	9500.7
491.55	9703.45
491.754	9738.26
491.958	9781.27
492.161	9756.69
492.365	9855
492.569	9846.8
492.772	9828.37
492.976	9990.16
493.18	9824.28
493.383	10176.53
493.587	10102.8
493.79	10287.12
493.994	10059.79
494.197	10301.45
494.401	10291.21
494.605	10225.68
494.808	10612.74
495.012	10641.42
495.215	10473.48
495.419	10848.26
495.622	10627.08
495.825	10665.99
496.029	10754.05
496.232	10921.99
496.436	10872.84
496.639	11147.26
496.843	10977.28
497.046	11415.55
497.249	11485.18
497.453	11485.18
497.656	11855.86
497.859	11743.22
498.063	11798.52
498.266	11993.08
498.469	12021.75
498.673	12118
498.876	12464.11
499.079	12453.87
499.282	12277.74
499.485	12761.06
499.689	12675.05
499.892	13199.33
500.095	12951.53
500.298	13275.1
500.501	12959.72
500.705	13479.9
500.908	13737.95
501.111	14051.28
501.314	13766.62
501.517	14174.16
501.72	14399.44
501.923	14151.63
502.126	14444.49
502.329	14755.79
502.532	14630.86
502.735	15050.69
502.938	15253.44
503.141	15310.79
503.344	15609.79
503.547	15753.15
503.75	15628.22
503.953	15894.46
504.156	15882.17
504.359	16156.6
504.562	16181.17
504.765	16537.52
504.968	16762.79
505.17	16924.58
505.373	17016.74
505.576	17389.47
505.779	17412
505.982	17235.88
506.185	17977.24
506.387	17887.13
506.59	18096.02
506.793	18358.16
506.996	18374.55
507.198	18859.91
507.401	18732.94
507.604	18882.44
507.807	19210.12
508.009	19316.61
508.212	19539.84
508.415	19691.39
508.617	20031.35
508.82	19974.01
509.022	20037.5
509.225	20285.3
509.428	20590.45
509.63	20817.77
509.833	20944.75
510.035	21301.09
510.238	21303.14
510.44	21491.55
510.643	21731.17
510.845	22091.61
511.048	21882.72
511.25	22249.3
511.453	22146.9
511.655	23123.79
511.858	22486.87
512.06	23121.74
512.262	23177.03
512.465	23162.7
512.667	23684.93
512.87	23691.07
513.072	24051.52
513.274	24301.37
513.477	24409.91
513.679	24868.66
513.881	24911.66
514.084	25349.93
514.286	25292.58
514.488	25251.63
514.69	25722.66
514.893	25837.34
515.095	25984.8
515.297	26382.1
515.499	26511.13
515.701	26511.13
515.904	26853.14
516.106	27191.05
516.308	27066.13
516.51	27750.15
516.712	27338.51
516.914	27971.33
517.116	28366.59
517.318	28069.63
517.52	28284.67
517.722	28542.71
517.925	28561.14
518.127	29083.37
518.329	29290.22
518.531	29187.82
518.733	29484.78
518.935	29851.36
519.136	29945.57
519.338	30078.69
519.54	30275.29
519.742	30406.36
519.944	30547.67
520.146	31094.48
520.348	31241.93
520.55	31166.16
520.752	31508.17
520.954	31882.95
521.155	31295.18
521.357	31934.15
521.559	32247.49
521.761	32800.44
521.963	32601.79
522.164	32935.6
522.366	32638.65
522.568	33236.66
522.77	33101.49
522.971	33410.73
523.173	33263.28
523.375	33394.35
523.576	33593
523.778	33402.54
523.98	34215.58
524.181	34213.54
524.383	33988.26
524.584	34371.23
524.786	34438.81
524.988	34385.57
525.189	34565.79
525.391	34709.15
525.592	34778.78
525.794	35059.35
525.995	35143.31
526.197	35317.39
526.398	35102.36
526.6	35030.68
526.801	35260.05
527.003	35710.6
527.204	35620.49
527.406	35565.2
527.607	35686.03
527.808	36036.23
528.01	35378.83
528.211	35782.28
528.412	36613.76
528.614	36445.82
528.815	35970.69
529.016	36243.07
529.218	36230.79
529.419	36073.09
529.62	36558.46
529.822	36370.05
530.023	36114.05
530.224	36202.11
530.425	36535.93
530.626	36050.56
530.828	36062.85
531.029	36839.03
531.23	36435.58
531.431	36445.82
531.632	36630.14
531.833	36507.26
532.035	36552.32
532.236	36556.41
532.437	36699.77
532.638	36691.58
532.839	36773.5
533.04	37043.83
533.241	36202.11
533.442	36916.86
533.643	36939.38
533.844	36843.13
534.045	36945.53
534.246	36558.46
534.447	37166.71
534.648	36212.35
534.849	36540.03
535.05	36701.82
535.251	36437.63
535.451	36687.48
535.652	36961.91
535.853	36535.93
536.054	36812.41
536.255	36859.51
536.456	36355.71
536.657	36966.01
536.857	36998.77
537.058	36548.22
537.259	36685.43
537.46	36646.52
537.66	36732.54
537.861	36814.46
538.062	36712.06
538.263	36796.03
538.463	36449.92
538.664	36566.65
538.865	37127.8
539.065	36697.72
539.266	36353.66
539.466	36787.83
539.667	35647.11
539.868	36716.15
540.068	36357.76
540.269	36126.34
540.469	36736.63
540.67	36189.83
540.87	36421.25
541.071	36394.62
541.271	36673.15
541.472	36642.43
541.672	36624
541.873	36476.54
542.073	35880.58
542.274	36574.84
542.474	36525.69
542.675	36118.15
542.875	36798.07
543.075	36408.96
543.276	36001.41
543.476	36529.79
543.676	36324.99
543.877	36451.97
544.077	36460.16
544.277	36314.75
544.478	36386.43
544.678	36804.22
544.878	36345.47
545.078	36331.14
545.279	36097.67
545.479	35833.48
545.679	36363.9
545.879	36165.25
546.079	36376.19
546.28	36466.3
546.48	35944.07
546.68	36216.45
546.88	36251.27
547.08	36460.16
547.28	36130.44
547.48	35884.68
547.68	36329.09
547.88	36050.56
548.081	36069
548.281	36107.91
548.481	35985.03
548.681	36232.83
548.881	36107.91
549.081	36370.05
549.28	36093.57
549.48	36503.17
549.68	36222.59
549.88	36566.65
550.08	36089.48
550.28	36316.8
550.48	36167.3
550.68	36376.19
550.88	36140.68
551.08	35958.41
551.279	36224.64
551.479	35724.94
551.679	36267.65
551.879	36171.39
552.079	36103.81
552.278	36187.78
552.478	36138.63
552.678	36187.78
552.878	36324.99
553.077	35892.87
553.277	35856.01
553.477	36476.54
553.676	36032.13
553.876	36279.94
554.076	35436.17
554.275	35753.61
554.475	35722.89
554.674	36341.38
554.874	35966.6
555.074	35798.66
555.273	35731.08
555.473	36374.14
555.672	35780.23
555.872	35618.44
556.071	35796.62
556.271	35903.11
556.47	35466.89
556.67	35593.87
556.869	35751.56
557.068	35905.16
557.268	35913.35
557.467	35755.66
557.667	35710.6
557.866	36234.88
558.065	36114.05
558.265	35329.68
558.464	35958.41
558.663	36343.42
558.863	35456.65
559.062	36183.68
559.261	35427.98
559.461	36079.24
559.66	35114.64
559.859	35335.82
560.058	35477.13
560.258	35970.69
560.457	35210.9
560.656	35329.68
560.855	35538.57
561.054	35655.31
561.253	35448.46
561.453	35417.74
561.652	35976.84
561.851	35765.9
562.05	35305.1
562.249	35708.55
562.448	35606.16
562.647	35389.07
562.846	35452.56
563.045	35733.13
563.244	35188.37
563.443	35653.26
563.642	34907.8
563.841	35514
564.04	34971.29
564.239	35976.84
564.438	35194.51
564.637	35446.41
564.836	35610.25
565.035	34813.59
565.234	35067.54
565.432	35059.35
565.631	34995.86
565.83	34991.76
566.029	35243.66
566.228	35159.7
566.427	34899.61
566.625	34666.14
566.824	34508.44
567.023	35327.63
567.222	34408.09
567.42	35249.81
567.619	34940.57
567.818	34696.86
568.016	35079.83
568.215	35350.16
568.414	34659.99
568.612	35171.99
568.811	34860.69
569.01	34791.06
569.208	34524.83
569.407	34930.33
569.605	34815.64
569.804	34989.72
570.002	34711.19
570.201	34586.27
570.4	34397.85
570.598	34418.33
570.797	34080.42
570.995	34608.79
571.193	34061.99
571.392	34911.89
571.59	34348.7
571.789	34723.48
571.987	34242.21
572.186	34571.93
572.384	34049.7
572.582	34309.79
572.781	34573.98
572.979	33832.61
573.177	34655.9
573.376	34324.13
573.574	34029.22
573.772	34076.32
573.971	34309.79
574.169	33957.54
574.367	33861.29
574.565	34123.43
574.763	33930.92
574.962	33756.84
575.16	33472.17
575.358	33636.01
575.556	33463.98
575.754	34379.42
575.952	33513.13
576.151	34055.84
576.349	33595.05
576.547	33447.6
576.745	33595.05
576.943	33762.98
577.141	33615.53
577.339	33576.62
577.537	33111.73
577.735	33152.69
577.933	33060.53
578.131	33414.83
578.329	33400.49
578.527	33101.49
578.725	33197.74
578.923	33038
579.121	33203.89
579.319	33242.8
579.516	33058.48
579.714	32917.17
579.912	32908.98
580.11	33179.31
580.308	33111.73
580.506	32628.41
580.704	32337.6
580.901	32646.84
581.099	32882.36
581.297	32601.79
581.495	32382.65
581.692	32523.96
581.89	32401.08
582.088	32519.87
582.285	32390.84
582.483	32523.96
582.681	32427.71
582.878	32192.19
583.076	32208.58
583.274	32364.22
583.471	31737.54
583.669	31971.01
583.866	31637.19
584.064	32239.29
584.262	31592.14
584.459	31901.38
584.657	31665.86
584.854	31878.85
585.052	31289.04
585.249	31780.55
585.447	31780.55
585.644	31153.87
585.841	31561.42
586.039	31971.01
586.236	31471.31
586.434	31203.02
586.631	30768.85
586.828	31028.95
587.026	31125.2
587.223	31223.5
587.42	31170.26
587.618	31327.95
587.815	30953.17
588.012	30731.99
588.21	30824.15
588.407	31139.54
588.604	30699.22
588.801	30961.36
588.999	30508.76
589.196	30865.11
589.393	30564.06
589.59	30531.29
589.787	30310.11
589.984	30277.34
590.182	29837.03
590.379	30328.54
590.576	30207.71
590.773	30293.72
590.97	29632.23
591.167	30301.92
591.364	29568.74
591.561	29916.9
591.758	29675.24
591.955	30011.1
592.152	29851.36
592.349	29429.48
592.546	29751.01
592.743	29978.34
592.94	29009.65
593.137	29507.3
593.334	29951.71
593.531	29675.24
593.727	29435.63
593.924	29615.85
594.121	29189.87
594.318	29337.32
594.515	28935.92
594.712	29470.44
594.908	28935.92
595.105	29271.79
595.302	28811
595.499	28688.12
595.696	28651.25
595.892	28575.48
596.089	28796.66
596.286	28702.45
596.482	28282.62
596.679	28550.9
596.876	28587.77
597.072	28671.73
597.269	28393.21
597.466	28229.37
597.662	28174.08
597.859	28157.69
598.055	28565.24
598.252	28288.76
598.448	28184.32
598.645	27979.52
598.841	27827.97
599.038	28231.42
599.234	28317.43
599.431	27752.2
599.627	27748.1
599.824	27817.73
600.02	27819.78
600.217	27889.41
600.413	27254.54
600.609	27510.53
600.806	27717.38
601.002	27657.99
601.198	27496.2
601.395	27348.75
601.591	27565.83
601.787	27336.46
601.984	27211.53
602.18	27852.55
602.376	27055.89
602.572	27293.45
602.769	27535.11
602.965	26961.68
603.161	26986.25
603.357	26908.43
603.553	26562.33
603.75	26994.45
603.946	26756.88
604.142	26933.01
604.338	26672.92
604.534	26748.69
604.73	26478.36
604.926	26451.74
605.122	26527.51
605.318	26611.48
605.514	26396.44
605.71	26326.81
605.906	26365.72
606.102	26406.68
606.298	26470.17
606.494	26242.84
606.69	26615.57
606.886	26285.85
607.082	25995.04
607.278	26404.63
607.474	25798.43
607.67	25952.03
607.866	25927.46
608.062	26291.99
608.257	25849.63
608.453	25878.3
608.649	26042.14
608.845	25954.08
609.041	25554.72
609.236	25749.28
609.432	25714.47
609.628	25831.2
609.824	25931.55
610.019	25732.9
610.215	25710.37
610.411	25542.44
610.606	25708.32
610.802	25546.53
610.998	25689.89
611.193	25710.37
611.389	25442.09
611.584	25491.24
611.78	25235.24
611.976	25390.89
612.171	25544.48
612.367	25489.19
612.562	25134.89
612.758	25079.6
612.953	25124.65
613.149	25313.06
613.344	25222.95
613.539	25587.49
613.735	25120.56
613.93	25284.39
614.126	25202.47
614.321	25427.75
614.517	25147.18
614.712	25157.42
614.907	25007.92
615.103	25351.98
615.298	25050.92
615.493	25540.39
615.688	24727.35
615.884	25550.63
616.079	24882.99
616.274	24909.61
616.47	24682.29
616.665	24735.54
616.86	24403.77
617.055	24897.33
617.25	24538.93
617.445	24782.64
617.641	24366.9
617.836	24629.04
618.031	24225.59
618.226	24760.11
618.421	24053.56
618.616	24950.57
618.811	24389.43
619.006	24622.9
619.201	24155.96
619.396	24194.87
619.591	23600.96
619.786	24395.57
619.981	23672.64
620.176	24014.65
620.371	23347.01
620.566	23588.67
620.761	23936.83
620.956	23351.11
621.151	23504.71
621.346	23232.33
621.541	23037.77
621.735	23238.47
621.93	22873.93
622.125	22951.76
622.32	22673.23
622.515	22794.06
622.709	22454.1
622.904	22624.08
623.099	22472.53
623.294	22409.04
623.488	22284.12
623.683	22466.39
623.878	22140.76
624.072	22161.24
624.267	21870.43
624.462	21991.26
624.656	21667.68
624.851	21852
625.046	21735.26
625.24	21509.99
625.435	21372.77
625.629	21471.08
625.824	21206.89
626.018	21081.96
626.213	20641.65
626.407	20565.87
626.602	20658.03
626.796	20825.96
626.991	20592.5
627.185	20481.91
627.38	20324.21
627.574	20205.43
627.768	20158.33
627.963	20268.92
628.157	19840.89
628.352	20031.35
628.546	19734.4
628.74	19763.07
628.935	19382.15
629.129	19406.72
629.323	19107.72
629.517	19097.48
629.712	19464.07
629.906	19009.42
630.1	19056.52
630.294	19103.62
630.489	18784.14
630.683	19324.8
630.877	18565.01
631.071	18493.33
631.265	18970.51
631.459	18765.71
631.653	18472.85
631.848	18294.68
632.042	18292.63
632.236	18288.53
632.43	18065.3
632.624	18141.08
632.818	17682.33
633.012	17745.82
633.206	17608.61
633.4	18038.68
633.594	17526.69
633.788	17330.08
633.982	17725.34
634.176	17586.08
634.369	17065.89
634.563	17264.55
634.757	16990.12
634.951	17047.46
635.145	16971.69
635.339	16998.31
635.533	16682.92
635.726	16813.99
635.92	16656.3
636.114	16644.01
636.308	16320.43
636.501	16224.18
636.695	16361.39
636.889	16148.4
637.083	15947.7
637.276	16082.87
637.47	15751.1
637.664	15798.2
637.857	15996.85
638.051	15701.95
638.244	15724.47
638.438	15536.06
638.632	15501.25
638.825	15497.15
639.019	15415.23
639.212	15149
639.406	15179.72
639.599	14886.86
639.793	15155.14
639.986	14700.49
640.18	14940.1
640.373	14909.38
640.567	14600.14
640.76	14630.86
640.954	14407.63
641.147	14206.93
641.34	14239.7
641.534	14456.78
641.727	14294.99
641.92	14292.94
642.114	14030.8
642.307	13959.13
642.5	13899.73
642.694	13690.84
642.887	13696.99
643.08	13819.86
643.273	13768.66
643.467	13658.07
643.66	13502.43
643.853	13422.56
644.046	13328.35
644.239	13324.26
644.432	12986.34
644.626	13096.93
644.819	12929
645.012	12947.43
645.205	12945.38
645.398	13058.02
645.591	12556.27
645.784	12679.15
645.977	12453.87
646.17	12470.25
646.363	12341.23
646.556	12425.2
646.749	12292.08
646.942	12414.96
647.135	12146.67
647.328	12216.3
647.521	12238.83
647.714	11999.22
647.907	11814.9
648.099	11823.09
648.292	11689.98
648.485	11747.32
648.678	11452.41
648.871	11687.93
649.064	11491.32
649.256	11503.61
649.449	11122.69
649.642	11167.74
649.835	11239.42
650.027	11229.18
650.22	10932.23
650.413	11028.48
650.605	10948.61
650.798	11030.53
650.991	10752.01
651.183	10938.37
651.376	10809.35
651.568	10704.9
651.761	10588.17
651.954	10532.87
652.146	10475.53
652.339	10401.8
652.531	10627.08
652.724	10381.32
652.916	10201.1
653.109	10172.43
653.301	10309.65
653.494	10053.65
653.686	9867.28
653.879	9928.72
654.071	9728.02
654.263	9953.3
654.456	9648.15
654.648	9691.16
654.84	9582.62
655.033	9578.52
655.225	9728.02
655.417	9379.87
655.61	9373.72
655.802	9443.35
655.994	9246.75
656.186	9353.24
656.379	9144.35
656.571	9197.6
656.763	9111.58
656.955	9105.44
657.148	9058.34
657.34	9093.15
657.532	8923.17
657.724	8826.92
657.916	8652.84
658.108	8525.86
658.3	8685.61
658.492	8673.32
658.684	8388.65
658.876	8546.34
659.068	8464.43
659.26	8392.75
659.452	8482.86
659.644	8206.38
659.836	8030.26
660.028	8202.29
660.22	8118.32
660.412	7962.67
660.604	8095.79
660.796	8136.75
660.988	8065.07
661.18	7950.39
661.372	7788.6
661.563	7819.32
661.755	7485.5
661.947	7723.06
662.139	7624.76
662.331	7688.25
662.522	7448.63
662.714	7598.13
662.906	7385.15
663.097	7612.47
663.289	7262.27
663.481	7264.32
663.673	7403.58
663.864	7145.53
664.056	7006.27
664.247	7071.81
664.439	7055.42
664.631	7059.52
664.822	7108.67
665.014	7077.95
665.205	7006.27
665.397	6733.89
665.588	6959.17
665.78	6858.82
665.971	6936.64
666.163	6895.68
666.354	6873.15
666.546	6817.86
666.737	6617.16
666.929	6637.64
667.12	6625.35
667.311	6557.77
667.503	6430.79
667.694	6498.38
667.885	6363.21
668.077	6649.93
668.268	6467.66
668.459	6428.74
668.651	6336.59
668.842	6434.89
669.033	6148.17
669.224	6248.52
669.416	6252.62
669.607	6250.57
669.798	6217.8
669.989	6238.28
670.18	6295.63
670.371	6033.49
670.563	6068.3
670.754	6111.31
670.945	6019.15
671.136	6074.45
671.327	5967.95
671.518	5877.84
671.709	6129.74
671.9	5990.48
672.091	5998.67
672.282	5984.34
672.473	5859.41
672.664	5994.58
672.855	5765.2
673.046	5806.16
673.237	5867.6
673.428	5793.87
673.619	5638.23
673.809	5724.24
674	5769.3
674.191	5726.29
674.382	5564.5
674.573	5601.37
674.764	5513.3
674.954	5720.15
675.145	5564.5
675.336	5451.86
675.527	5527.64
675.717	5478.49
675.908	5548.12
676.099	5320.79
676.289	5398.62
676.48	5447.77
676.671	5306.46
676.861	5566.55
677.052	5529.69
677.243	5322.84
677.433	5220.44
677.624	5296.22
677.814	5273.69
678.005	5335.13
678.195	5318.75
678.386	5353.56
678.576	5222.49
678.767	5236.83
678.957	5285.98
679.148	5328.99
679.338	5341.27
679.529	5234.78
679.719	5146.72
679.909	5148.76
680.1	5333.08
680.29	5292.12
680.481	5103.71
680.671	5339.23
680.861	5216.35
681.052	5236.83
681.242	5161.05
681.432	5312.6
681.622	5013.6
681.813	5130.33
682.003	5169.24
682.193	4966.49
682.383	5097.56
682.573	5046.37
682.764	5107.8
682.954	5195.87
683.144	5146.72
683.334	5079.13
683.524	4974.69
683.714	5097.56
683.904	5148.76
684.094	5013.6
684.284	5089.37
684.474	5036.13
684.664	4997.21
684.854	5111.9
685.044	4900.96
685.234	4880.48
685.424	4876.38
685.614	5023.84
685.804	4997.21
685.994	4915.3
686.184	4968.54
686.374	4903.01
686.564	4872.29
686.753	4989.02
686.943	4708.45
687.133	4814.95
687.323	4755.55
687.513	4833.38
687.702	4755.55
687.892	4843.62
688.082	4802.66
688.272	4829.28
688.461	4649.06
688.651	4683.88
688.841	4782.18
689.03	4755.55
689.22	4745.31
689.41	4642.92
689.599	4616.29
689.789	4690.02
689.979	4626.53
690.168	4712.55
690.358	4505.7
690.547	4710.5
690.737	4614.24
690.926	4536.42
691.116	4608.1
691.305	4667.49
691.495	4694.12
691.684	4368.49
691.874	4620.39
692.063	4526.18
692.252	4501.61
692.442	4628.58
692.631	4587.62
692.82	4614.24
693.01	4368.49
693.199	4438.12
693.388	4538.47
693.578	4495.46
693.767	4653.16
693.956	4536.42
694.146	4391.02
694.335	4421.74
694.524	4325.48
694.713	4483.17
694.902	4595.81
695.092	4524.13
695.281	4450.41
695.47	4446.31
695.659	4522.09
695.848	4276.33
696.037	4397.16
696.226	4399.21
696.415	4388.97
696.604	4448.36
696.793	4409.45
696.982	4544.61
697.171	4427.88
697.36	4511.85
697.549	4474.98
697.738	4354.15
697.927	4436.07
698.116	4511.85
698.305	4288.62
698.494	4591.72
698.683	4536.42
698.872	4540.52
699.061	4419.69
699.25	4477.03
699.438	4302.95
699.627	4393.06
699.816	4526.18
700.005	4493.41
700.193	4454.5
700.382	4661.35
700.571	4511.85
700.76	4513.89
700.948	4563.05
701.137	4642.92
701.326	4565.09
701.514	4546.66
701.703	4626.53
701.892	4474.98
702.08	4554.85
702.269	4628.58
702.457	4470.89
702.646	4485.22
702.834	4491.37
703.023	4511.85
703.212	4550.76
703.4	4542.57
703.589	4528.23
703.777	4589.67
703.965	4579.43
704.154	4522.09
704.342	4479.08
704.531	4563.05
704.719	4591.72
704.907	4579.43
705.096	4448.36
705.284	4448.36
705.472	4493.41
705.661	4460.65
705.849	4493.41
706.037	4624.48
706.226	4450.41
706.414	4481.13
706.602	4401.26
706.79	4456.55
706.979	4505.7
707.167	4511.85
707.355	4466.79
707.543	4509.8
707.731	4522.09
707.919	4481.13
708.107	4466.79
708.296	4417.64
708.484	4409.45
708.672	4503.65
708.86	4401.26
709.048	4380.78
709.236	4513.89
709.424	4520.04
709.612	4380.78
709.8	4343.91
709.988	4397.16
710.176	4448.36
710.364	4456.55
710.551	4427.88
710.739	4360.3
710.927	4323.43
711.115	4411.5
711.303	4405.35
711.491	4366.44
711.679	4368.49
711.866	4456.55
712.054	4444.26
712.242	4397.16
712.43	4442.21
712.617	4436.07
712.805	4251.75
712.993	4352.1
713.181	4329.58
713.368	4495.46
713.556	4321.38
713.744	4339.82
713.931	4446.31
714.119	4341.86
714.306	4348.01
714.494	4294.76
714.682	4391.02
714.869	4180.07
715.057	4284.52
715.244	4300.91
715.432	4352.1
715.619	4376.68
715.807	4221.03
715.994	4178.03
716.182	4202.6
716.369	4358.25
716.556	4286.57
716.744	4345.96
716.931	4186.22
717.119	4311.14
717.306	4298.86
717.493	4249.71
717.681	4241.51
717.868	4239.47
718.055	4169.84
718.242	4237.42
718.43	4364.39
718.617	3977.33
718.804	4198.51
718.991	4343.91
719.179	4288.62
719.366	4173.93
719.553	4202.6
719.74	4151.4
719.927	4157.55
720.114	4235.37
720.301	4204.65
720.488	4059.24
720.676	4044.91
720.863	4163.69
721.05	4112.49
721.237	4184.17
721.424	4036.72
721.611	4071.53
721.798	4018.29
721.985	4003.95
722.172	4071.53
722.358	4040.81
722.545	4251.75
722.732	4059.24
722.919	4210.79
723.106	3987.57
723.293	4210.79
723.48	4100.2
723.667	4003.95
723.853	3868.78
724.04	4042.86
724.227	3981.42
724.414	4008.05
724.6	4071.53
724.787	4153.45
724.974	4083.82
725.161	4010.09
725.347	3999.85
725.534	3913.84
725.72	3971.18
725.907	3938.41
726.094	3928.17
726.28	3942.51
726.467	3926.13
726.653	3874.93
726.84	3868.78
727.027	3934.32
727.213	3844.21
727.4	3887.22
727.586	3934.32
727.773	3868.78
727.959	3899.5
728.145	3958.89
728.332	3833.97
728.518	3969.13
728.705	3942.51
728.891	3723.38
729.077	3854.45
729.264	3817.58
729.45	3706.99
729.636	3897.46
729.823	3891.31
730.009	3889.26
730.195	3819.63
730.382	3922.03
730.568	3737.71
730.754	3772.53
730.94	3786.86
731.126	3872.88
731.313	3764.34
731.499	3772.53
731.685	3752.05
731.871	3719.28
732.057	3747.95
732.243	3571.83
732.429	3604.6
732.615	3760.24
732.801	3594.36
732.987	3702.9
733.173	3631.22
733.359	3663.99
733.545	3643.51
733.731	3641.46
733.917	3737.71
734.103	3686.51
734.289	3620.98
734.475	3633.27
734.661	3725.43
734.847	3709.04
735.033	3588.21
735.219	3618.93
735.404	3598.45
735.59	3577.97
735.776	3537.01
735.962	3541.11
736.148	3506.29
736.333	3494.01
736.519	3436.66
736.705	3475.57
736.89	3584.12
737.076	3438.71
737.262	3475.57
737.447	3467.38
737.633	3410.04
737.819	3354.74
738.004	3340.41
738.19	3330.17
738.375	3352.7
738.561	3471.48
738.747	3190.91
738.932	3383.42
739.118	3434.61
739.303	3375.22
739.489	3479.67
739.674	3303.54
739.859	3240.06
740.045	3258.49
740.23	3229.82
740.416	3035.26
740.601	3319.93
740.786	3178.62
740.972	3303.54
741.157	3182.71
741.342	3037.31
741.528	3184.76
741.713	3231.87
741.898	3100.8
742.084	3147.9
742.269	3270.78
742.454	3115.13
742.639	3147.9
742.824	3127.42
743.01	3047.55
743.195	3111.04
743.38	3049.6
743.565	2977.92
743.75	3078.27
743.935	2912.38
744.12	3049.6
744.305	2926.72
744.49	2836.61
744.675	2977.92
744.86	2992.25
745.045	2857.09
745.23	2920.57
745.415	2834.56
745.6	2852.99
745.785	2898.05
745.97	2918.53
746.155	2781.31
746.34	2928.77
746.525	2719.87
746.71	2967.68
746.895	2775.17
747.079	2726.02
747.264	2715.78
747.449	2750.59
747.634	2689.15
747.819	2685.06
748.003	2654.34
748.188	2609.28
748.373	2695.3
748.557	2633.86
748.742	2560.13
748.927	2656.39
749.111	2484.36
749.296	2402.44
749.481	2478.21
749.665	2566.28
749.85	2439.3
750.034	2588.8
750.219	2359.43
750.404	2580.61
750.588	2467.97
750.773	2310.28
750.957	2308.23
751.141	2410.63
751.326	2363.53
751.51	2275.46
751.695	2306.18
751.879	2197.64
752.064	2324.62
752.248	2261.13
752.432	2384.01
752.617	2257.03
752.801	2234.5
752.985	2326.66
753.17	2185.35
753.354	2154.63
753.538	2236.55
753.722	2105.48
753.907	2082.95
754.091	2087.05
754.275	2074.76
754.459	2193.55
754.643	2064.52
754.828	2095.24
755.012	2115.72
755.196	2007.18
755.38	1958.03
755.564	2033.8
755.748	1998.99
755.932	1996.94
756.116	2011.28
756.3	2070.67
756.484	1915.02
756.668	2085
756.852	1892.49
757.036	1964.17
757.22	1960.08
757.404	1792.14
757.588	1876.11
757.772	1912.97
757.956	1829.01
758.14	1941.65
758.323	1818.77
758.507	1765.52
758.691	1765.52
758.875	1851.53
759.059	1749.14
759.242	1761.42
759.426	1650.83
759.61	1757.33
759.794	1683.6
759.977	1648.79
760.161	1833.1
760.345	1806.48
760.528	1806.48
760.712	1656.98
760.895	1632.4
761.079	1642.64
761.263	1630.35
761.446	1542.29
761.63	1679.51
761.813	1640.59
761.997	1499.28
762.18	1585.3
762.364	1560.72
762.547	1581.2
762.731	1581.2
762.914	1595.54
763.098	1460.37
763.281	1583.25
763.464	1691.79
763.648	1575.06
763.831	1538.2
764.015	1501.33
764.198	1603.73
764.381	1464.47
764.564	1421.46
764.748	1405.08
764.931	1568.91
765.114	1478.8
765.297	1548.44
765.481	1462.42
765.664	1456.28
765.847	1521.81
766.03	1558.67
766.213	1411.22
766.397	1351.83
766.58	1349.78
766.763	1441.94
766.946	1417.37
767.129	1370.26
767.312	1411.22
767.495	1362.07
767.678	1472.66
767.861	1349.78
768.044	1345.69
768.227	1370.26
768.41	1405.08
768.593	1433.75
768.776	1425.56
768.959	1304.73
769.142	1433.75
769.324	1333.4
769.507	1335.45
769.69	1355.93
769.873	1347.73
770.056	1403.03
770.239	1259.67
770.421	1421.46
770.604	1421.46
770.787	1210.52
770.97	1298.58
771.152	1181.85
771.335	1276.06
771.518	1274.01
771.7	1319.06
771.883	1269.91
772.066	1218.71
772.248	1169.56
772.431	1257.62
772.613	1310.87
772.796	1228.95
772.978	1247.38
773.161	1298.58
773.343	1159.32
773.526	1104.03
773.708	1073.31
773.891	1052.83
774.073	1104.03
774.256	1099.93
774.438	1177.75
774.621	1185.94
774.803	1241.24
774.985	1122.46
775.168	1061.02
775.35	1200.28
775.532	1106.07
775.715	1120.41
775.897	1101.98
776.079	1114.27
776.261	1151.13
776.444	997.53
776.626	1067.16
776.808	1046.68
776.99	1022.11
777.173	1028.25
777.355	1003.68
777.537	1054.87
777.719	1032.35
777.901	981.15
778.083	991.39
778.265	979.1
778.447	1075.35
778.629	942.24
778.811	964.76
778.993	1085.59
779.175	991.39
779.357	942.24
779.539	815.26
779.721	1056.92
779.903	872.61
780.085	843.93
780.267	866.46
780.449	886.94
780.631	878.75
780.812	1030.3
780.994	895.13
781.176	809.12
781.358	901.28
781.54	811.17
781.721	835.74
781.903	823.45
782.085	868.51
782.267	841.89
782.448	719.01
782.63	805.02
782.812	843.93
782.993	792.73
783.175	850.08
783.357	815.26
783.538	721.06
783.72	755.87
783.901	741.54
784.083	807.07
784.264	741.54
784.446	727.2
784.627	749.73
784.809	721.06
784.99	721.06
785.172	745.63
785.353	704.67
785.535	780.45
785.716	714.91
785.897	663.71
786.079	704.67
786.26	682.14
786.441	704.67
786.623	641.18
786.804	624.8
786.985	745.63
787.167	663.71
787.348	671.9
787.529	700.58
787.71	694.43
787.891	606.37
788.073	575.65
788.254	608.42
788.435	673.95
788.616	657.57
788.797	639.14
788.978	565.41
789.159	567.46
789.34	618.66
789.522	571.55
789.703	524.45
789.884	589.99
790.065	604.32
790.246	714.91
790.427	565.41
790.607	608.42
790.788	546.98
790.969	526.5
791.15	551.07
791.331	495.78
791.512	518.31
791.693	444.58
791.874	563.36
792.054	555.17
792.235	538.79
792.416	456.87
792.597	460.96
792.778	524.45
792.958	516.26
793.139	479.4
793.32	497.83
793.5	430.24
793.681	561.31
793.862	506.02
794.042	483.49
794.223	442.53
794.404	448.68
794.584	403.62
794.765	483.49
794.945	469.16
795.126	491.68
795.306	508.07
795.487	430.24
795.667	460.96
795.848	485.54
796.028	422.05
796.209	420
796.389	354.47
796.57	420
796.75	372.9
796.93	395.43
797.111	352.42
797.291	438.44
797.471	518.31
797.652	436.39
797.832	389.28
798.012	448.68
798.192	395.43
798.373	370.85
798.553	377
798.733	430.24
798.913	370.85
799.093	282.79
799.274	401.57
799.454	409.76
799.634	405.67
799.814	481.44
799.994	372.9
800.174	356.52
800.354	432.29
800.534	379.04
800.714	440.48
800.894	327.85
801.074	288.93
801.254	344.23
801.434	442.53
801.614	352.42
801.794	342.18
801.974	1380.5
802.154	417.96
802.334	393.38
802.514	301.22
802.693	280.74
802.873	336.04
803.053	407.72
803.233	368.81
803.413	422.05
803.592	352.42
803.772	280.74
803.952	309.41
804.131	319.65
804.311	348.33
804.491	401.57
804.67	370.85
804.85	252.07
805.03	317.61
805.209	377
805.389	237.74
805.568	207.02
805.748	260.26
805.928	338.09
806.107	264.36
806.287	286.89
806.466	319.65
806.646	346.28
806.825	254.12
807.004	299.17
807.184	336.04
807.363	278.69
807.543	331.94
807.722	237.74
807.901	286.89
808.081	260.26
808.26	196.78
808.439	239.78
808.619	276.65
808.798	221.35
808.977	301.22
809.156	313.51
809.336	282.79
809.515	297.13
809.694	243.88
809.873	276.65
810.052	282.79
810.231	231.59
810.411	207.02
810.59	319.65
810.769	237.74
810.948	266.41
811.127	241.83
811.306	260.26
811.485	196.78
811.664	297.13
811.843	229.54
812.022	202.92
812.201	147.62
812.38	301.22
812.559	229.54
812.737	207.02
812.916	168.1
813.095	264.36
813.274	235.69
813.453	239.78
813.632	258.21
813.811	245.93
813.989	145.58
814.168	239.78
814.347	215.21
814.526	219.3
814.704	225.45
814.883	303.27
815.062	221.35
815.24	247.97
815.419	164.01
815.598	227.5
815.776	67.75
815.955	213.16
816.133	129.19
816.312	190.63
816.49	153.77
816.669	280.74
816.847	231.59
817.026	229.54
817.204	114.86
817.383	80.04
817.561	102.57
817.74	194.73
817.918	192.68
818.097	207.02
818.275	149.67
818.453	245.93
818.632	305.32
818.81	141.48
818.988	196.78
819.167	69.8
819.345	219.3
819.523	161.96
819.701	141.48
819.879	139.43
820.058	170.15
820.236	194.73
820.414	151.72
820.592	129.19
820.77	112.81
820.948	147.62
821.127	164.01
821.305	194.73
821.483	133.29
821.661	221.35
821.839	194.73
822.017	135.34
822.195	190.63
822.373	252.07
822.551	112.81
822.729	196.78
822.907	77.99
823.085	190.63
823.262	84.14
823.44	106.67
823.618	139.43
823.796	147.62
823.974	180.39
824.152	141.48
824.329	110.76
824.507	225.45
824.685	211.11
824.863	196.78
825.04	209.06
825.218	172.2
825.396	110.76
825.574	211.11
825.751	188.58
825.929	172.2
826.107	129.19
826.284	151.72
826.462	186.54
826.639	106.67
826.817	98.47
826.994	149.67
827.172	155.82
827.349	252.07
827.527	131.24
827.704	145.58
827.882	245.93
828.059	133.29
828.237	100.52
828.414	176.3
828.591	45.23
828.769	100.52
828.946	80.04
829.124	166.06
829.301	147.62
829.478	174.25
829.655	157.86
829.833	110.76
830.01	12.46
830.187	190.63
830.364	153.77
830.542	149.67
830.719	176.3
830.896	196.78
831.073	116.9
831.25	172.2
831.427	221.35
831.604	96.43
831.782	77.99
831.959	102.57
832.136	92.33
832.313	149.67
832.49	131.24
832.667	137.38
832.844	67.75
833.021	161.96
833.198	102.57
833.374	129.19
833.551	170.15
833.728	123.05
833.905	104.62
834.082	71.85
834.259	67.75
834.436	182.44
834.612	86.19
834.789	77.99
834.966	139.43
835.143	75.95
835.319	47.27
835.496	88.23
835.673	139.43
835.85	125.1
836.026	73.9
836.203	157.86
836.38	65.71
836.556	168.1
836.733	69.8
836.909	90.28
837.086	45.23
837.262	73.9
837.439	108.71
837.616	55.47
837.792	61.61
837.968	80.04
838.145	18.6
838.321	57.51
838.498	98.47
838.674	149.67
838.851	77.99
839.027	49.32
839.203	71.85
839.38	90.28
839.556	98.47
839.732	88.23
839.909	123.05
840.085	110.76
840.261	32.94
840.437	96.43
840.614	28.84
840.79	159.91
840.966	16.55
841.142	77.99
841.318	100.52
841.494	34.99
841.671	159.91
841.847	34.99
842.023	-57.17
842.199	116.9
842.375	98.47
842.551	-10.07
842.727	4.27
842.903	135.34
843.079	-3.93
843.255	123.05
843.431	-36.69
843.607	112.81
843.783	53.42
843.959	65.71
844.134	2.22
844.31	100.52
844.486	18.6
844.662	43.18
844.838	0.17
845.013	75.95
845.189	71.85
845.365	98.47
845.541	69.8
845.716	73.9
845.892	51.37
846.068	139.43
846.244	-32.6
846.419	127.14
846.595	-10.07
846.77	-77.65
846.946	159.91
847.122	-3.93
847.297	12.46
847.473	166.06
847.648	53.42
847.824	166.06
847.999	82.09
848.175	4.27
848.35	80.04
848.526	125.1
848.701	69.8
848.876	145.58
849.052	43.18
849.227	41.13
849.403	53.42
849.578	22.7
849.753	-44.88
849.929	106.67
850.104	20.65
850.279	-3.93
850.454	86.19
850.63	69.8
850.805	110.76
850.98	77.99
851.155	51.37
851.33	63.66
851.505	-1.88
851.681	166.06
851.856	30.89
852.031	77.99
852.206	32.94
852.381	-10.07
852.556	28.84
852.731	4.27
852.906	30.89
853.081	75.95
853.256	55.47
853.431	98.47
853.606	71.85
853.781	-51.03
853.956	-87.89
854.131	100.52
854.305	8.36
854.48	30.89
854.655	61.61
854.83	-38.74
855.005	53.42
855.18	45.23
855.354	77.99
855.529	30.89
855.704	34.99
855.879	34.99
856.053	20.65
856.228	-16.21
856.403	-34.64
856.577	61.61
856.752	-71.51
856.926	32.94
857.101	98.47
857.276	8.36
857.45	28.84
857.625	26.79
857.799	12.46
857.974	14.51
858.148	10.41
858.323	14.51
858.497	-57.17
858.672	51.37
858.846	16.55
859.02	63.66
859.195	-20.31
859.369	24.75
859.543	94.38
859.718	18.6
859.892	63.66
860.066	18.6
860.241	-22.36
860.415	51.37
860.589	10.41
860.763	108.71
860.938	-3.93
861.112	71.85
861.286	-28.5
861.46	63.66
861.634	30.89
861.808	118.95
861.982	-8.02
862.157	8.36
862.331	37.03
862.505	-65.36
862.679	24.75
862.853	55.47
863.027	-48.98
863.201	94.38
863.375	49.32
863.549	16.55
863.722	-1.88
863.896	80.04
864.07	-5.97
864.244	75.95
864.418	34.99
864.592	43.18
864.766	-10.07
864.939	47.27
865.113	-12.12
865.287	-8.02
865.461	-1.88
865.634	-3.93
865.808	16.55
865.982	2.22
866.156	34.99
866.329	-12.12
866.503	61.61
866.676	88.23
866.85	55.47
867.024	2.22
867.197	32.94
867.371	67.75
867.544	-36.69
867.718	34.99
867.891	49.32
868.065	-5.97
868.238	24.75
868.412	39.08
868.585	32.94
868.759	-14.17
868.932	-8.02
869.105	-59.22
869.279	43.18
869.452	28.84
869.625	30.89
869.799	110.76
869.972	-5.97
870.145	-34.64
870.319	92.33
870.492	12.46
870.665	-120.66
870.838	49.32
871.011	-14.17
871.185	-108.37
871.358	22.7
871.531	12.46
871.704	69.8
871.877	24.75
872.05	53.42
872.223	-83.8
872.396	41.13
872.569	20.65
872.742	12.46
872.915	18.6
873.088	-59.22
873.261	-94.04
873.434	34.99
873.607	-36.69
873.78	106.67
873.953	-112.47
874.126	12.46
874.299	-5.97
874.471	-18.26
874.644	114.86
874.817	47.27
874.99	49.32
875.163	43.18
875.335	24.75
875.508	-32.6
875.681	-14.17
875.853	8.36
876.026	-48.98
876.199	-22.36
876.371	24.75
876.544	-55.12
876.717	-26.45
876.889	-20.31
877.062	37.03
877.234	-5.97
877.407	-18.26
877.579	8.36
877.752	73.9
877.924	20.65
878.097	-10.07
878.269	20.65
878.442	22.7
878.614	147.62
878.786	16.55
878.959	-63.32
879.131	-34.64
879.303	-14.17
879.476	-5.97
879.648	32.94
879.82	18.6
879.993	0.17
880.165	10.41
880.337	-65.36
880.509	-12.12
880.681	-75.6
880.854	-38.74
881.026	-22.36
881.198	86.19
881.37	4.27
881.542	28.84
881.714	34.99
881.886	10.41
882.058	34.99
882.23	12.46
882.402	4.27
882.574	-18.26
882.746	147.62
882.918	67.75
883.09	43.18
883.262	82.09
883.434	-8.02
883.606	-32.6
883.778	-112.47
883.95	37.03
884.122	-5.97
884.293	-8.02
884.465	-3.93
884.637	55.47
884.809	49.32
884.98	-32.6
885.152	47.27
885.324	-1.88
885.496	-65.36
885.667	22.7
885.839	-57.17
886.011	59.56
886.182	20.65
886.354	80.04
886.525	2.22
886.697	14.51
886.869	12.46
887.04	22.7
887.212	96.43
887.383	63.66
887.555	104.62
887.726	-89.94
887.897	39.08
888.069	-65.36
888.24	51.37
888.412	4.27
888.583	20.65
888.754	14.51
888.926	-71.51
889.097	-12.12
889.268	-12.12
889.44	-22.36
889.611	14.51
889.782	-5.97
889.953	28.84
890.125	0.17
890.296	-5.97
890.467	-63.32
890.638	-42.84
890.809	-5.97
890.98	-85.84
891.151	30.89
891.323	45.23
891.494	51.37
891.665	-28.5
891.836	26.79
892.007	57.51
892.178	53.42
892.349	-38.74
892.52	-67.41
892.691	-10.07
892.862	37.03
893.032	-42.84
893.203	-61.27
893.374	-1.88
893.545	-28.5
893.716	-77.65
893.887	26.79
894.057	-24.4
894.228	24.75
894.399	-20.31
894.57	-5.97
894.74	-46.93
894.911	-12.12
895.082	8.36
895.253	-67.41
895.423	30.89
895.594	6.31
895.764	59.56
895.935	-67.41
896.106	-5.97
896.276	-14.17
896.447	28.84
896.617	0.17
896.788	14.51
896.958	-48.98
897.129	12.46
897.299	22.7
897.47	96.43
897.64	37.03
897.81	34.99
897.981	34.99
898.151	-98.13
898.322	45.23
898.492	-20.31
898.662	-22.36
898.832	-36.69
899.003	-73.56
899.173	-48.98
899.343	-57.17
899.513	-53.08
