Data from USB4F104151__19__12-11-38-660.txt Node

Date: Fri Mar 14 12:11:38 EDT 2025
User: louis
Spectrometer: USB4F10415
Trigger mode: 4
Integration Time (sec): 5.000000E-2
Scans to average: 1
Electric dark correction enabled: true
Nonlinearity correction enabled: false
Boxcar width: 0
XAxis mode: Wavelengths
Number of Pixels in Spectrum: 3648
>>>>>Begin Spectral Data<<<<<
178.204	-148.65
178.424	-148.65
178.644	-148.65
178.864	-224.42
179.084	-152.74
179.304	-19.63
179.524	17.24
179.744	33.62
179.964	121.68
180.184	-3.24
180.404	50
180.624	-5.29
180.844	-56.49
181.064	-40.11
181.283	9.05
181.503	-93.35
181.723	-13.48
181.943	11.09
182.163	205.65
182.383	56.15
182.602	-1.19
182.822	41.81
183.042	58.2
183.262	25.43
183.482	-29.87
183.701	7
183.921	68.44
184.141	-27.82
184.361	41.81
184.58	84.82
184.8	47.96
185.02	-25.77
185.239	76.63
185.459	54.1
185.679	103.25
185.898	-3.24
186.118	93.01
186.338	88.92
186.557	56.15
186.777	13.14
186.997	15.19
187.216	50
187.436	142.16
187.655	33.62
187.875	90.96
188.095	58.2
188.314	107.35
188.534	56.15
188.753	84.82
188.973	105.3
189.192	127.83
189.412	56.15
189.631	107.35
189.851	52.05
190.07	97.11
190.29	-29.87
190.509	-11.43
190.729	27.48
190.948	72.53
191.168	240.47
191.387	7
191.607	-11.43
191.826	39.76
192.045	9.05
192.265	-1.19
192.484	-3.24
192.704	52.05
192.923	-56.49
193.142	156.5
193.362	105.3
193.581	93.01
193.8	56.15
194.02	47.96
194.239	-3.24
194.458	52.05
194.678	17.24
194.897	-19.63
195.116	68.44
195.335	23.38
195.555	52.05
195.774	-23.72
195.993	115.54
196.212	31.57
196.432	19.29
196.651	2.9
196.87	-31.91
197.089	191.31
197.308	58.2
197.528	107.35
197.747	17.24
197.966	109.4
198.185	117.59
198.404	31.57
198.623	187.22
198.842	23.38
199.062	131.92
199.281	148.31
199.5	33.62
199.719	58.2
199.938	66.39
200.157	56.15
200.376	11.09
200.595	66.39
200.814	33.62
201.033	2.9
201.252	109.4
201.471	47.96
201.69	68.44
201.909	58.2
202.128	29.52
202.347	103.25
202.566	84.82
202.785	33.62
203.004	95.06
203.223	187.22
203.442	74.58
203.661	90.96
203.879	68.44
204.098	123.73
204.317	-85.16
204.536	58.2
204.755	68.44
204.974	74.58
205.193	-7.34
205.411	74.58
205.63	74.58
205.849	47.96
206.068	78.68
206.287	58.2
206.505	138.07
206.724	-15.53
206.943	74.58
207.162	33.62
207.381	41.81
207.599	-7.34
207.818	54.1
208.037	54.1
208.255	29.52
208.474	70.48
208.693	4.95
208.911	-13.48
209.13	93.01
209.349	15.19
209.567	33.62
209.786	56.15
210.005	15.19
210.223	-3.24
210.442	-29.87
210.661	129.88
210.879	127.83
211.098	-1.19
211.316	54.1
211.535	109.4
211.753	58.2
211.972	78.68
212.191	88.92
212.409	107.35
212.628	62.29
212.846	2.9
213.065	82.77
213.283	140.12
213.502	25.43
213.72	-13.48
213.938	93.01
214.157	50
214.375	68.44
214.594	35.67
214.812	101.2
215.031	58.2
215.249	27.48
215.467	19.29
215.686	64.34
215.904	119.64
216.122	99.16
216.341	86.87
216.559	45.91
216.778	56.15
216.996	37.72
217.214	-9.39
217.432	19.29
217.651	43.86
217.869	66.39
218.087	52.05
218.306	74.58
218.524	41.81
218.742	-7.34
218.96	52.05
219.179	-23.72
219.397	99.16
219.615	195.41
219.833	58.2
220.051	66.39
220.27	43.86
220.488	54.1
220.706	7
220.924	82.77
221.142	64.34
221.36	-11.43
221.578	27.48
221.796	107.35
222.015	-33.96
222.233	152.4
222.451	158.55
222.669	39.76
222.887	115.54
223.105	-13.48
223.323	-21.67
223.541	64.34
223.759	66.39
223.977	31.57
224.195	90.96
224.413	25.43
224.631	45.91
224.849	179.03
225.067	119.64
225.285	95.06
225.503	-5.29
225.721	31.57
225.939	2.9
226.157	23.38
226.375	172.88
226.592	31.57
226.81	33.62
227.028	93.01
227.246	144.21
227.464	52.05
227.682	72.53
227.9	88.92
228.117	-3.24
228.335	107.35
228.553	74.58
228.771	56.15
228.989	45.91
229.206	27.48
229.424	-89.26
229.642	-23.72
229.86	64.34
230.077	70.48
230.295	47.96
230.513	103.25
230.731	47.96
230.948	74.58
231.166	72.53
231.384	41.81
231.601	27.48
231.819	86.87
232.037	-3.24
232.254	27.48
232.472	56.15
232.689	4.95
232.907	72.53
233.125	47.96
233.342	0.85
233.56	-36.01
233.777	84.82
233.995	56.15
234.213	43.86
234.43	125.78
234.648	0.85
234.865	66.39
235.083	54.1
235.3	93.01
235.518	58.2
235.735	123.73
235.953	119.64
236.17	19.29
236.388	-21.67
236.605	-5.29
236.822	64.34
237.04	117.59
237.257	-56.49
237.475	72.53
237.692	11.09
237.909	9.05
238.127	43.86
238.344	33.62
238.562	107.35
238.779	11.09
238.996	-1.19
239.214	84.82
239.431	23.38
239.648	43.86
239.865	80.72
240.083	99.16
240.3	25.43
240.517	23.38
240.735	82.77
240.952	136.02
241.169	-9.39
241.386	45.91
241.603	70.48
241.821	-15.53
242.038	107.35
242.255	41.81
242.472	50
242.689	80.72
242.907	31.57
243.124	136.02
243.341	-9.39
243.558	27.48
243.775	4.95
243.992	-33.96
244.209	86.87
244.426	195.41
244.643	39.76
244.86	19.29
245.078	25.43
245.295	0.85
245.512	31.57
245.729	7
245.946	45.91
246.163	113.49
246.38	7
246.597	138.07
246.814	47.96
247.031	97.11
247.248	33.62
247.464	17.24
247.681	35.67
247.898	45.91
248.115	62.29
248.332	0.85
248.549	82.77
248.766	138.07
248.983	115.54
249.2	66.39
249.417	80.72
249.633	-44.2
249.85	33.62
250.067	25.43
250.284	86.87
250.501	29.52
250.717	111.44
250.934	-5.29
251.151	23.38
251.368	29.52
251.585	17.24
251.801	31.57
252.018	4.95
252.235	187.22
252.451	-5.29
252.668	33.62
252.885	103.25
253.102	4.95
253.318	-15.53
253.535	-23.72
253.752	-56.49
253.968	70.48
254.185	29.52
254.401	58.2
254.618	15.19
254.835	2.9
255.051	82.77
255.268	19.29
255.484	33.62
255.701	37.72
255.917	70.48
256.134	84.82
256.351	76.63
256.567	33.62
256.784	19.29
257	-17.58
257.217	115.54
257.433	76.63
257.65	82.77
257.866	127.83
258.082	43.86
258.299	-68.78
258.515	50
258.732	-17.58
258.948	29.52
259.165	-15.53
259.381	23.38
259.597	105.3
259.814	0.85
260.03	29.52
260.246	68.44
260.463	107.35
260.679	86.87
260.895	74.58
261.112	50
261.328	82.77
261.544	-23.72
261.761	119.64
261.977	21.33
262.193	-9.39
262.409	33.62
262.626	15.19
262.842	115.54
263.058	66.39
263.274	123.73
263.49	52.05
263.707	80.72
263.923	41.81
264.139	23.38
264.355	99.16
264.571	99.16
264.787	29.52
265.004	88.92
265.22	-33.96
265.436	60.24
265.652	84.82
265.868	25.43
266.084	29.52
266.3	31.57
266.516	-19.63
266.732	70.48
266.948	56.15
267.164	35.67
267.38	70.48
267.596	97.11
267.812	93.01
268.028	84.82
268.244	33.62
268.46	74.58
268.676	0.85
268.892	2.9
269.108	-9.39
269.324	7
269.54	-7.34
269.756	125.78
269.972	-7.34
270.188	15.19
270.403	21.33
270.619	66.39
270.835	103.25
271.051	-15.53
271.267	64.34
271.483	105.3
271.698	107.35
271.914	13.14
272.13	11.09
272.346	35.67
272.562	-23.72
272.777	43.86
272.993	-36.01
273.209	74.58
273.425	19.29
273.64	-23.72
273.856	0.85
274.072	11.09
274.287	33.62
274.503	47.96
274.719	56.15
274.934	74.58
275.15	58.2
275.366	93.01
275.581	17.24
275.797	-13.48
276.012	78.68
276.228	7
276.444	58.2
276.659	86.87
276.875	4.95
277.09	43.86
277.306	-40.11
277.521	45.91
277.737	37.72
277.952	7
278.168	19.29
278.383	35.67
278.599	101.2
278.814	84.82
279.03	105.3
279.245	90.96
279.461	70.48
279.676	95.06
279.892	-13.48
280.107	-40.11
280.322	4.95
280.538	39.76
280.753	101.2
280.969	47.96
281.184	19.29
281.399	176.98
281.615	0.85
281.83	13.14
282.045	19.29
282.26	88.92
282.476	86.87
282.691	138.07
282.906	4.95
283.122	72.53
283.337	0.85
283.552	64.34
283.767	-21.67
283.983	62.29
284.198	-1.19
284.413	33.62
284.628	-5.29
284.843	4.95
285.058	52.05
285.274	62.29
285.489	-46.25
285.704	90.96
285.919	31.57
286.134	-17.58
286.349	25.43
286.564	-5.29
286.779	109.4
286.995	45.91
287.21	-23.72
287.425	54.1
287.64	25.43
287.855	66.39
288.07	0.85
288.285	4.95
288.5	84.82
288.715	9.05
288.93	50
289.145	29.52
289.36	52.05
289.575	37.72
289.79	39.76
290.004	-1.19
290.219	60.24
290.434	13.14
290.649	23.38
290.864	58.2
291.079	23.38
291.294	84.82
291.509	80.72
291.724	25.43
291.938	-19.63
292.153	80.72
292.368	58.2
292.583	66.39
292.798	13.14
293.012	9.05
293.227	33.62
293.442	7
293.657	76.63
293.871	58.2
294.086	35.67
294.301	93.01
294.516	93.01
294.73	4.95
294.945	-3.24
295.16	72.53
295.374	82.77
295.589	82.77
295.804	-31.91
296.018	25.43
296.233	62.29
296.447	-9.39
296.662	-1.19
296.877	90.96
297.091	35.67
297.306	21.33
297.52	-3.24
297.735	50
297.949	47.96
298.164	107.35
298.378	41.81
298.593	15.19
298.807	17.24
299.022	84.82
299.236	111.44
299.451	93.01
299.665	111.44
299.88	29.52
300.094	107.35
300.309	86.87
300.523	146.26
300.737	21.33
300.952	64.34
301.166	47.96
301.381	43.86
301.595	0.85
301.809	41.81
302.024	29.52
302.238	2.9
302.452	140.12
302.667	4.95
302.881	54.1
303.095	93.01
303.309	15.19
303.524	11.09
303.738	2.9
303.952	7
304.166	50
304.381	-64.68
304.595	62.29
304.809	33.62
305.023	37.72
305.237	9.05
305.452	-9.39
305.666	39.76
305.88	76.63
306.094	11.09
306.308	-1.19
306.522	78.68
306.736	138.07
306.95	78.68
307.164	144.21
307.379	2.9
307.593	154.45
307.807	39.76
308.021	54.1
308.235	95.06
308.449	-7.34
308.663	0.85
308.877	93.01
309.091	62.29
309.305	105.3
309.519	-23.72
309.733	95.06
309.947	43.86
310.161	43.86
310.374	-13.48
310.588	86.87
310.802	56.15
311.016	11.09
311.23	25.43
311.444	7
311.658	74.58
311.872	144.21
312.085	162.64
312.299	78.68
312.513	115.54
312.727	88.92
312.941	95.06
313.154	52.05
313.368	47.96
313.582	64.34
313.796	56.15
314.009	-3.24
314.223	97.11
314.437	101.2
314.651	133.97
314.864	19.29
315.078	31.57
315.292	-1.19
315.505	7
315.719	86.87
315.933	60.24
316.146	52.05
316.36	-11.43
316.573	76.63
316.787	111.44
317.001	52.05
317.214	-17.58
317.428	68.44
317.641	37.72
317.855	-5.29
318.068	15.19
318.282	50
318.495	93.01
318.709	31.57
318.922	125.78
319.136	88.92
319.349	193.36
319.563	66.39
319.776	7
319.99	-29.87
320.203	50
320.417	27.48
320.63	64.34
320.843	101.2
321.057	41.81
321.27	50
321.483	93.01
321.697	111.44
321.91	58.2
322.124	60.24
322.337	27.48
322.55	-56.49
322.763	2.9
322.977	15.19
323.19	19.29
323.403	-15.53
323.617	41.81
323.83	84.82
324.043	-15.53
324.256	90.96
324.469	21.33
324.683	72.53
324.896	76.63
325.109	60.24
325.322	-56.49
325.535	41.81
325.748	11.09
325.962	11.09
326.175	41.81
326.388	82.77
326.601	56.15
326.814	33.62
327.027	13.14
327.24	90.96
327.453	-29.87
327.666	45.91
327.879	-13.48
328.092	-15.53
328.305	109.4
328.518	45.91
328.731	4.95
328.944	-7.34
329.157	15.19
329.37	9.05
329.583	123.73
329.796	54.1
330.009	-42.15
330.222	136.02
330.435	31.57
330.648	76.63
330.861	17.24
331.073	107.35
331.286	66.39
331.499	90.96
331.712	0.85
331.925	-15.53
332.138	109.4
332.35	78.68
332.563	4.95
332.776	117.59
332.989	-13.48
333.202	68.44
333.414	47.96
333.627	-3.24
333.84	62.29
334.053	45.91
334.265	-13.48
334.478	-15.53
334.691	2.9
334.903	68.44
335.116	-23.72
335.329	13.14
335.541	62.29
335.754	54.1
335.966	-64.68
336.179	23.38
336.392	29.52
336.604	0.85
336.817	11.09
337.029	82.77
337.242	43.86
337.454	76.63
337.667	17.24
337.88	25.43
338.092	25.43
338.305	123.73
338.517	13.14
338.729	93.01
338.942	156.5
339.154	27.48
339.367	-44.2
339.579	-21.67
339.792	25.43
340.004	84.82
340.217	64.34
340.429	66.39
340.641	2.9
340.854	76.63
341.066	52.05
341.278	70.48
341.491	166.74
341.703	47.96
341.915	9.05
342.128	45.91
342.34	90.96
342.552	17.24
342.764	70.48
342.977	109.4
343.189	95.06
343.401	7
343.613	13.14
343.826	29.52
344.038	-7.34
344.25	111.44
344.462	50
344.674	-1.19
344.886	74.58
345.099	103.25
345.311	19.29
345.523	15.19
345.735	-52.39
345.947	95.06
346.159	35.67
346.371	58.2
346.583	23.38
346.795	129.88
347.007	52.05
347.219	52.05
347.431	107.35
347.643	74.58
347.855	74.58
348.067	111.44
348.279	21.33
348.491	52.05
348.703	58.2
348.915	2.9
349.127	78.68
349.339	37.72
349.551	33.62
349.763	56.15
349.975	41.81
350.187	142.16
350.399	123.73
350.61	33.62
350.822	15.19
351.034	23.38
351.246	29.52
351.458	90.96
351.669	37.72
351.881	99.16
352.093	47.96
352.305	95.06
352.517	125.78
352.728	99.16
352.94	29.52
353.152	-3.24
353.363	35.67
353.575	111.44
353.787	70.48
353.999	76.63
354.21	101.2
354.422	11.09
354.633	-21.67
354.845	35.67
355.057	-31.91
355.268	70.48
355.48	72.53
355.692	-50.35
355.903	-1.19
356.115	4.95
356.326	2.9
356.538	68.44
356.749	4.95
356.961	119.64
357.172	-1.19
357.384	68.44
357.595	160.59
357.807	88.92
358.018	52.05
358.23	-3.24
358.441	101.2
358.653	138.07
358.864	11.09
359.075	-17.58
359.287	4.95
359.498	138.07
359.709	66.39
359.921	64.34
360.132	99.16
360.344	62.29
360.555	-27.82
360.766	4.95
360.977	7
361.189	121.68
361.4	4.95
361.611	41.81
361.823	99.16
362.034	68.44
362.245	-48.3
362.456	13.14
362.667	-15.53
362.879	17.24
363.09	52.05
363.301	111.44
363.512	45.91
363.723	4.95
363.935	-58.54
364.146	43.86
364.357	64.34
364.568	11.09
364.779	-13.48
364.99	27.48
365.201	39.76
365.412	125.78
365.623	-31.91
365.834	-11.43
366.045	-17.58
366.256	50
366.467	52.05
366.678	4.95
366.889	64.34
367.1	45.91
367.311	41.81
367.522	58.2
367.733	78.68
367.944	45.91
368.155	70.48
368.366	41.81
368.577	58.2
368.788	99.16
368.999	-31.91
369.209	11.09
369.42	166.74
369.631	152.4
369.842	37.72
370.053	93.01
370.264	183.12
370.474	43.86
370.685	39.76
370.896	-13.48
371.107	119.64
371.317	13.14
371.528	9.05
371.739	95.06
371.95	80.72
372.16	74.58
372.371	70.48
372.582	66.39
372.792	-33.96
373.003	119.64
373.214	66.39
373.424	37.72
373.635	0.85
373.846	164.69
374.056	2.9
374.267	33.62
374.477	56.15
374.688	15.19
374.898	58.2
375.109	111.44
375.319	58.2
375.53	117.59
375.74	80.72
375.951	52.05
376.161	125.78
376.372	117.59
376.582	-29.87
376.793	37.72
377.003	-23.72
377.214	21.33
377.424	7
377.635	88.92
377.845	43.86
378.055	86.87
378.266	9.05
378.476	41.81
378.686	62.29
378.897	56.15
379.107	140.12
379.317	117.59
379.528	23.38
379.738	97.11
379.948	41.81
380.158	123.73
380.369	-1.19
380.579	25.43
380.789	58.2
380.999	64.34
381.21	121.68
381.42	121.68
381.63	47.96
381.84	86.87
382.05	88.92
382.261	33.62
382.471	111.44
382.681	45.91
382.891	90.96
383.101	72.53
383.311	-7.34
383.521	7
383.731	156.5
383.941	109.4
384.151	86.87
384.361	72.53
384.571	84.82
384.781	84.82
384.991	152.4
385.201	115.54
385.411	121.68
385.621	45.91
385.831	72.53
386.041	62.29
386.251	23.38
386.461	131.92
386.671	-52.39
386.881	78.68
387.091	86.87
387.301	58.2
387.511	74.58
387.72	166.74
387.93	90.96
388.14	-48.3
388.35	101.2
388.56	74.58
388.769	101.2
388.979	-21.67
389.189	-3.24
389.399	43.86
389.609	15.19
389.818	50
390.028	86.87
390.238	52.05
390.447	37.72
390.657	66.39
390.867	62.29
391.076	17.24
391.286	60.24
391.496	58.2
391.705	64.34
391.915	58.2
392.125	99.16
392.334	-5.29
392.544	101.2
392.753	47.96
392.963	45.91
393.172	86.87
393.382	21.33
393.591	80.72
393.801	7
394.01	121.68
394.22	31.57
394.429	97.11
394.639	41.81
394.848	82.77
395.058	105.3
395.267	9.05
395.477	113.49
395.686	33.62
395.895	78.68
396.105	203.6
396.314	97.11
396.524	62.29
396.733	82.77
396.942	107.35
397.152	43.86
397.361	27.48
397.57	107.35
397.78	84.82
397.989	113.49
398.198	193.36
398.407	64.34
398.617	68.44
398.826	15.19
399.035	37.72
399.244	74.58
399.453	76.63
399.663	82.77
399.872	154.45
400.081	82.77
400.29	101.2
400.499	62.29
400.708	154.45
400.917	39.76
401.127	133.97
401.336	62.29
401.545	185.17
401.754	101.2
401.963	33.62
402.172	90.96
402.381	60.24
402.59	62.29
402.799	136.02
403.008	97.11
403.217	121.68
403.426	150.36
403.635	33.62
403.844	136.02
404.053	66.39
404.262	90.96
404.471	148.31
404.68	72.53
404.888	144.21
405.097	107.35
405.306	199.51
405.515	146.26
405.724	101.2
405.933	172.88
406.142	107.35
406.35	224.08
406.559	99.16
406.768	93.01
406.977	185.17
407.185	201.55
407.394	195.41
407.603	56.15
407.812	103.25
408.02	162.64
408.229	136.02
408.438	166.74
408.646	156.5
408.855	213.84
409.064	224.08
409.272	217.94
409.481	144.21
409.69	193.36
409.898	152.4
410.107	271.19
410.315	285.52
410.524	172.88
410.733	121.68
410.941	123.73
411.15	287.57
411.358	277.33
411.567	289.62
411.775	289.62
411.984	277.33
412.192	367.44
412.401	256.85
412.609	277.33
412.818	340.82
413.026	334.67
413.234	318.29
413.443	400.21
413.651	314.19
413.86	373.58
414.068	435.02
414.276	451.41
414.485	398.16
414.693	486.22
414.901	480.08
415.11	449.36
415.318	430.93
415.526	516.94
415.734	582.48
415.943	523.09
416.151	541.52
416.359	500.56
416.567	596.81
416.776	621.39
416.984	688.97
417.192	711.5
417.4	611.15
417.608	602.96
417.817	615.24
418.025	748.36
418.233	807.75
418.441	721.74
418.649	688.97
418.857	748.36
419.065	789.32
419.273	867.14
419.481	799.56
419.689	961.35
419.897	951.11
420.105	932.68
420.313	1014.6
420.521	1121.09
420.729	1061.7
420.937	944.97
421.145	975.69
421.353	1090.37
421.561	1164.1
421.769	1153.86
421.977	1182.53
422.185	1303.36
422.393	1383.23
422.601	1436.48
422.809	1403.71
423.017	1407.81
423.224	1473.34
423.432	1573.69
423.64	1600.32
423.848	1794.87
424.056	1620.8
424.263	1829.69
424.471	1721.15
424.679	1721.15
424.887	1821.5
425.094	1862.46
425.302	1956.66
425.51	2032.44
425.718	2112.31
425.925	2106.17
426.133	2239.28
426.341	2452.27
426.548	2427.7
426.756	2399.02
426.964	2505.52
427.171	2562.86
427.379	2618.16
427.586	2628.4
427.794	2837.29
428.001	2880.3
428.209	2900.78
428.417	3072.81
428.624	3154.73
428.832	3121.96
429.039	3150.63
429.247	3136.29
429.454	3568.41
429.662	3685.15
429.869	3433.25
430.076	3760.92
430.284	3617.57
430.491	3795.74
430.699	3941.15
430.906	4023.06
431.114	3932.95
431.321	4119.32
431.528	4199.19
431.736	4496.14
431.943	4565.78
432.15	4479.76
432.358	4651.79
432.565	4952.84
432.772	4778.76
432.979	5184.26
433.187	5110.54
433.394	5294.85
433.601	5579.52
433.808	5604.1
434.016	5495.55
434.223	5817.08
434.43	6093.56
434.637	5888.76
434.844	6447.86
435.052	6392.56
435.259	6380.28
435.466	6568.69
435.673	6503.15
435.88	6648.56
436.087	7221.99
436.294	7320.29
436.501	7193.32
436.708	7129.83
436.915	7381.73
437.122	7965.4
437.329	7531.23
437.537	7979.74
437.743	7906.01
437.95	7998.17
438.157	8534.74
438.364	8630.99
438.571	8680.14
438.778	8784.59
438.985	9462.47
439.192	9149.13
439.399	9513.67
439.606	9335.49
439.813	9884.35
440.02	10418.87
440.227	10359.48
440.433	10040
440.64	10326.71
440.847	10355.38
441.054	10750.64
441.261	11438.76
441.467	11225.77
441.674	11281.07
441.881	11924.13
442.088	11684.52
442.294	11715.23
442.501	12139.16
442.708	12294.81
442.914	12784.27
443.121	13281.93
443.328	12737.17
443.534	13996.67
443.741	13408.9
443.948	13406.86
444.154	14117.5
444.361	14140.03
444.568	14357.11
444.774	14312.06
444.981	14262.91
445.187	14856.82
445.394	15374.95
445.6	15258.22
445.807	16556.63
446.013	16087.65
446.22	16425.56
446.426	16835.16
446.633	17308.24
446.839	17818.18
447.046	16869.97
447.252	17689.16
447.459	17723.97
447.665	18133.57
447.871	18604.6
448.078	19536.43
448.284	18387.52
448.491	19161.65
448.697	19894.82
448.903	19892.77
449.11	20265.5
449.316	19788.33
449.522	20341.28
449.728	20781.59
449.935	20955.67
450.141	20795.93
450.347	21436.94
450.553	20929.05
450.76	20953.62
450.966	21746.19
451.172	21533.2
451.378	21920.26
451.584	21506.57
451.791	22102.53
451.997	22102.53
452.203	22516.22
452.409	22327.81
452.615	22264.32
452.821	21576.2
453.027	21201.43
453.233	22233.6
453.44	21137.94
453.646	21608.97
453.852	21940.74
454.058	22170.12
454.264	21520.91
454.47	21891.59
454.676	21387.79
454.882	22184.45
455.088	20148.77
455.294	20546.08
455.5	20918.81
455.705	21109.27
455.911	20326.94
456.117	19913.25
456.323	19493.42
456.529	18428.48
456.735	19450.41
456.941	19018.29
457.147	18686.52
457.352	17857.09
457.558	17648.2
457.764	17885.76
457.97	17369.68
458.176	16955.99
458.381	17121.87
458.587	16185.95
458.793	16177.76
458.999	15391.34
459.204	16308.83
459.41	15858.28
459.616	15116.91
459.821	14967.41
460.027	14772.85
460.233	14500.47
460.438	13783.68
460.644	14117.5
460.85	13255.31
461.055	13003.41
461.261	13075.09
461.466	12010.14
461.672	11752.1
461.878	12788.37
462.083	11762.34
462.289	11356.84
462.494	11362.98
462.7	10900.14
462.905	10570.42
463.111	11006.64
463.316	11012.78
463.522	10728.11
463.727	10717.87
463.932	10650.29
464.138	10701.49
464.343	10685.11
464.549	10513.08
464.754	10689.2
464.959	10422.97
465.165	10621.62
465.37	10089.15
465.575	9802.43
465.781	9970.37
465.986	10271.42
466.191	9798.34
466.397	9859.77
466.602	9114.31
466.807	9495.24
467.012	9667.27
467.218	9609.92
467.423	9525.96
467.628	9585.35
467.833	9749.18
468.038	9532.1
468.244	9075.4
468.449	9614.02
468.654	9206.47
468.859	9206.47
469.064	9130.7
469.269	8858.32
469.474	8745.68
469.679	9099.98
469.885	8743.63
470.09	8821.45
470.295	8852.17
470.5	8624.85
470.705	8680.14
470.91	8585.94
471.115	8418
471.32	8598.23
471.525	8510.16
471.73	8260.31
471.935	8268.5
472.139	7865.05
472.344	7975.64
472.549	7860.96
472.754	7889.63
472.959	7740.13
473.164	7631.58
473.369	7516.9
473.574	7645.92
473.778	7594.72
473.983	7746.27
474.188	7645.92
474.393	7152.36
474.598	7267.05
474.802	7103.21
475.007	7117.54
475.212	7088.87
475.417	6873.84
475.621	6912.75
475.826	6892.27
476.031	6753.01
476.235	6740.72
476.44	6793.97
476.645	6662.9
476.849	6677.23
477.054	6474.48
477.259	6464.24
477.463	6540.02
477.668	6300.41
477.872	6396.66
478.077	6222.58
478.282	5974.78
478.486	5884.67
478.691	5952.25
478.895	6005.5
479.1	6001.4
479.304	6097.66
479.509	5862.14
479.713	5843.71
479.918	5829.37
480.122	5618.43
480.326	5702.4
480.531	5673.73
480.735	5591.81
480.94	5628.67
481.144	5841.66
481.348	5559.04
481.553	5710.59
481.757	5448.45
481.961	5513.99
482.166	5538.56
482.37	5620.48
482.574	5602.05
482.778	5495.55
482.983	5655.3
483.187	5495.55
483.391	5597.95
483.595	5327.62
483.8	5423.87
484.004	5606.14
484.208	5538.56
484.412	5387.01
484.616	5528.32
484.821	5491.46
485.025	5309.19
485.229	5382.92
485.433	5442.31
485.637	5427.97
485.841	5374.72
486.045	5468.93
486.249	5550.85
486.453	5503.75
486.657	5419.78
486.861	5346.05
487.065	5389.06
487.269	5391.11
487.473	5282.56
487.677	5497.6
487.881	5645.06
488.085	5337.86
488.289	5444.35
488.493	5485.31
488.697	5513.99
488.901	5546.75
489.105	5444.35
489.309	5575.42
489.512	5581.57
489.716	5462.79
489.92	5571.33
490.124	5415.68
490.328	5647.1
490.531	5585.66
490.735	5581.57
490.939	5647.1
491.143	5608.19
491.346	5591.81
491.55	5812.99
491.754	5640.96
491.958	5864.19
492.161	5661.44
492.365	5737.21
492.569	5630.72
492.772	6087.42
492.976	5812.99
493.18	5915.39
493.383	5911.29
493.587	5899
493.79	6021.88
493.994	5843.71
494.197	5913.34
494.401	6009.59
494.605	5991.16
494.808	6077.18
495.012	6365.94
495.215	6171.38
495.419	6341.36
495.622	6118.14
495.825	6210.29
496.029	6474.48
496.232	6494.96
496.436	6478.58
496.639	6568.69
496.843	6574.83
497.046	6568.69
497.249	6851.31
497.453	6689.52
497.656	6828.78
497.859	6843.12
498.063	6929.13
498.266	7090.92
498.469	7185.13
498.673	7049.96
498.876	7281.38
499.079	7389.92
499.282	7279.33
499.485	7600.87
499.689	7613.15
499.892	7670.5
500.095	7539.43
500.298	7660.26
500.501	7713.5
500.705	7953.12
500.908	7940.83
501.111	8006.36
501.314	8082.14
501.517	8334.04
501.72	8295.13
501.923	8274.65
502.126	8553.17
502.329	8704.72
502.532	8786.64
502.735	8936.14
502.938	8995.53
503.141	8997.58
503.344	9040.59
503.547	9208.52
503.75	9349.83
503.953	9188.04
504.156	9374.41
504.359	9358.02
504.562	9605.83
504.765	9636.55
504.968	9902.78
505.17	9681.6
505.373	10040
505.576	10416.82
505.779	10175.16
505.982	10242.75
506.185	10476.21
506.387	10283.7
506.59	10623.67
506.793	10807.98
506.996	10937.01
507.198	10980.01
507.401	11012.78
507.604	11324.07
507.807	11440.81
508.009	11524.77
508.212	11430.57
508.415	11741.86
508.617	11762.34
508.82	11860.64
509.022	11870.88
509.225	12206.75
509.428	12259.99
509.63	12452.5
509.833	12411.54
510.035	12667.54
510.238	12524.18
510.44	12546.71
510.643	12952.21
510.845	13173.39
511.048	13017.74
511.25	13027.98
511.453	13181.58
511.655	13552.26
511.858	13599.37
512.06	14080.64
512.262	13632.13
512.465	13937.28
512.667	14109.31
512.87	13906.56
513.072	14207.61
513.274	14199.42
513.477	14346.87
513.679	14641.78
513.881	14568.06
514.084	14635.64
514.286	14729.84
514.488	14981.74
514.69	15385.19
514.893	15544.94
515.095	15315.56
515.297	15522.41
515.499	15641.19
515.701	15870.56
515.904	16192.09
516.106	16333.4
516.308	16286.3
516.51	16425.56
516.712	16134.75
516.914	16546.39
517.116	16738.9
517.318	16685.65
517.52	16941.65
517.722	16845.4
517.925	17085.01
518.127	17422.92
518.329	17418.83
518.531	17431.12
518.733	17631.82
518.935	17922.63
519.136	17799.75
519.338	17893.96
519.54	18336.32
519.742	18192.96
519.944	18311.74
520.146	18459.2
520.348	18735.67
520.55	18844.21
520.752	18641.46
520.954	19032.63
521.155	18836.02
521.357	19233.33
521.559	19311.15
521.761	19356.21
521.963	19448.36
522.164	19522.09
522.366	19452.46
522.568	19716.65
522.77	19776.04
522.971	20324.9
523.173	20011.56
523.375	20124.19
523.576	19927.59
523.778	19989.03
523.98	20279.84
524.181	20699.67
524.383	20382.24
524.584	20849.18
524.786	20531.74
524.988	20406.81
525.189	20769.3
525.391	20974.1
525.592	21066.26
525.794	21021.2
525.995	21092.88
526.197	21123.6
526.398	21271.06
526.6	21320.21
526.801	20982.29
527.003	21293.58
527.204	21150.23
527.406	21578.25
527.607	21518.86
527.808	21615.12
528.01	21498.38
528.211	21787.14
528.412	21873.16
528.614	21783.05
528.815	21750.28
529.016	22129.16
529.218	21697.03
529.419	21830.15
529.62	21846.54
529.822	22069.76
530.023	22051.33
530.224	21510.67
530.425	21787.14
530.626	21537.29
530.828	21854.73
531.029	22190.59
531.23	22047.24
531.431	21766.67
531.632	22090.24
531.833	21811.72
532.035	22327.81
532.236	22239.75
532.437	22295.04
532.638	22053.38
532.839	22157.83
533.04	22280.71
533.241	21828.1
533.442	22710.78
533.643	22010.37
533.844	22276.61
534.045	22215.17
534.246	21844.49
534.447	22336
534.648	22188.55
534.849	22239.75
535.05	21760.52
535.251	22274.56
535.451	21811.72
535.652	22106.63
535.853	22102.53
536.054	22133.25
536.255	22002.18
536.456	21885.45
536.657	22299.14
536.857	22176.26
537.058	21795.34
537.259	22485.5
537.46	22028.81
537.66	21985.8
537.861	22034.95
538.062	22082.05
538.263	22260.23
538.463	22024.71
538.664	22010.37
538.865	22249.99
539.065	22112.77
539.266	21807.62
539.466	22071.81
539.667	21672.46
539.868	22243.84
540.068	21946.89
540.269	21844.49
540.469	22061.57
540.67	21819.91
540.87	21832.2
541.071	22008.33
541.271	21979.65
541.472	21686.79
541.672	21774.86
541.873	21565.96
542.073	21615.12
542.274	21860.87
542.474	22170.12
542.675	21637.64
542.875	21805.58
543.075	21983.75
543.276	21830.15
543.476	21901.83
543.676	21740.04
543.877	22037
544.077	21752.33
544.277	21731.85
544.478	21965.32
544.678	22012.42
544.878	21645.84
545.078	21621.26
545.279	21586.44
545.479	21746.19
545.679	21934.6
545.879	21903.88
546.079	21867.02
546.28	21772.81
546.48	21469.71
546.68	21807.62
546.88	21776.91
547.08	21801.48
547.28	21701.13
547.48	21758.47
547.68	21723.66
547.88	21303.82
548.081	21506.57
548.281	21602.83
548.481	21631.5
548.681	21899.78
548.881	21914.12
549.081	21850.63
549.28	21563.92
549.48	21457.42
549.68	21828.1
549.88	21887.5
550.08	21357.07
550.28	21727.75
550.48	21596.68
550.68	21938.69
550.88	21307.92
551.08	21948.93
551.279	21862.92
551.479	21520.91
551.679	21701.13
551.879	21391.89
552.079	21674.51
552.278	21545.48
552.478	21750.28
552.678	21559.82
552.878	21688.84
553.077	21744.14
553.277	21146.13
553.477	21830.15
553.676	21654.03
553.876	21463.57
554.076	21561.87
554.275	21508.62
554.475	21207.57
554.674	21555.72
554.874	21737.99
555.074	21398.03
555.273	21684.75
555.473	21629.45
555.672	21301.78
555.872	21230.1
556.071	21500.43
556.271	21637.64
556.47	21537.29
556.67	21195.28
556.869	21162.51
557.068	21217.81
557.268	21383.7
557.467	21379.6
557.667	21383.7
557.866	21105.17
558.065	21287.44
558.265	21219.86
558.464	21058.07
558.663	21404.17
558.863	21064.21
559.062	21608.97
559.261	21133.84
559.461	21484.05
559.66	21264.91
559.859	21312.02
560.058	20970.01
560.258	21144.08
560.457	21289.49
560.656	21608.97
560.855	21070.36
561.054	21500.43
561.253	20970.01
561.453	21203.47
561.652	21232.15
561.851	21557.77
562.05	21428.75
562.249	20918.81
562.448	21312.02
562.647	21219.86
562.846	20961.81
563.045	21139.99
563.244	20791.83
563.443	21404.17
563.642	20976.15
563.841	21215.76
564.04	20927
564.239	21226
564.438	20886.04
564.637	20916.76
564.836	21019.16
565.035	20863.51
565.234	20556.32
565.432	21021.2
565.631	20931.09
565.83	21088.79
566.029	20881.94
566.228	20947.48
566.427	21015.06
566.625	20875.8
566.824	20480.54
567.023	21027.35
567.222	20437.53
567.42	20982.29
567.619	20953.62
567.818	20587.04
568.016	20804.12
568.215	20961.81
568.414	20955.67
568.612	20697.63
568.811	20433.44
569.01	20589.08
569.208	20335.14
569.407	20740.63
569.605	20400.67
569.804	20873.75
570.002	20679.19
570.201	20671
570.4	20496.92
570.598	20240.93
570.797	20468.25
570.995	20308.51
571.193	20437.53
571.392	20652.57
571.59	20349.47
571.789	20269.6
571.987	20439.58
572.186	20361.76
572.384	20148.77
572.582	20406.81
572.781	20449.82
572.979	19997.22
573.177	20357.66
573.376	20523.55
573.574	19857.96
573.772	20269.6
573.971	20142.63
574.169	20013.6
574.367	19903.01
574.565	20079.14
574.763	20032.04
574.962	20058.66
575.16	19671.59
575.358	20083.23
575.556	19851.81
575.754	19952.16
575.952	19741.22
576.151	20052.52
576.349	19745.32
576.547	19577.39
576.745	19700.26
576.943	19759.66
577.141	19917.35
577.339	19808.81
577.537	19567.15
577.735	19683.88
577.933	19634.73
578.131	19827.24
578.329	19548.72
578.527	19438.12
578.725	19391.02
578.923	19575.34
579.121	19601.96
579.319	19243.57
579.516	19532.33
579.714	19556.91
579.912	19405.36
580.11	19071.54
580.308	19247.66
580.506	19520.04
580.704	18987.57
580.901	19497.52
581.099	19335.73
581.297	18883.13
581.495	19098.16
581.692	19315.25
581.89	18958.9
582.088	19196.46
582.285	18940.47
582.483	19020.34
582.681	18887.22
582.878	18903.6
583.076	18827.83
583.274	19044.91
583.471	18960.95
583.669	19014.2
583.866	18620.99
584.064	18782.77
584.262	18483.77
584.459	18846.26
584.657	18532.92
584.854	18715.19
585.052	18381.37
585.249	18774.58
585.447	18801.21
585.644	18215.49
585.841	18489.92
586.039	18573.88
586.236	18342.46
586.434	18459.2
586.631	18246.21
586.828	18412.09
587.026	18539.07
587.223	18307.65
587.42	18145.86
587.618	18375.23
587.815	18022.98
588.012	18065.99
588.21	18190.91
588.407	18176.58
588.604	17850.95
588.801	17986.11
588.999	17994.31
589.196	18360.89
589.393	18127.42
589.59	17879.62
589.787	17738.31
589.984	17601.1
590.182	17685.06
590.379	17805.89
590.576	17349.2
590.773	17687.11
590.97	17744.45
591.167	17791.56
591.364	17674.82
591.561	17627.72
591.758	17361.48
591.955	17412.68
592.152	17459.79
592.349	17171.02
592.546	17556.04
592.743	17291.85
592.94	17164.88
593.137	17373.77
593.334	17429.07
593.531	17111.63
593.727	17111.63
593.924	17074.77
594.121	17033.81
594.318	17306.19
594.515	16915.03
594.712	17232.46
594.908	16933.46
595.105	17275.47
595.302	16986.71
595.499	16949.84
595.696	16880.21
595.892	16800.34
596.089	17037.91
596.286	16988.75
596.482	17058.39
596.679	16880.21
596.876	16892.5
597.072	16869.97
597.269	16783.96
597.466	16910.93
597.662	16304.73
597.859	16532.06
598.055	16730.71
598.252	16773.72
598.448	16491.1
598.645	16495.19
598.841	16452.19
599.038	16589.4
599.234	16411.23
599.431	16321.12
599.627	16214.62
599.824	16515.67
600.02	16185.95
600.217	16370.27
600.413	16390.75
600.609	16255.58
600.806	16347.74
601.002	16245.34
601.198	15981.15
601.395	16185.95
601.591	16231.01
601.787	16048.74
601.984	16079.46
602.18	16155.23
602.376	15923.81
602.572	16040.54
602.769	15915.62
602.965	15835.75
603.161	15794.79
603.357	15878.76
603.553	15966.82
603.75	15878.76
603.946	15708.77
604.142	15694.44
604.338	15538.79
604.534	15579.75
604.73	15721.06
604.926	15581.8
605.122	15706.73
605.318	15694.44
605.514	15657.57
605.71	15520.36
605.906	15553.13
606.102	15610.47
606.298	15553.13
606.494	15665.77
606.69	15729.25
606.886	15714.92
607.082	15260.27
607.278	15327.85
607.474	15151.73
607.67	15321.71
607.866	15254.12
608.062	15313.52
608.257	15256.17
608.453	15145.58
608.649	15381.1
608.845	15250.03
609.041	15159.92
609.236	15239.79
609.432	15080.05
609.628	15282.8
609.824	15221.36
610.019	15069.81
610.215	15180.4
610.411	15440.49
610.606	15209.07
610.802	14955.12
610.998	15037.04
611.193	15374.95
611.389	15043.18
611.584	14793.33
611.78	14738.04
611.976	15055.47
612.171	15338.09
612.367	15200.88
612.562	14764.66
612.758	14729.84
612.953	15092.34
613.149	15037.04
613.344	14807.67
613.539	15061.62
613.735	14867.06
613.93	14815.86
614.126	14719.6
614.321	15002.22
614.517	14711.41
614.712	14967.41
614.907	14805.62
615.103	15034.99
615.298	14793.33
615.493	14670.45
615.688	14647.93
615.884	15084.14
616.079	14606.97
616.274	14707.32
616.47	14617.21
616.665	14756.47
616.86	14658.17
617.055	14680.69
617.25	14539.38
617.445	14699.13
617.641	14275.2
617.836	14582.39
618.031	14312.06
618.226	14459.51
618.421	14496.38
618.616	14307.96
618.811	14353.02
619.006	14504.57
619.201	14164.61
619.396	14346.87
619.591	13933.18
619.786	14361.21
619.981	14039.68
620.176	14125.69
620.371	13890.18
620.566	14004.86
620.761	13777.54
620.956	13798.02
621.151	13924.99
621.346	13714.05
621.541	13650.57
621.735	14023.3
621.93	13421.19
622.125	13513.35
622.32	13210.25
622.515	13456.01
622.709	13349.51
622.904	13564.55
623.099	13451.91
623.294	13144.72
623.488	13124.24
623.683	12989.07
623.878	12913.3
624.072	13122.19
624.267	12941.97
624.462	12987.02
624.656	12751.51
624.851	12618.39
625.046	12767.89
625.24	12616.34
625.435	12530.33
625.629	12616.34
625.824	12577.43
626.018	12360.34
626.213	12515.99
626.407	12552.85
626.602	12094.11
626.796	12284.57
626.991	12149.4
627.185	12137.12
627.38	12106.4
627.574	12092.06
627.768	11811.49
627.963	11752.1
628.157	11733.67
628.352	11817.63
628.546	11485.86
628.74	11684.52
628.935	11645.6
629.129	11588.26
629.323	11395.75
629.517	11211.43
629.712	11508.39
629.906	11661.99
630.1	11188.91
630.294	11094.7
630.489	11100.84
630.683	11401.9
630.877	11041.45
631.071	10842.8
631.265	10898.1
631.459	10783.41
631.653	10857.14
631.848	10713.78
632.042	10830.51
632.236	10896.05
632.43	10744.5
632.624	10613.43
632.818	10767.03
633.012	10382.01
633.206	10343.1
633.4	10400.44
633.594	10414.77
633.788	10420.92
633.982	10443.45
634.176	10287.8
634.369	10115.77
634.563	10171.07
634.757	9951.93
634.951	10070.72
635.145	10066.62
635.339	10017.47
635.533	9931.45
635.726	9978.56
635.92	9792.19
636.114	9804.48
636.308	9700.03
636.501	9659.07
636.695	9763.52
636.889	9452.23
637.083	9439.94
637.276	9554.63
637.47	9407.17
637.664	9380.55
637.857	9427.65
638.051	9411.27
638.244	9165.51
638.438	9200.33
638.632	9181.9
638.825	9159.37
639.019	9177.8
639.212	9009.87
639.406	8975.05
639.599	8825.55
639.793	8854.22
639.986	8606.42
640.18	8862.41
640.373	8876.75
640.567	8684.24
640.76	8729.3
640.954	8665.81
641.147	8501.97
641.34	8428.24
641.534	8579.79
641.727	8364.76
641.92	8628.95
642.114	8243.93
642.307	8405.72
642.5	8311.51
642.694	8127.19
642.887	8098.52
643.08	8020.7
643.273	8129.24
643.467	7897.82
643.66	7688.93
643.853	7912.16
644.046	7879.39
644.239	7858.91
644.432	7660.26
644.626	7635.68
644.819	7594.72
645.012	7627.49
645.205	7582.43
645.398	7619.3
645.591	7336.68
645.784	7439.08
645.977	7285.48
646.17	7486.18
646.363	7353.06
646.556	7285.48
646.749	7140.07
646.942	7394.02
647.135	7191.27
647.328	7207.66
647.521	7138.02
647.714	7023.34
647.907	7025.39
648.099	6996.71
648.292	6869.74
648.485	6941.42
648.678	6925.04
648.871	6714.09
649.064	6728.43
649.256	6869.74
649.449	6546.16
649.642	6789.87
649.835	6630.13
650.027	6537.97
650.22	6521.59
650.413	6458.1
650.605	6404.85
650.798	6322.93
650.991	6623.98
651.183	6324.98
651.376	6394.61
651.568	6206.2
651.761	6296.31
651.954	6314.74
652.146	6128.38
652.339	6286.07
652.531	6222.58
652.724	5972.73
652.916	5989.11
653.109	5837.56
653.301	5987.07
653.494	6007.55
653.686	5847.8
653.879	5901.05
654.071	5827.32
654.263	5683.97
654.456	5675.77
654.648	6009.59
654.84	5858.04
655.033	5733.12
655.225	5722.88
655.417	5569.28
655.61	5597.95
655.802	5518.08
655.994	5589.76
656.186	5487.36
656.379	5571.33
656.571	5522.18
656.763	5413.63
656.955	5415.68
657.148	5294.85
657.34	5407.49
657.532	5311.24
657.724	5397.25
657.916	5458.69
658.108	5354.24
658.3	5360.39
658.492	5077.77
658.684	5114.63
658.876	5235.46
659.068	5141.25
659.26	5141.25
659.452	4948.75
659.644	5098.25
659.836	5092.1
660.028	4897.55
660.22	4942.6
660.412	4883.21
660.604	4850.44
660.796	4879.11
660.988	4909.83
661.18	4735.76
661.372	4760.33
661.563	4793.1
661.755	4750.09
661.947	4662.03
662.139	4725.52
662.331	4592.4
662.522	4674.32
662.714	4453.14
662.906	4539.15
663.097	4332.31
663.289	4338.45
663.481	4592.4
663.673	4561.68
663.864	4494.1
664.056	4512.53
664.247	4373.27
664.439	4393.75
664.631	4438.8
664.822	4399.89
665.014	4270.87
665.205	4387.6
665.397	4332.31
665.588	4160.28
665.78	4145.94
665.971	4213.53
666.163	4160.28
666.354	4143.89
666.546	4289.3
666.737	4094.74
666.929	4113.17
667.12	4129.56
667.311	4188.95
667.503	4102.93
667.694	4107.03
667.885	4033.3
668.077	4053.78
668.268	3836.7
668.459	4074.26
668.651	3978.01
668.842	4012.82
669.033	4049.69
669.224	3904.28
669.416	4176.66
669.607	3980.06
669.798	3908.38
669.989	3920.67
670.18	3810.08
670.371	3879.71
670.563	3744.54
670.754	4006.68
670.945	3851.03
671.136	3838.75
671.327	3877.66
671.518	3885.85
671.709	3935
671.9	3838.75
672.091	3820.32
672.282	3885.85
672.473	3830.55
672.664	3877.66
672.855	3879.71
673.046	3783.45
673.237	3793.69
673.428	3863.32
673.619	3642.14
673.809	3722.01
674	3734.3
674.191	3902.23
674.382	3732.25
674.573	3906.33
674.764	3631.9
674.954	3828.51
675.145	3588.89
675.336	3617.57
675.527	3623.71
675.717	3744.54
675.908	3664.67
676.099	3670.81
676.289	3668.77
676.48	3736.35
676.671	3670.81
676.861	3627.81
677.052	3783.45
677.243	3724.06
677.433	3611.42
677.624	3859.23
677.814	3767.07
678.005	3676.96
678.195	3646.24
678.386	3619.61
678.576	3683.1
678.767	3711.77
678.957	3758.88
679.148	3777.31
679.338	3644.19
679.529	3652.38
679.719	3717.92
679.909	3703.58
680.1	3728.16
680.29	3613.47
680.481	3654.43
680.671	3676.96
680.861	3633.95
681.052	3629.85
681.242	3578.65
681.432	3793.69
681.622	3748.64
681.813	3621.66
682.003	3582.75
682.193	3687.2
682.383	3705.63
682.573	3726.11
682.764	3676.96
682.954	3719.96
683.144	3742.49
683.334	3740.44
683.524	3797.79
683.714	3724.06
683.904	3703.58
684.094	3756.83
684.284	3740.44
684.474	3697.44
684.664	3687.2
684.854	3908.38
685.044	3705.63
685.234	3746.59
685.424	3744.54
685.614	3758.88
685.804	3875.61
685.994	3793.69
686.184	3787.55
686.374	3683.1
686.564	3650.33
686.753	3656.48
686.943	3611.42
687.133	3595.04
687.323	3656.48
687.513	3683.1
687.702	3656.48
687.892	3668.77
688.082	3722.01
688.272	3646.24
688.461	3595.04
688.651	3814.17
688.841	3605.28
689.03	3554.08
689.22	3490.59
689.41	3572.51
689.599	3496.74
689.789	3486.5
689.979	3562.27
690.168	3554.08
690.358	3394.34
690.547	3607.33
690.737	3529.5
690.926	3459.87
691.116	3427.11
691.305	3533.6
691.495	3466.02
691.684	3363.62
691.874	3390.24
692.063	3517.22
692.252	3386.15
692.442	3380
692.631	3334.95
692.82	3326.75
693.01	3390.24
693.199	3451.68
693.388	3470.11
693.578	3355.43
693.767	3324.71
693.956	3193.64
694.146	3312.42
694.335	3261.22
694.524	3253.03
694.713	3361.57
694.902	3334.95
695.092	3412.77
695.281	3371.81
695.47	3263.27
695.659	3246.88
695.848	3341.09
696.037	3296.04
696.226	3341.09
696.415	3324.71
696.604	3269.41
696.793	3328.8
696.982	3320.61
697.171	3259.17
697.36	3222.31
697.549	3283.75
697.738	3210.02
697.927	3232.55
698.116	3230.5
698.305	3293.99
698.494	3308.32
698.683	3263.27
698.872	3425.06
699.061	3316.51
699.25	3279.65
699.438	3384.1
699.627	3400.48
699.816	3527.46
700.005	3336.99
700.193	3326.75
700.382	3283.75
700.571	3310.37
700.76	3361.57
700.948	3341.09
701.137	3502.88
701.326	3316.51
701.514	3474.21
701.703	3371.81
701.892	3513.12
702.08	3441.44
702.269	3318.56
702.457	3367.71
702.646	3492.64
702.834	3412.77
703.023	3429.15
703.212	3431.2
703.4	3447.58
703.589	3298.08
703.777	3633.95
703.965	3517.22
704.154	3592.99
704.342	3320.61
704.531	3404.58
704.719	3517.22
704.907	3654.43
705.096	3425.06
705.284	3427.11
705.472	3359.52
705.661	3515.17
705.849	3457.82
706.037	3603.23
706.226	3439.39
706.414	3517.22
706.602	3519.26
706.79	3558.18
706.979	3531.55
707.167	3633.95
707.355	3531.55
707.543	3529.5
707.731	3490.59
707.919	3500.83
708.107	3506.98
708.296	3527.46
708.484	3375.91
708.672	3697.44
708.86	3568.41
709.048	3529.5
709.236	3621.66
709.424	3578.65
709.612	3599.13
709.8	3654.43
709.988	3582.75
710.176	3601.18
710.364	3767.07
710.551	3511.07
710.739	3554.08
710.927	3668.77
711.115	3638.05
711.303	3687.2
711.491	3722.01
711.679	3461.92
711.866	3791.64
712.054	3560.22
712.242	3679.01
712.43	3728.16
712.617	3654.43
712.805	3625.76
712.993	3672.86
713.181	3463.97
713.368	3687.2
713.556	3621.66
713.744	3648.29
713.931	3826.46
714.119	3697.44
714.306	3838.75
714.494	3740.44
714.682	3648.29
714.869	3547.94
715.057	3670.81
715.244	3609.37
715.432	3832.6
715.619	3732.25
715.807	3736.35
715.994	3701.53
716.182	3750.68
716.369	3689.25
716.556	3676.96
716.744	3717.92
716.931	3625.76
717.119	3640.09
717.306	3752.73
717.493	3875.61
717.681	3746.59
717.868	3851.03
718.055	3826.46
718.242	3664.67
718.43	3855.13
718.617	3859.23
718.804	3787.55
718.991	3834.65
719.179	3728.16
719.366	3728.16
719.553	3818.27
719.74	3769.12
719.927	3830.55
720.114	3789.6
720.301	3652.38
720.488	3664.67
720.676	3707.68
720.863	3830.55
721.05	3914.52
721.237	3826.46
721.424	3863.32
721.611	3828.51
721.798	3834.65
721.985	3765.02
722.172	3822.36
722.358	3771.16
722.545	3828.51
722.732	3859.23
722.919	3953.43
723.106	3773.21
723.293	3746.59
723.48	3910.43
723.667	3699.48
723.853	3818.27
724.04	3838.75
724.227	3885.85
724.414	3916.57
724.6	3859.23
724.787	3773.21
724.974	3791.64
725.161	3785.5
725.347	3861.27
725.534	3887.9
725.72	4037.4
725.907	3916.57
726.094	4027.16
726.28	3687.2
726.467	3855.13
726.653	3826.46
726.84	4035.35
727.027	3932.95
727.213	3846.94
727.4	3975.96
727.586	3855.13
727.773	3797.79
727.959	3955.48
728.145	3760.92
728.332	3795.74
728.518	3664.67
728.705	3881.75
728.891	3689.25
729.077	3922.71
729.264	3871.51
729.45	3805.98
729.636	3769.12
729.823	3869.47
730.009	3801.88
730.195	3867.42
730.382	3799.84
730.568	3883.8
730.754	3998.49
730.94	3861.27
731.126	3848.99
731.313	3822.36
731.499	3883.8
731.685	3941.15
731.871	4012.82
732.057	3791.64
732.243	3803.93
732.429	3797.79
732.615	3891.99
732.801	3722.01
732.987	3801.88
733.173	3797.79
733.359	3760.92
733.545	3771.16
733.731	3711.77
733.917	3937.05
734.103	3875.61
734.289	3805.98
734.475	3812.12
734.661	3762.97
734.847	3769.12
735.033	3709.72
735.219	3740.44
735.404	3672.86
735.59	3803.93
735.776	3638.05
735.962	3679.01
736.148	3867.42
736.333	3758.88
736.519	3726.11
736.705	3781.4
736.89	3713.82
737.076	3668.77
737.262	3607.33
737.447	3777.31
737.633	3740.44
737.819	3748.64
738.004	3580.7
738.19	3722.01
738.375	3566.37
738.561	3752.73
738.747	3752.73
738.932	3482.4
739.118	3711.77
739.303	3529.5
739.489	3578.65
739.674	3605.28
739.859	3609.37
740.045	3703.58
740.23	3601.18
740.416	3515.17
740.601	3603.23
740.786	3484.45
740.972	3427.11
741.157	3611.42
741.342	3402.53
741.528	3359.52
741.713	3451.68
741.898	3476.26
742.084	3400.48
742.269	3513.12
742.454	3431.2
742.639	3521.31
742.824	3310.37
743.01	3513.12
743.195	3423.01
743.38	3359.52
743.565	3355.43
743.75	3240.74
743.935	3380
744.12	3341.09
744.305	3195.68
744.49	3246.88
744.675	3300.13
744.86	3140.39
745.045	3236.64
745.23	3238.69
745.415	3109.67
745.6	3144.49
745.785	3291.94
745.97	3101.48
746.155	3136.29
746.34	3140.39
746.525	3103.53
746.71	3212.07
746.895	3056.42
747.079	2994.98
747.264	2865.96
747.449	3154.73
747.634	3103.53
747.819	2943.78
748.003	2906.92
748.188	2878.25
748.373	2882.35
748.557	2890.54
748.742	2863.91
748.927	2880.3
749.111	2933.54
749.296	2841.39
749.481	2765.61
749.665	2939.69
749.85	2759.47
750.034	2781.99
750.219	2722.6
750.404	2693.93
750.588	2822.95
750.773	2788.14
750.957	2657.07
751.141	2650.92
751.326	2542.38
751.51	2628.4
751.695	2581.29
751.879	2509.62
752.064	2642.73
752.248	2476.85
752.432	2581.29
752.617	2509.62
752.801	2388.78
752.985	2534.19
753.17	2345.78
753.354	2411.31
753.538	2439.98
753.722	2347.83
753.907	2358.07
754.091	2403.12
754.275	2413.36
754.459	2165.56
754.643	2319.15
754.828	2276.15
755.012	2317.11
755.196	2294.58
755.38	2216.76
755.564	2263.86
755.748	2194.23
755.932	2233.14
756.116	2282.29
756.3	2208.56
756.484	2132.79
756.668	2186.04
756.852	1950.52
757.036	2106.17
757.22	2104.12
757.404	2034.49
757.588	2007.86
757.772	2140.98
757.956	2065.21
758.14	2052.92
758.323	1964.86
758.507	2046.77
758.691	1919.8
758.875	2081.59
759.059	2085.69
759.242	2011.96
759.426	1893.18
759.61	1934.14
759.794	1866.55
759.977	1940.28
760.161	2028.34
760.345	1915.7
760.528	1997.62
760.712	1741.63
760.895	1854.27
761.079	1852.22
761.263	1809.21
761.446	1745.72
761.63	1715
761.813	1868.6
761.997	1835.83
762.18	1772.35
762.364	1805.11
762.547	1694.52
762.731	1692.48
762.914	1743.67
763.098	1696.57
763.281	1715
763.464	1733.43
763.648	1704.76
763.831	1674.04
764.015	1710.91
764.198	1790.78
764.381	1637.18
764.564	1588.03
764.748	1667.9
764.931	1788.73
765.114	1653.56
765.297	1567.55
765.481	1506.11
765.664	1702.72
765.847	1569.6
766.03	1647.42
766.213	1516.35
766.397	1579.84
766.58	1485.63
766.763	1674.04
766.946	1628.99
767.129	1514.3
767.312	1555.26
767.495	1530.69
767.678	1567.55
767.861	1522.49
768.044	1471.29
768.227	1559.36
768.41	1518.4
768.593	1594.17
768.776	1545.02
768.959	1610.56
769.142	1502.01
769.324	1418.05
769.507	1594.17
769.69	1483.58
769.873	1399.62
770.056	1567.55
770.239	1413.95
770.421	1461.06
770.604	1403.71
770.787	1375.04
770.97	1444.67
771.152	1389.38
771.335	1444.67
771.518	1352.51
771.7	1438.53
771.883	1434.43
772.066	1366.85
772.248	1448.77
772.431	1510.21
772.613	1366.85
772.796	1297.22
772.978	1334.08
773.161	1395.52
773.343	1323.84
773.526	1325.89
773.708	1266.5
773.891	1289.03
774.073	1325.89
774.256	1233.73
774.438	1340.22
774.621	1299.27
774.803	1319.75
774.985	1205.06
775.168	1174.34
775.35	1174.34
775.532	1153.86
775.715	1184.58
775.897	1221.44
776.079	1166.15
776.261	1205.06
776.444	1203.01
776.626	1117
776.808	1213.25
776.99	1243.97
777.173	1145.67
777.355	1086.28
777.537	1233.73
777.719	1125.19
777.901	1076.04
778.083	1096.52
778.265	928.58
778.447	1110.85
778.629	1045.32
778.811	1047.37
778.993	1053.51
779.175	1131.33
779.357	1010.5
779.539	924.49
779.721	947.01
779.903	1108.8
780.085	975.69
780.267	975.69
780.449	863.05
780.631	959.3
780.812	1035.08
780.994	994.12
781.176	910.15
781.358	830.28
781.54	918.34
781.721	938.82
781.903	924.49
782.085	922.44
782.267	940.87
782.448	879.43
782.63	971.59
782.812	846.66
782.993	936.78
783.175	987.97
783.357	813.9
783.538	815.94
783.72	772.94
783.901	822.09
784.083	947.01
784.264	826.18
784.446	803.66
784.627	729.93
784.809	807.75
784.99	723.79
785.172	815.94
785.353	715.59
785.535	721.74
785.716	764.75
785.897	688.97
786.079	785.23
786.26	719.69
786.441	723.79
786.623	680.78
786.804	721.74
786.985	719.69
787.167	705.35
787.348	645.96
787.529	688.97
787.71	758.6
787.891	813.9
788.073	678.73
788.254	713.55
788.435	711.5
788.616	590.67
788.797	582.48
788.978	688.97
789.159	713.55
789.34	623.44
789.522	641.87
789.703	559.95
789.884	600.91
790.065	713.55
790.246	652.11
790.427	670.54
790.607	658.25
790.788	641.87
790.969	521.04
791.15	551.76
791.331	549.71
791.512	625.48
791.693	543.57
791.874	592.72
792.054	547.66
792.235	607.05
792.416	469.84
792.597	568.14
792.778	594.76
792.958	518.99
793.139	557.9
793.32	551.76
793.5	473.93
793.681	674.64
793.862	521.04
794.042	523.09
794.223	480.08
794.404	553.8
794.584	469.84
794.765	451.41
794.945	463.69
795.126	613.2
795.306	547.66
795.487	484.17
795.667	531.28
795.848	492.37
796.028	486.22
796.209	449.36
796.389	564.04
796.57	428.88
796.75	441.17
796.93	424.78
797.111	435.02
797.291	420.69
797.471	435.02
797.652	484.17
797.832	412.5
798.012	537.42
798.192	478.03
798.373	361.3
798.553	342.86
798.733	457.55
798.913	437.07
799.093	410.45
799.274	471.89
799.454	516.94
799.634	406.35
799.814	373.58
799.994	412.5
800.174	389.97
800.354	426.83
800.534	377.68
800.714	420.69
800.894	381.78
801.074	328.53
801.254	359.25
801.434	457.55
801.614	349.01
801.794	387.92
801.974	1346.37
802.154	394.06
802.334	490.32
802.514	301.9
802.693	449.36
802.873	369.49
803.053	357.2
803.233	367.44
803.413	334.67
803.592	342.86
803.772	420.69
803.952	367.44
804.131	334.67
804.311	400.21
804.491	426.83
804.67	320.34
804.85	375.63
805.03	365.39
805.209	320.34
805.389	285.52
805.568	338.77
805.748	306
805.928	332.62
806.107	332.62
806.287	351.06
806.466	283.47
806.646	293.71
806.825	379.73
807.004	340.82
807.184	379.73
807.363	344.91
807.543	353.1
807.722	314.19
807.901	281.43
808.081	381.78
808.26	246.61
808.439	320.34
808.619	334.67
808.798	326.48
808.977	299.86
809.156	279.38
809.336	328.53
809.515	349.01
809.694	287.57
809.873	324.43
810.052	275.28
810.231	287.57
810.411	320.34
810.59	322.38
810.769	291.66
810.948	301.9
811.127	195.41
811.306	207.7
811.485	217.94
811.664	328.53
811.843	256.85
812.022	267.09
812.201	252.75
812.38	215.89
812.559	295.76
812.737	232.27
812.916	254.8
813.095	203.6
813.274	291.66
813.453	252.75
813.632	262.99
813.811	242.51
813.989	281.43
814.168	258.9
814.347	330.58
814.526	240.47
814.704	336.72
814.883	303.95
815.062	242.51
815.24	256.85
815.419	142.16
815.598	211.79
815.776	146.26
815.955	209.75
816.133	140.12
816.312	205.65
816.49	201.55
816.669	254.8
816.847	183.12
817.026	244.56
817.204	236.37
817.383	232.27
817.561	144.21
817.74	256.85
817.918	224.08
818.097	164.69
818.275	236.37
818.453	260.95
818.632	217.94
818.81	179.03
818.988	199.51
819.167	205.65
819.345	240.47
819.523	222.03
819.701	228.18
819.879	248.66
820.058	170.83
820.236	224.08
820.414	127.83
820.592	181.07
820.77	123.73
820.948	189.27
821.127	236.37
821.305	240.47
821.483	148.31
821.661	230.23
821.839	215.89
822.017	187.22
822.195	242.51
822.373	262.99
822.551	189.27
822.729	244.56
822.907	219.99
823.085	269.14
823.262	160.59
823.44	99.16
823.618	154.45
823.796	172.88
823.974	213.84
824.152	199.51
824.329	195.41
824.507	181.07
824.685	189.27
824.863	109.4
825.04	181.07
825.218	154.45
825.396	191.31
825.574	152.4
825.751	150.36
825.929	150.36
826.107	68.44
826.284	176.98
826.462	158.55
826.639	125.78
826.817	123.73
826.994	238.42
827.172	101.2
827.349	187.22
827.527	160.59
827.704	150.36
827.882	181.07
828.059	215.89
828.237	168.79
828.414	133.97
828.591	101.2
828.769	164.69
828.946	127.83
829.124	195.41
829.301	203.6
829.478	125.78
829.655	168.79
829.833	148.31
830.01	189.27
830.187	160.59
830.364	117.59
830.542	109.4
830.719	193.36
830.896	219.99
831.073	160.59
831.25	146.26
831.427	144.21
831.604	158.55
831.782	72.53
831.959	107.35
832.136	74.58
832.313	158.55
832.49	170.83
832.667	125.78
832.844	136.02
833.021	217.94
833.198	127.83
833.374	101.2
833.551	138.07
833.728	78.68
833.905	164.69
834.082	127.83
834.259	140.12
834.436	209.75
834.612	107.35
834.789	144.21
834.966	232.27
835.143	170.83
835.319	39.76
835.496	111.44
835.673	160.59
835.85	211.79
836.026	95.06
836.203	160.59
836.38	90.96
836.556	80.72
836.733	97.11
836.909	164.69
837.086	70.48
837.262	115.54
837.439	111.44
837.616	52.05
837.792	21.33
837.968	131.92
838.145	37.72
838.321	82.77
838.498	84.82
838.674	56.15
838.851	174.93
839.027	56.15
839.203	109.4
839.38	82.77
839.556	68.44
839.732	131.92
839.909	62.29
840.085	105.3
840.261	90.96
840.437	125.78
840.614	80.72
840.79	189.27
840.966	78.68
841.142	133.97
841.318	23.38
841.494	107.35
841.671	105.3
841.847	33.62
842.023	41.81
842.199	119.64
842.375	168.79
842.551	80.72
842.727	52.05
842.903	160.59
843.079	84.82
843.255	150.36
843.431	90.96
843.607	140.12
843.783	-33.96
843.959	95.06
844.134	23.38
844.31	80.72
844.486	86.87
844.662	50
844.838	105.3
845.013	113.49
845.189	142.16
845.365	125.78
845.541	105.3
845.716	93.01
845.892	101.2
846.068	7
846.244	133.97
846.419	168.79
846.595	29.52
846.77	31.57
846.946	156.5
847.122	127.83
847.297	29.52
847.473	121.68
847.648	-3.24
847.824	90.96
847.999	-29.87
848.175	121.68
848.35	105.3
848.526	68.44
848.701	64.34
848.876	64.34
849.052	70.48
849.227	129.88
849.403	17.24
849.578	172.88
849.753	97.11
849.929	123.73
850.104	9.05
850.279	113.49
850.454	-5.29
850.63	123.73
850.805	82.77
850.98	43.86
851.155	33.62
851.33	-9.39
851.505	76.63
851.681	93.01
851.856	121.68
852.031	125.78
852.206	99.16
852.381	35.67
852.556	39.76
852.731	23.38
852.906	160.59
853.081	150.36
853.256	111.44
853.431	-5.29
853.606	4.95
853.781	25.43
853.956	-38.06
854.131	176.98
854.305	62.29
854.48	2.9
854.655	23.38
854.83	25.43
855.005	64.34
855.18	111.44
855.354	0.85
855.529	-19.63
855.704	64.34
855.879	76.63
856.053	-1.19
856.228	21.33
856.403	99.16
856.577	58.2
856.752	-1.19
856.926	2.9
857.101	68.44
857.276	21.33
857.45	76.63
857.625	97.11
857.799	80.72
857.974	31.57
858.148	-36.01
858.323	45.91
858.497	-29.87
858.672	56.15
858.846	54.1
859.02	142.16
859.195	29.52
859.369	31.57
859.543	-3.24
859.718	62.29
859.892	21.33
860.066	58.2
860.241	64.34
860.415	58.2
860.589	56.15
860.763	62.29
860.938	43.86
861.112	33.62
861.286	68.44
861.46	13.14
861.634	-3.24
861.808	52.05
861.982	-38.06
862.157	-13.48
862.331	-13.48
862.505	37.72
862.679	2.9
862.853	35.67
863.027	111.44
863.201	140.12
863.375	29.52
863.549	99.16
863.722	66.39
863.896	70.48
864.07	-79.02
864.244	58.2
864.418	-33.96
864.592	25.43
864.766	47.96
864.939	37.72
865.113	-23.72
865.287	74.58
865.461	-3.24
865.634	68.44
865.808	43.86
865.982	-11.43
866.156	93.01
866.329	-101.55
866.503	-33.96
866.676	150.36
866.85	58.2
867.024	68.44
867.197	76.63
867.371	19.29
867.544	45.91
867.718	29.52
867.891	109.4
868.065	43.86
868.238	80.72
868.412	68.44
868.585	33.62
868.759	-19.63
868.932	-31.91
869.105	35.67
869.279	-5.29
869.452	-7.34
869.625	29.52
869.799	11.09
869.972	45.91
870.145	9.05
870.319	82.77
870.492	50
870.665	17.24
870.838	25.43
871.011	11.09
871.185	45.91
871.358	39.76
871.531	66.39
871.704	-9.39
871.877	35.67
872.05	-52.39
872.223	41.81
872.396	-42.15
872.569	58.2
872.742	-54.44
872.915	13.14
873.088	17.24
873.261	41.81
873.434	43.86
873.607	-38.06
873.78	39.76
873.953	-19.63
874.126	37.72
874.299	58.2
874.471	58.2
874.644	101.2
874.817	62.29
874.99	164.69
875.163	17.24
875.335	29.52
875.508	37.72
875.681	105.3
875.853	25.43
876.026	0.85
876.199	27.48
876.371	-29.87
876.544	60.24
876.717	-52.39
876.889	-11.43
877.062	-1.19
877.234	74.58
877.407	68.44
877.579	-9.39
877.752	-31.91
877.924	90.96
878.097	33.62
878.269	9.05
878.442	-19.63
878.614	27.48
878.786	-5.29
878.959	-42.15
879.131	-31.91
879.303	-52.39
879.476	31.57
879.648	2.9
879.82	64.34
879.993	-25.77
880.165	23.38
880.337	-5.29
880.509	21.33
880.681	-17.58
880.854	68.44
881.026	7
881.198	129.88
881.37	62.29
881.542	86.87
881.714	-13.48
881.886	17.24
882.058	74.58
882.23	82.77
882.402	17.24
882.574	29.52
882.746	23.38
882.918	11.09
883.09	95.06
883.262	-38.06
883.434	-7.34
883.606	-44.2
883.778	-15.53
883.95	107.35
884.122	-36.01
884.293	68.44
884.465	72.53
884.637	82.77
884.809	9.05
884.98	-19.63
885.152	25.43
885.324	58.2
885.496	-83.11
885.667	-25.77
885.839	13.14
886.011	62.29
886.182	95.06
886.354	80.72
886.525	84.82
886.697	25.43
886.869	66.39
887.04	-21.67
887.212	41.81
887.383	84.82
887.555	4.95
887.726	-23.72
887.897	-60.59
888.069	-21.67
888.24	37.72
888.412	29.52
888.583	-21.67
888.754	-5.29
888.926	7
889.097	72.53
889.268	-44.2
889.44	0.85
889.611	25.43
889.782	-50.35
889.953	-83.11
890.125	19.29
890.296	17.24
890.467	-7.34
890.638	-15.53
890.809	60.24
890.98	31.57
891.151	52.05
891.323	21.33
891.494	37.72
891.665	80.72
891.836	11.09
892.007	7
892.178	27.48
892.349	80.72
892.52	11.09
892.691	-15.53
892.862	9.05
893.032	-62.63
893.203	23.38
893.374	35.67
893.545	13.14
893.716	-13.48
893.887	60.24
894.057	-70.83
894.228	56.15
894.399	4.95
894.57	50
894.74	21.33
894.911	60.24
895.082	41.81
895.253	15.19
895.423	-33.96
895.594	93.01
895.764	56.15
895.935	-58.54
896.106	45.91
896.276	-17.58
896.447	-15.53
896.617	11.09
896.788	9.05
896.958	115.54
897.129	-21.67
897.299	-23.72
897.47	66.39
897.64	-27.82
897.81	58.2
897.981	74.58
898.151	-50.35
898.322	2.9
898.492	29.52
898.662	-40.11
898.832	52.05
899.003	68.44
899.173	52.05
899.343	-5.29
899.513	2.9
