Data from USB4F104151__5__12-11-15-263.txt Node

Date: Fri Mar 14 12:11:15 EDT 2025
User: louis
Spectrometer: USB4F10415
Trigger mode: 4
Integration Time (sec): 5.000000E-2
Scans to average: 1
Electric dark correction enabled: true
Nonlinearity correction enabled: false
Boxcar width: 0
XAxis mode: Wavelengths
Number of Pixels in Spectrum: 3648
>>>>>Begin Spectral Data<<<<<
178.204	-136.36
178.424	-136.36
178.644	-136.36
178.864	-165.03
179.084	-296.1
179.304	13.14
179.524	0.85
179.744	-25.77
179.964	17.24
180.184	-1.19
180.404	50
180.624	33.62
180.844	4.95
181.064	-70.83
181.283	19.29
181.503	-76.97
181.723	35.67
181.943	-29.87
182.163	99.16
182.383	13.14
182.602	78.68
182.822	140.12
183.042	-1.19
183.262	19.29
183.482	23.38
183.701	17.24
183.921	-3.24
184.141	-1.19
184.361	52.05
184.58	25.43
184.8	29.52
185.02	7
185.239	129.88
185.459	52.05
185.679	82.77
185.898	-36.01
186.118	68.44
186.338	9.05
186.557	39.76
186.777	2.9
186.997	9.05
187.216	64.34
187.436	146.26
187.655	127.83
187.875	140.12
188.095	52.05
188.314	93.01
188.534	113.49
188.753	-9.39
188.973	168.79
189.192	76.63
189.412	29.52
189.631	29.52
189.851	68.44
190.07	113.49
190.29	-36.01
190.509	60.24
190.729	21.33
190.948	66.39
191.168	226.13
191.387	90.96
191.607	-23.72
191.826	99.16
192.045	82.77
192.265	15.19
192.484	-23.72
192.704	68.44
192.923	-3.24
193.142	117.59
193.362	23.38
193.581	109.4
193.8	72.53
194.02	60.24
194.239	45.91
194.458	90.96
194.678	17.24
194.897	31.57
195.116	66.39
195.335	-1.19
195.555	7
195.774	-9.39
195.993	50
196.212	50
196.432	-33.96
196.651	47.96
196.87	41.81
197.089	138.07
197.308	54.1
197.528	72.53
197.747	-76.97
197.966	97.11
198.185	105.3
198.404	-7.34
198.623	74.58
198.842	90.96
199.062	43.86
199.281	109.4
199.5	64.34
199.719	-1.19
199.938	4.95
200.157	111.44
200.376	111.44
200.595	41.81
200.814	97.11
201.033	56.15
201.252	99.16
201.471	109.4
201.69	109.4
201.909	76.63
202.128	111.44
202.347	45.91
202.566	70.48
202.785	-40.11
203.004	-60.59
203.223	170.83
203.442	68.44
203.661	37.72
203.879	99.16
204.098	105.3
204.317	13.14
204.536	21.33
204.755	60.24
204.974	15.19
205.193	23.38
205.411	93.01
205.63	95.06
205.849	97.11
206.068	-25.77
206.287	43.86
206.505	72.53
206.724	2.9
206.943	13.14
207.162	-7.34
207.381	41.81
207.599	52.05
207.818	-1.19
208.037	4.95
208.255	45.91
208.474	27.48
208.693	70.48
208.911	84.82
209.13	58.2
209.349	101.2
209.567	33.62
209.786	97.11
210.005	39.76
210.223	50
210.442	-54.44
210.661	72.53
210.879	9.05
211.098	29.52
211.316	37.72
211.535	27.48
211.753	11.09
211.972	60.24
212.191	35.67
212.409	109.4
212.628	35.67
212.846	-7.34
213.065	68.44
213.283	158.55
213.502	113.49
213.72	-23.72
213.938	11.09
214.157	-46.25
214.375	66.39
214.594	70.48
214.812	64.34
215.031	50
215.249	-19.63
215.467	93.01
215.686	-19.63
215.904	101.2
216.122	9.05
216.341	70.48
216.559	13.14
216.778	88.92
216.996	105.3
217.214	-5.29
217.432	-9.39
217.651	23.38
217.869	43.86
218.087	19.29
218.306	11.09
218.524	99.16
218.742	47.96
218.96	-11.43
219.179	21.33
219.397	45.91
219.615	86.87
219.833	56.15
220.051	58.2
220.27	62.29
220.488	115.54
220.706	60.24
220.924	27.48
221.142	47.96
221.36	29.52
221.578	88.92
221.796	70.48
222.015	47.96
222.233	72.53
222.451	127.83
222.669	7
222.887	62.29
223.105	15.19
223.323	43.86
223.541	25.43
223.759	64.34
223.977	88.92
224.195	82.77
224.413	117.59
224.631	107.35
224.849	76.63
225.067	129.88
225.285	-29.87
225.503	19.29
225.721	-33.96
225.939	74.58
226.157	-9.39
226.375	236.37
226.592	19.29
226.81	88.92
227.028	115.54
227.246	43.86
227.464	50
227.682	56.15
227.9	-19.63
228.117	50
228.335	43.86
228.553	72.53
228.771	-27.82
228.989	-3.24
229.206	78.68
229.424	64.34
229.642	17.24
229.86	50
230.077	129.88
230.295	-17.58
230.513	78.68
230.731	78.68
230.948	123.73
231.166	119.64
231.384	82.77
231.601	39.76
231.819	78.68
232.037	35.67
232.254	9.05
232.472	25.43
232.689	31.57
232.907	62.29
233.125	7
233.342	2.9
233.56	-38.06
233.777	27.48
233.995	17.24
234.213	84.82
234.43	17.24
234.648	21.33
234.865	47.96
235.083	47.96
235.3	-3.24
235.518	-33.96
235.735	152.4
235.953	54.1
236.17	-7.34
236.388	9.05
236.605	2.9
236.822	123.73
237.04	70.48
237.257	21.33
237.475	-23.72
237.692	70.48
237.909	76.63
238.127	13.14
238.344	58.2
238.562	-31.91
238.779	-42.15
238.996	19.29
239.214	31.57
239.431	68.44
239.648	50
239.865	47.96
240.083	52.05
240.3	115.54
240.517	56.15
240.735	31.57
240.952	101.2
241.169	162.64
241.386	-36.01
241.603	41.81
241.821	17.24
242.038	78.68
242.255	62.29
242.472	-44.2
242.689	4.95
242.907	25.43
243.124	121.68
243.341	45.91
243.558	50
243.775	-25.77
243.992	13.14
244.209	54.1
244.426	146.26
244.643	142.16
244.86	27.48
245.078	56.15
245.295	78.68
245.512	101.2
245.729	0.85
245.946	56.15
246.163	33.62
246.38	47.96
246.597	33.62
246.814	41.81
247.031	29.52
247.248	39.76
247.464	45.91
247.681	37.72
247.898	29.52
248.115	37.72
248.332	93.01
248.549	58.2
248.766	101.2
248.983	93.01
249.2	37.72
249.417	54.1
249.633	39.76
249.85	11.09
250.067	99.16
250.284	41.81
250.501	2.9
250.717	64.34
250.934	-19.63
251.151	-42.15
251.368	-36.01
251.585	25.43
251.801	-15.53
252.018	19.29
252.235	99.16
252.451	45.91
252.668	7
252.885	58.2
253.102	37.72
253.318	33.62
253.535	29.52
253.752	50
253.968	0.85
254.185	21.33
254.401	35.67
254.618	82.77
254.835	19.29
255.051	105.3
255.268	95.06
255.484	113.49
255.701	21.33
255.917	109.4
256.134	43.86
256.351	47.96
256.567	-1.19
256.784	50
257	52.05
257.217	50
257.433	80.72
257.65	47.96
257.866	101.2
258.082	-11.43
258.299	-7.34
258.515	95.06
258.732	37.72
258.948	-5.29
259.165	80.72
259.381	21.33
259.597	64.34
259.814	56.15
260.03	13.14
260.246	37.72
260.463	-11.43
260.679	138.07
260.895	29.52
261.112	37.72
261.328	27.48
261.544	9.05
261.761	78.68
261.977	-5.29
262.193	19.29
262.409	58.2
262.626	-5.29
262.842	43.86
263.058	29.52
263.274	56.15
263.49	-3.24
263.707	129.88
263.923	86.87
264.139	78.68
264.355	13.14
264.571	72.53
264.787	109.4
265.004	11.09
265.22	-11.43
265.436	-19.63
265.652	11.09
265.868	82.77
266.084	17.24
266.3	21.33
266.516	54.1
266.732	23.38
266.948	99.16
267.164	23.38
267.38	43.86
267.596	9.05
267.812	133.97
268.028	47.96
268.244	-21.67
268.46	-19.63
268.676	23.38
268.892	19.29
269.108	-11.43
269.324	15.19
269.54	-52.39
269.756	97.11
269.972	-21.67
270.188	31.57
270.403	-13.48
270.619	39.76
270.835	45.91
271.051	19.29
271.267	56.15
271.483	9.05
271.698	60.24
271.914	58.2
272.13	84.82
272.346	58.2
272.562	-40.11
272.777	99.16
272.993	25.43
273.209	52.05
273.425	23.38
273.64	-19.63
273.856	-1.19
274.072	35.67
274.287	9.05
274.503	29.52
274.719	111.44
274.934	50
275.15	25.43
275.366	-31.91
275.581	39.76
275.797	9.05
276.012	105.3
276.228	-9.39
276.444	41.81
276.659	101.2
276.875	-93.35
277.09	17.24
277.306	29.52
277.521	117.59
277.737	62.29
277.952	99.16
278.168	50
278.383	13.14
278.599	50
278.814	66.39
279.03	15.19
279.245	74.58
279.461	84.82
279.676	-38.06
279.892	-27.82
280.107	27.48
280.322	25.43
280.538	50
280.753	33.62
280.969	129.88
281.184	25.43
281.399	99.16
281.615	50
281.83	41.81
282.045	56.15
282.26	115.54
282.476	33.62
282.691	47.96
282.906	50
283.122	11.09
283.337	-79.02
283.552	150.36
283.767	66.39
283.983	41.81
284.198	-15.53
284.413	62.29
284.628	41.81
284.843	13.14
285.058	58.2
285.274	62.29
285.489	52.05
285.704	-23.72
285.919	-11.43
286.134	2.9
286.349	54.1
286.564	43.86
286.779	123.73
286.995	25.43
287.21	-17.58
287.425	74.58
287.64	17.24
287.855	21.33
288.07	62.29
288.285	82.77
288.5	37.72
288.715	4.95
288.93	21.33
289.145	84.82
289.36	56.15
289.575	-38.06
289.79	115.54
290.004	-60.59
290.219	70.48
290.434	-87.21
290.649	45.91
290.864	37.72
291.079	62.29
291.294	78.68
291.509	86.87
291.724	56.15
291.938	-62.63
292.153	76.63
292.368	-27.82
292.583	64.34
292.798	58.2
293.012	74.58
293.227	-13.48
293.442	35.67
293.657	19.29
293.871	88.92
294.086	133.97
294.301	113.49
294.516	164.69
294.73	125.78
294.945	-5.29
295.16	84.82
295.374	90.96
295.589	56.15
295.804	127.83
296.018	72.53
296.233	31.57
296.447	15.19
296.662	33.62
296.877	99.16
297.091	62.29
297.306	33.62
297.52	109.4
297.735	105.3
297.949	35.67
298.164	47.96
298.378	45.91
298.593	-25.77
298.807	17.24
299.022	50
299.236	144.21
299.451	45.91
299.665	0.85
299.88	29.52
300.094	0.85
300.309	31.57
300.523	78.68
300.737	43.86
300.952	105.3
301.166	64.34
301.381	47.96
301.595	21.33
301.809	93.01
302.024	11.09
302.238	35.67
302.452	58.2
302.667	45.91
302.881	72.53
303.095	66.39
303.309	82.77
303.524	70.48
303.738	76.63
303.952	9.05
304.166	43.86
304.381	-103.59
304.595	158.55
304.809	-19.63
305.023	101.2
305.237	52.05
305.452	9.05
305.666	70.48
305.88	105.3
306.094	105.3
306.308	37.72
306.522	58.2
306.736	154.45
306.95	41.81
307.164	33.62
307.379	74.58
307.593	90.96
307.807	93.01
308.021	66.39
308.235	58.2
308.449	-44.2
308.663	-29.87
308.877	95.06
309.091	58.2
309.305	31.57
309.519	-36.01
309.733	58.2
309.947	-56.49
310.161	109.4
310.374	68.44
310.588	119.64
310.802	-15.53
311.016	113.49
311.23	41.81
311.444	-3.24
311.658	45.91
311.872	45.91
312.085	80.72
312.299	119.64
312.513	111.44
312.727	-5.29
312.941	52.05
313.154	33.62
313.368	17.24
313.582	56.15
313.796	13.14
314.009	115.54
314.223	109.4
314.437	99.16
314.651	52.05
314.864	-3.24
315.078	45.91
315.292	-33.96
315.505	76.63
315.719	54.1
315.933	60.24
316.146	88.92
316.36	17.24
316.573	88.92
316.787	45.91
317.001	62.29
317.214	-44.2
317.428	56.15
317.641	50
317.855	41.81
318.068	70.48
318.282	50
318.495	88.92
318.709	125.78
318.922	56.15
319.136	138.07
319.349	88.92
319.563	4.95
319.776	-7.34
319.99	-21.67
320.203	33.62
320.417	52.05
320.63	99.16
320.843	109.4
321.057	-36.01
321.27	13.14
321.483	117.59
321.697	58.2
321.91	64.34
322.124	68.44
322.337	72.53
322.55	25.43
322.763	37.72
322.977	47.96
323.19	76.63
323.403	76.63
323.617	109.4
323.83	99.16
324.043	39.76
324.256	60.24
324.469	45.91
324.683	82.77
324.896	50
325.109	72.53
325.322	7
325.535	58.2
325.748	7
325.962	90.96
326.175	15.19
326.388	2.9
326.601	60.24
326.814	-1.19
327.027	58.2
327.24	107.35
327.453	29.52
327.666	105.3
327.879	82.77
328.092	58.2
328.305	58.2
328.518	37.72
328.731	33.62
328.944	50
329.157	37.72
329.37	31.57
329.583	156.5
329.796	88.92
330.009	-27.82
330.222	121.68
330.435	72.53
330.648	99.16
330.861	86.87
331.073	35.67
331.286	62.29
331.499	86.87
331.712	13.14
331.925	58.2
332.138	64.34
332.35	138.07
332.563	13.14
332.776	113.49
332.989	-54.44
333.202	-15.53
333.414	105.3
333.627	-40.11
333.84	25.43
334.053	60.24
334.265	19.29
334.478	109.4
334.691	21.33
334.903	7
335.116	33.62
335.329	35.67
335.541	45.91
335.754	119.64
335.966	19.29
336.179	66.39
336.392	103.25
336.604	78.68
336.817	35.67
337.029	25.43
337.242	64.34
337.454	60.24
337.667	7
337.88	170.83
338.092	25.43
338.305	9.05
338.517	47.96
338.729	70.48
338.942	76.63
339.154	31.57
339.367	41.81
339.579	123.73
339.792	62.29
340.004	-1.19
340.217	25.43
340.429	-33.96
340.641	43.86
340.854	60.24
341.066	58.2
341.278	11.09
341.491	70.48
341.703	76.63
341.915	-23.72
342.128	97.11
342.34	-7.34
342.552	35.67
342.764	-13.48
342.977	37.72
343.189	101.2
343.401	37.72
343.613	33.62
343.826	109.4
344.038	-31.91
344.25	45.91
344.462	62.29
344.674	45.91
344.886	17.24
345.099	82.77
345.311	95.06
345.523	13.14
345.735	17.24
345.947	64.34
346.159	76.63
346.371	39.76
346.583	23.38
346.795	199.51
347.007	-1.19
347.219	80.72
347.431	39.76
347.643	127.83
347.855	0.85
348.067	11.09
348.279	25.43
348.491	78.68
348.703	99.16
348.915	76.63
349.127	76.63
349.339	39.76
349.551	15.19
349.763	70.48
349.975	86.87
350.187	78.68
350.399	115.54
350.61	72.53
350.822	-9.39
351.034	27.48
351.246	109.4
351.458	90.96
351.669	31.57
351.881	133.97
352.093	95.06
352.305	45.91
352.517	33.62
352.728	78.68
352.94	33.62
353.152	84.82
353.363	76.63
353.575	123.73
353.787	170.83
353.999	99.16
354.21	62.29
354.422	-38.06
354.633	97.11
354.845	62.29
355.057	-23.72
355.268	86.87
355.48	45.91
355.692	0.85
355.903	4.95
356.115	17.24
356.326	-66.73
356.538	86.87
356.749	105.3
356.961	160.59
357.172	-5.29
357.384	17.24
357.595	183.12
357.807	21.33
358.018	54.1
358.23	-7.34
358.441	111.44
358.653	97.11
358.864	43.86
359.075	27.48
359.287	35.67
359.498	64.34
359.709	31.57
359.921	33.62
360.132	90.96
360.344	33.62
360.555	-21.67
360.766	52.05
360.977	13.14
361.189	68.44
361.4	4.95
361.611	174.93
361.823	64.34
362.034	56.15
362.245	-1.19
362.456	7
362.667	-21.67
362.879	133.97
363.09	-15.53
363.301	82.77
363.512	62.29
363.723	93.01
363.935	0.85
364.146	88.92
364.357	37.72
364.568	-1.19
364.779	-11.43
364.99	123.73
365.201	13.14
365.412	97.11
365.623	-50.35
365.834	174.93
366.045	80.72
366.256	88.92
366.467	37.72
366.678	66.39
366.889	78.68
367.1	97.11
367.311	133.97
367.522	23.38
367.733	7
367.944	54.1
368.155	27.48
368.366	50
368.577	62.29
368.788	72.53
368.999	105.3
369.209	25.43
369.42	109.4
369.631	133.97
369.842	11.09
370.053	56.15
370.264	113.49
370.474	39.76
370.685	50
370.896	66.39
371.107	105.3
371.317	31.57
371.528	37.72
371.739	93.01
371.95	50
372.16	99.16
372.371	-25.77
372.582	-7.34
372.792	23.38
373.003	119.64
373.214	88.92
373.424	15.19
373.635	33.62
373.846	95.06
374.056	31.57
374.267	146.26
374.477	47.96
374.688	23.38
374.898	17.24
375.109	101.2
375.319	54.1
375.53	99.16
375.74	103.25
375.951	97.11
376.161	123.73
376.372	82.77
376.582	35.67
376.793	70.48
377.003	37.72
377.214	29.52
377.424	70.48
377.635	68.44
377.845	11.09
378.055	129.88
378.266	29.52
378.476	105.3
378.686	121.68
378.897	142.16
379.107	52.05
379.317	41.81
379.528	138.07
379.738	39.76
379.948	58.2
380.158	164.69
380.369	68.44
380.579	66.39
380.789	41.81
380.999	72.53
381.21	58.2
381.42	99.16
381.63	74.58
381.84	148.31
382.05	97.11
382.261	117.59
382.471	99.16
382.681	-17.58
382.891	93.01
383.101	64.34
383.311	21.33
383.521	-7.34
383.731	78.68
383.941	148.31
384.151	117.59
384.361	43.86
384.571	129.88
384.781	133.97
384.991	136.02
385.201	107.35
385.411	70.48
385.621	80.72
385.831	123.73
386.041	41.81
386.251	50
386.461	107.35
386.671	43.86
386.881	62.29
387.091	-11.43
387.301	21.33
387.511	19.29
387.72	66.39
387.93	37.72
388.14	13.14
388.35	105.3
388.56	-1.19
388.769	133.97
388.979	70.48
389.189	-19.63
389.399	15.19
389.609	56.15
389.818	179.03
390.028	45.91
390.238	60.24
390.447	37.72
390.657	64.34
390.867	62.29
391.076	-21.67
391.286	29.52
391.496	7
391.705	156.5
391.915	72.53
392.125	101.2
392.334	78.68
392.544	99.16
392.753	56.15
392.963	7
393.172	101.2
393.382	47.96
393.591	176.98
393.801	52.05
394.01	68.44
394.22	129.88
394.429	82.77
394.639	93.01
394.848	90.96
395.058	39.76
395.267	0.85
395.477	76.63
395.686	144.21
395.895	133.97
396.105	162.64
396.314	90.96
396.524	125.78
396.733	56.15
396.942	123.73
397.152	35.67
397.361	125.78
397.57	181.07
397.78	56.15
397.989	95.06
398.198	213.84
398.407	123.73
398.617	60.24
398.826	99.16
399.035	105.3
399.244	109.4
399.453	123.73
399.663	119.64
399.872	76.63
400.081	160.59
400.29	203.6
400.499	80.72
400.708	170.83
400.917	111.44
401.127	111.44
401.336	72.53
401.545	238.42
401.754	185.17
401.963	142.16
402.172	123.73
402.381	58.2
402.59	93.01
402.799	56.15
403.008	150.36
403.217	103.25
403.426	107.35
403.635	88.92
403.844	136.02
404.053	129.88
404.262	84.82
404.471	164.69
404.68	158.55
404.888	148.31
405.097	170.83
405.306	111.44
405.515	187.22
405.724	191.31
405.933	215.89
406.142	162.64
406.35	236.37
406.559	133.97
406.768	181.07
406.977	289.62
407.185	207.7
407.394	144.21
407.603	90.96
407.812	230.23
408.02	211.79
408.229	205.65
408.438	199.51
408.646	183.12
408.855	203.6
409.064	285.52
409.272	209.75
409.481	281.43
409.69	273.23
409.898	258.9
410.107	359.25
410.315	312.14
410.524	246.61
410.733	291.66
410.941	293.71
411.15	349.01
411.358	387.92
411.567	469.84
411.775	357.2
411.984	359.25
412.192	424.78
412.401	459.6
412.609	469.84
412.818	426.83
413.026	467.79
413.234	416.59
413.443	455.5
413.651	486.22
413.86	525.13
414.068	580.43
414.276	568.14
414.485	537.42
414.693	635.72
414.901	686.92
415.11	664.4
415.318	607.05
415.526	693.07
415.734	774.99
415.943	717.64
416.151	817.99
416.359	713.55
416.567	756.55
416.776	785.23
416.984	938.82
417.192	848.71
417.4	836.42
417.608	830.28
417.817	793.42
418.025	955.21
418.233	1151.81
418.441	1051.46
418.649	1119.04
418.857	1170.24
419.065	1215.3
419.273	1102.66
419.481	1264.45
419.689	1211.2
419.897	1440.58
420.105	1250.11
420.313	1391.42
420.521	1403.71
420.729	1506.11
420.937	1504.06
421.145	1620.8
421.353	1647.42
421.561	1708.86
421.769	1796.92
421.977	1809.21
422.185	1805.11
422.393	1893.18
422.601	2036.53
422.809	1985.34
423.017	2073.4
423.224	2114.36
423.432	2171.7
423.64	2196.28
423.848	2339.63
424.056	2270
424.263	2607.92
424.471	2460.46
424.679	2587.44
424.887	2716.46
425.094	2765.61
425.302	2833.19
425.51	2833.19
425.718	2945.83
425.925	2970.41
426.133	2972.46
426.341	3377.95
426.548	3455.78
426.756	3560.22
426.964	3455.78
427.171	3713.82
427.379	3908.38
427.586	3883.8
427.794	3775.26
428.001	4201.24
428.209	4231.96
428.417	4281.11
428.624	4535.06
428.832	4653.84
429.039	4592.4
429.247	4496.14
429.454	4907.79
429.662	5180.17
429.869	4895.5
430.076	5176.07
430.284	5059.34
430.491	5479.17
430.699	5565.18
430.906	5593.86
431.114	5616.38
431.321	5972.73
431.528	6142.71
431.736	6308.6
431.943	6699.76
432.15	6570.74
432.358	6589.17
432.565	7019.24
432.772	6875.88
432.979	7275.24
433.187	7281.38
433.394	7373.54
433.601	7650.02
433.808	7987.93
434.016	7789.28
434.223	8207.06
434.43	8747.73
434.637	8600.27
434.844	8774.35
435.052	9206.47
435.259	9163.47
435.466	9224.9
435.673	8985.29
435.88	9761.47
436.087	10382.01
436.294	10392.25
436.501	10197.69
436.708	10310.33
436.915	10523.32
437.122	11094.7
437.329	11010.73
437.537	11518.63
437.743	11418.28
437.95	11592.36
438.157	11946.66
438.364	12532.37
438.571	12311.19
438.778	12683.92
438.985	13578.89
439.192	13023.89
439.399	13464.2
439.606	13179.53
439.813	13906.56
440.02	14856.82
440.227	14805.62
440.433	14307.96
440.64	14912.11
440.847	14779
441.054	15114.86
441.261	16128.61
441.467	15952.48
441.674	16140.9
441.881	16951.89
442.088	16675.41
442.294	16661.08
442.501	17111.63
442.708	17506.89
442.914	18209.34
443.121	18606.65
443.328	18522.68
443.534	19589.67
443.741	19102.26
443.948	18715.19
444.154	20238.88
444.361	20384.29
444.568	20148.77
444.774	19956.26
444.981	20574.75
445.187	20998.68
445.394	21821.96
445.6	21340.69
445.807	23620.08
446.013	22741.5
446.22	22923.77
446.426	23671.28
446.633	23845.35
446.839	24965.59
447.046	23652.84
447.252	25336.27
447.459	25063.89
447.665	24998.36
447.871	26368.45
448.078	27345.33
448.284	26223.05
448.491	26898.87
448.697	27974.06
448.903	28365.22
449.11	28246.44
449.316	27822.51
449.522	28498.34
449.728	29495.7
449.935	29415.83
450.141	29401.49
450.347	29948.3
450.553	29215.13
450.76	29479.32
450.966	30382.47
451.172	29960.59
451.378	30595.46
451.584	30214.54
451.791	30876.03
451.997	30609.79
452.203	31191.42
452.409	31562.1
452.615	31162.75
452.821	30005.64
453.027	29612.43
453.233	31179.13
453.44	30007.69
453.646	30378.37
453.852	30755.2
454.058	30935.42
454.264	30036.36
454.47	30708.1
454.676	30003.6
454.882	30980.48
455.088	28293.54
455.294	28733.85
455.5	29079.96
455.705	29237.66
455.911	27746.73
456.117	27679.15
456.323	26927.55
456.529	25631.18
456.735	26319.3
456.941	26259.91
457.147	25926.09
457.352	24951.26
457.558	24383.97
457.764	24857.05
457.97	24134.12
458.176	23941.61
458.381	23794.15
458.587	22479.36
458.793	22559.23
458.999	21051.92
459.204	22794.75
459.41	22022.66
459.616	20744.73
459.821	20787.74
460.027	20341.28
460.233	20312.61
460.438	19063.35
460.644	19423.79
460.85	18561.59
461.055	17977.92
461.261	17906.24
461.466	16861.78
461.672	16048.74
461.878	17615.43
462.083	16161.37
462.289	16044.64
462.494	15819.36
462.7	15067.76
462.905	14600.82
463.111	15276.65
463.316	15207.02
463.522	15026.8
463.727	15012.46
463.932	15002.22
464.138	14566.01
464.343	14891.63
464.549	14451.32
464.754	14666.36
464.959	14514.81
465.165	14629.49
465.37	13986.43
465.575	13662.85
465.781	14092.93
465.986	14215.8
466.191	13636.23
466.397	13351.56
466.602	12649.11
466.807	13298.31
467.012	13277.83
467.218	13103.76
467.423	13116.05
467.628	12853.91
467.833	13619.85
468.038	13326.99
468.244	12700.31
468.449	13388.43
468.654	12747.41
468.859	12524.18
469.064	12677.78
469.269	12155.55
469.474	12044.96
469.679	12503.7
469.885	11926.18
470.09	12216.99
470.295	12157.6
470.5	11811.49
470.705	11745.95
470.91	11535.01
471.115	11473.57
471.32	11719.33
471.525	11553.45
471.73	11389.61
471.935	11317.93
472.139	11020.97
472.344	10973.87
472.549	10724.02
472.754	11055.79
472.959	10648.24
473.164	10269.37
473.369	10179.26
473.574	10715.83
473.778	10363.58
473.983	10429.11
474.188	10336.95
474.393	9720.51
474.598	10070.72
474.802	9935.55
475.007	9687.75
475.212	9591.49
475.417	9300.68
475.621	9534.15
475.826	9163.47
476.031	9362.12
476.235	8962.76
476.44	9263.82
476.645	8975.05
476.849	9159.37
477.054	8915.66
477.259	8719.06
477.463	8934.09
477.668	8518.36
477.872	8692.43
478.077	8481.49
478.282	8415.96
478.486	8270.55
478.691	8209.11
478.895	8237.78
479.1	8078.04
479.304	8096.47
479.509	7992.03
479.713	8157.91
479.918	7877.34
480.122	7664.35
480.326	7776.99
480.531	7770.85
480.735	7725.79
480.94	7633.63
481.144	7994.08
481.348	7422.69
481.553	7645.92
481.757	7514.85
481.961	7715.55
482.166	7740.13
482.37	7584.48
482.574	7455.46
482.778	7377.64
482.983	7641.82
483.187	7430.88
483.391	7553.76
483.595	7412.45
483.8	7201.51
484.004	7520.99
484.208	7447.27
484.412	7477.99
484.616	7525.09
484.821	7549.67
485.025	7400.16
485.229	7553.76
485.433	7344.87
485.637	7353.06
485.841	7373.54
486.045	7422.69
486.249	7439.08
486.453	7312.1
486.657	7486.18
486.861	7387.88
487.065	7369.44
487.269	7590.63
487.473	7359.21
487.677	7396.07
487.881	7615.2
488.085	7445.22
488.289	7443.17
488.493	7453.41
488.697	7471.84
488.901	7334.63
489.105	7463.65
489.309	7437.03
489.512	7461.6
489.716	7457.51
489.92	7291.62
490.124	7551.71
490.328	7672.54
490.531	7516.9
490.735	7469.8
490.939	7457.51
491.143	7650.02
491.346	7512.8
491.55	7795.42
491.754	7768.8
491.958	7860.96
492.161	7512.8
492.365	7750.37
492.569	7727.84
492.772	7711.46
492.976	8041.18
493.18	7828.19
493.383	7942.88
493.587	7957.21
493.79	8088.28
493.994	7938.78
494.197	8129.24
494.401	8114.91
494.605	8108.76
494.808	8323.8
495.012	8233.69
495.215	8364.76
495.419	8471.25
495.622	8491.73
495.825	8624.85
496.029	8559.31
496.232	8817.36
496.436	8557.27
496.639	8942.28
496.843	8889.04
497.046	8921.81
497.249	9114.31
497.453	9093.83
497.656	9360.07
497.859	9253.58
498.063	9419.46
498.266	9657.03
498.469	9435.85
498.673	9556.68
498.876	9603.78
499.079	9706.18
499.282	9837.25
499.485	10238.65
499.689	10209.98
499.892	10259.13
500.095	10248.89
500.298	10410.68
500.501	10105.53
500.705	10570.42
500.908	10715.83
501.111	10814.13
501.314	10779.31
501.517	11195.05
501.72	11244.2
501.923	10939.05
502.126	11567.78
502.329	11639.46
502.532	11514.53
502.735	11487.91
502.938	11838.11
503.141	11938.46
503.344	11956.89
503.547	12034.72
503.75	12227.23
503.953	12255.9
504.156	12399.26
504.359	12794.51
504.562	12679.83
504.765	13077.13
504.968	13247.12
505.17	13169.29
505.373	13353.61
505.576	13576.84
505.779	13669
505.982	13867.65
506.185	13855.36
506.387	14043.78
506.59	14183.04
506.793	14213.76
506.996	14035.58
507.198	14738.04
507.401	14488.18
507.604	14932.59
507.807	15010.42
508.009	15358.57
508.212	15209.07
508.415	15440.49
508.617	15487.59
508.82	15403.63
509.022	15555.18
509.225	16050.78
509.428	15987.3
509.63	16108.13
509.833	16421.47
510.035	16667.22
510.238	16671.32
510.44	17011.28
510.643	17164.88
510.845	17224.27
511.048	17107.54
511.25	17326.67
511.453	17392.2
511.655	17924.68
511.858	17707.59
512.06	18184.77
512.262	18285.12
512.465	18170.43
512.667	18608.7
512.87	18448.96
513.072	18811.45
513.274	19321.39
513.477	19143.22
513.679	19282.48
513.881	19329.58
514.084	19745.32
514.286	19567.15
514.488	19614.25
514.69	20347.42
514.893	20218.4
515.095	20144.67
515.297	20601.37
515.499	20560.41
515.701	20759.06
515.904	21074.45
516.106	21139.99
516.308	21287.44
516.51	21387.79
516.712	21158.42
516.914	21580.3
517.116	21991.94
517.318	21897.74
517.52	22462.97
517.722	22219.27
517.925	22538.75
518.127	22776.31
518.329	22682.11
518.531	22723.07
518.733	23220.72
518.935	23304.69
519.136	23480.82
519.338	23871.98
519.54	23384.56
519.742	23947.75
519.944	23865.83
520.146	24410.59
520.348	24621.53
520.55	24314.34
520.752	24510.94
520.954	25010.65
521.155	24793.56
521.357	24926.68
521.559	25043.42
521.761	25430.48
521.963	25276.88
522.164	25444.82
522.366	25670.09
522.568	25756.11
522.77	25590.22
522.971	26333.64
523.173	25960.91
523.375	26302.92
523.576	25938.38
523.778	26083.78
523.98	26544.58
524.181	26665.41
524.383	26630.59
524.584	26843.58
524.786	26642.88
524.988	26575.3
525.189	27236.79
525.391	27013.56
525.592	27281.85
525.794	27509.17
525.995	27224.5
526.197	27437.49
526.398	27515.31
526.6	27898.28
526.801	27640.24
527.003	27851.18
527.204	28060.07
527.406	28354.98
527.607	27842.99
527.808	28494.24
528.01	27779.5
528.211	28187.05
528.412	28578.21
528.614	28144.04
528.815	28395.94
529.016	28635.55
529.218	28131.75
529.419	28492.19
529.62	28154.28
529.822	28393.89
530.023	28484
530.224	28541.35
530.425	28391.84
530.626	28058.03
530.828	28217.77
531.029	28500.39
531.23	28604.83
531.431	28471.71
531.632	28490.15
531.833	28715.42
532.035	28424.61
532.236	28606.88
532.437	28705.18
532.638	28494.24
532.839	28860.83
533.04	28887.45
533.241	28559.78
533.442	29165.98
533.643	28518.82
533.844	28572.07
534.045	28766.62
534.246	28547.49
534.447	28846.49
534.648	28770.72
534.849	28707.23
535.05	28189.1
535.251	28477.86
535.451	28367.27
535.652	28758.43
535.853	28783.01
536.054	28656.03
536.255	28559.78
536.456	28141.99
536.657	28686.75
536.857	28541.35
537.058	28410.28
537.259	28764.57
537.46	28641.7
537.66	28670.37
537.861	28572.07
538.062	28610.98
538.263	28834.21
538.463	28656.03
538.664	28750.24
538.865	28721.57
539.065	28850.59
539.266	28275.11
539.466	28484
539.667	28242.34
539.868	28426.66
540.068	28144.04
540.269	28658.08
540.469	28334.5
540.67	28367.27
540.87	28332.45
541.071	28203.43
541.271	28664.22
541.472	28363.17
541.672	27926.96
541.873	28023.21
542.073	28170.66
542.274	28395.94
542.474	28393.89
542.675	28262.82
542.875	28590.5
543.075	28117.42
543.276	28021.16
543.476	28072.36
543.676	28320.17
543.877	28441
544.077	28545.44
544.277	28455.33
544.478	28166.57
544.678	28311.97
544.878	28297.64
545.078	28178.86
545.279	28139.94
545.479	28103.08
545.679	28029.35
545.879	27922.86
546.079	28109.22
546.28	27783.6
546.48	28187.05
546.68	28092.84
546.88	28346.79
547.08	28055.98
547.28	28047.79
547.48	28004.78
547.68	28139.94
547.88	28080.55
548.081	28277.16
548.281	27916.72
548.481	27922.86
548.681	28115.37
548.881	27908.52
549.081	28068.27
549.28	27763.12
549.48	28039.59
549.68	27793.84
549.88	28152.23
550.08	27754.93
550.28	28295.59
550.48	27685.29
550.68	28041.64
550.88	27736.49
551.08	27931.05
551.279	27638.19
551.479	27716.01
551.679	27785.65
551.879	27480.5
552.079	27865.52
552.278	27687.34
552.478	28166.57
552.678	27863.47
552.878	28256.68
553.077	27877.8
553.277	27455.92
553.477	27728.3
553.676	27900.33
553.876	28015.02
554.076	27619.76
554.275	27627.95
554.475	27539.89
554.674	27722.16
554.874	27748.78
555.074	27414.96
555.273	27607.47
555.473	27976.11
555.672	27697.58
555.872	27419.06
556.071	27896.24
556.271	27568.56
556.47	27457.97
556.67	27328.95
556.869	27683.25
557.068	27732.4
557.268	27361.72
557.467	27503.03
557.667	27433.39
557.866	27355.57
558.065	27191.73
558.265	27316.66
558.464	27312.56
558.663	27351.48
558.863	27193.78
559.062	27617.71
559.261	27052.47
559.461	27546.03
559.66	27142.58
559.859	27087.29
560.058	26952.12
560.258	27361.72
560.457	26939.83
560.656	27449.78
560.855	27097.53
561.054	27425.2
561.253	27077.05
561.453	27111.86
561.652	27457.97
561.851	27392.44
562.05	26888.64
562.249	27118.01
562.448	27300.28
562.647	27091.38
562.846	26663.36
563.045	26886.59
563.244	26878.4
563.443	27361.72
563.642	26778.04
563.841	26952.12
564.04	26653.12
564.239	27169.21
564.438	26880.44
564.637	26778.04
564.836	27130.3
565.035	26419.65
565.234	26663.36
565.432	26810.81
565.631	27036.09
565.83	26505.66
566.029	26716.61
566.228	26730.94
566.427	26177.99
566.625	26626.5
566.824	26329.54
567.023	26761.66
567.222	26003.91
567.42	26589.63
567.619	26558.91
567.818	26624.45
568.016	25919.95
568.215	26634.69
568.414	26579.39
568.612	26466.75
568.811	26212.81
569.01	26450.37
569.208	26286.53
569.407	26511.81
569.605	26155.46
569.804	26393.03
570.002	26157.51
570.201	25921.99
570.4	26231.24
570.598	25911.75
570.797	26003.91
570.995	26282.44
571.193	26106.31
571.392	26331.59
571.59	25936.33
571.789	25948.62
571.987	25946.57
572.186	25854.41
572.384	25897.42
572.582	25979.34
572.781	25870.79
572.979	25399.76
573.177	25663.95
573.376	25602.51
573.574	25686.48
573.772	25932.23
573.971	25450.96
574.169	25483.73
574.367	25524.69
574.565	25459.15
574.763	25627.09
574.962	25307.6
575.16	25184.73
575.358	25438.67
575.556	25053.66
575.754	25627.09
575.952	25375.19
576.151	25698.77
576.349	24947.16
576.547	25104.85
576.745	25188.82
576.943	25301.46
577.141	24820.19
577.339	25256.4
577.537	24805.85
577.735	25067.99
577.933	24816.09
578.131	25076.18
578.329	24916.44
578.527	24707.55
578.725	24693.21
578.923	24662.49
579.121	24723.93
579.319	24660.45
579.516	24867.29
579.714	24861.15
579.912	24545.76
580.11	24426.98
580.308	24586.72
580.506	24400.35
580.704	24152.55
580.901	24236.52
581.099	24474.08
581.297	24068.58
581.495	23949.8
581.692	24420.83
581.89	24050.15
582.088	24547.81
582.285	23902.7
582.483	24367.59
582.681	23865.83
582.878	24316.39
583.076	24046.05
583.274	24095.21
583.471	23636.46
583.669	23615.98
583.866	23482.86
584.064	23671.28
584.262	23841.26
584.459	24058.34
584.657	23755.24
584.854	23736.81
585.052	23126.52
585.249	23562.73
585.447	23579.12
585.644	23521.77
585.841	23206.39
586.039	23489.01
586.236	23071.22
586.434	23095.8
586.631	23273.97
586.828	23290.35
587.026	23302.64
587.223	23241.2
587.42	22850.04
587.618	23249.39
587.815	22958.58
588.012	22950.39
588.21	22606.33
588.407	23183.86
588.604	22872.57
588.801	22770.17
588.999	22616.57
589.196	22895.1
589.393	22647.29
589.59	22594.04
589.787	22569.47
589.984	22469.12
590.182	22444.54
590.379	22194.69
590.576	22473.21
590.773	22682.11
590.97	22266.37
591.167	22573.56
591.364	22098.44
591.561	22323.71
591.758	22082.05
591.955	21895.69
592.152	22092.29
592.349	22196.74
592.546	22311.42
592.743	21930.5
592.94	21918.21
593.137	21957.13
593.334	21867.02
593.531	21627.4
593.727	21930.5
593.924	21758.47
594.121	21887.5
594.318	22018.57
594.515	21518.86
594.712	21654.03
594.908	21834.25
595.105	21541.39
595.302	21525
595.499	21735.95
595.696	21621.26
595.892	21191.19
596.089	21266.96
596.286	21449.23
596.482	21295.63
596.679	21361.17
596.876	21606.92
597.072	21254.67
597.269	21236.24
597.466	21398.03
597.662	21053.97
597.859	21236.24
598.055	20908.57
598.252	21039.64
598.448	21168.66
598.645	20816.41
598.841	20814.36
599.038	21174.8
599.234	21029.4
599.431	21004.82
599.627	20744.73
599.824	21092.88
600.02	20707.87
600.217	20896.28
600.413	20607.51
600.609	20527.64
600.806	20621.85
601.002	20541.98
601.198	20718.11
601.395	20396.57
601.591	20546.08
601.787	20601.37
601.984	20531.74
602.18	20372
602.376	20384.29
602.572	20359.71
602.769	20341.28
602.965	20265.5
603.161	20423.2
603.357	20333.09
603.553	20521.5
603.75	20083.23
603.946	20312.61
604.142	20396.57
604.338	20204.07
604.534	20208.16
604.73	20150.82
604.926	20081.19
605.122	19978.79
605.318	19941.93
605.514	19978.79
605.71	20101.67
605.906	19657.26
606.102	20019.75
606.298	20040.23
606.494	19716.65
606.69	20204.07
606.886	19896.87
607.082	19491.37
607.278	20085.28
607.474	19776.04
607.67	19892.77
607.866	19425.84
608.062	19972.64
608.257	19681.83
608.453	19866.15
608.649	19835.43
608.845	19642.92
609.041	19948.07
609.236	19864.1
609.432	19507.76
609.628	19692.07
609.824	19558.95
610.019	19620.39
610.215	19544.62
610.411	19532.33
610.606	19460.65
610.802	19434.03
610.998	19530.28
611.193	19384.88
611.389	19702.31
611.584	19708.46
611.78	19382.83
611.976	19593.77
612.171	19542.57
612.367	19431.98
612.562	19587.63
612.758	19563.05
612.953	19305.01
613.149	19434.03
613.344	19352.11
613.539	19374.64
613.735	19558.95
613.93	19438.12
614.126	19202.61
614.321	19518
614.517	19558.95
614.712	19399.21
614.907	19206.7
615.103	19507.76
615.298	19300.91
615.493	19284.53
615.688	19393.07
615.884	19507.76
616.079	19120.69
616.274	19208.75
616.47	19030.58
616.665	19204.66
616.86	19225.14
617.055	18909.75
617.25	18965.04
617.445	19325.49
617.641	19020.34
617.836	19317.29
618.031	18797.11
618.226	19100.21
618.421	19020.34
618.616	19192.37
618.811	18709.05
619.006	18842.17
619.201	18455.1
619.396	18707
619.591	18547.26
619.786	18707
619.981	18608.7
620.176	18747.96
620.371	18438.72
620.566	18455.1
620.761	18711.1
620.956	18580.03
621.151	18330.17
621.346	18291.26
621.541	18090.56
621.735	18223.68
621.93	17961.54
622.125	18100.8
622.32	17863.24
622.515	17754.69
622.709	17865.28
622.904	17689.16
623.099	17742.41
623.294	17611.34
623.488	17631.82
623.683	17541.71
623.878	17318.48
624.072	17482.31
624.267	17361.48
624.462	17353.29
624.656	16736.85
624.851	17074.77
625.046	16777.81
625.24	17076.82
625.435	16751.19
625.629	16939.6
625.824	16796.25
626.018	16829.01
626.213	16208.48
626.407	16530.01
626.602	16378.46
626.796	16433.75
626.991	16278.11
627.185	16319.07
627.38	16314.97
627.574	16005.73
627.768	15936.1
627.963	15852.13
628.157	15774.31
628.352	15716.97
628.546	15329.9
628.74	15714.92
628.935	15587.94
629.129	15424.11
629.323	15245.93
629.517	15272.56
629.712	15352.43
629.906	15090.29
630.1	15116.91
630.294	15180.4
630.489	15149.68
630.683	15200.88
630.877	14719.6
631.071	14733.94
631.265	14815.86
631.459	14496.38
631.653	14658.17
631.848	14586.49
632.042	14539.38
632.236	14447.22
632.43	14170.75
632.624	14609.01
632.818	14166.65
633.012	14269.05
633.206	14295.68
633.4	14084.73
633.594	14000.77
633.788	13900.42
633.982	13879.94
634.176	13933.18
634.369	13642.37
634.563	13722.24
634.757	13562.5
634.951	13685.38
635.145	13544.07
635.339	13539.97
635.533	13382.28
635.726	13200.01
635.92	13279.88
636.114	13337.23
636.308	13296.27
636.501	13042.32
636.695	12884.62
636.889	12749.46
637.083	12890.77
637.276	12999.31
637.47	12724.88
637.664	12757.65
637.857	12518.04
638.051	12767.89
638.244	12544.66
638.438	12675.73
638.632	12497.56
638.825	12319.39
639.019	11879.07
639.212	12200.6
639.406	12059.29
639.599	12071.58
639.793	11977.37
639.986	11774.63
640.18	11862.69
640.373	11784.87
640.567	11707.04
640.76	11729.57
640.954	11791.01
641.147	11428.52
641.34	11516.58
641.534	11492.01
641.727	11455.14
641.92	11557.54
642.114	11283.11
642.307	11236.01
642.5	10937.01
642.694	10969.77
642.887	10898.1
643.08	11170.47
643.273	10791.6
643.467	10859.18
643.66	10695.35
643.853	10795.7
644.046	10609.33
644.239	10717.87
644.432	10564.28
644.626	10502.84
644.819	10404.53
645.012	10625.72
645.205	10355.38
645.398	10308.28
645.591	10144.44
645.784	10203.83
645.977	10105.53
646.17	10003.13
646.363	9878.21
646.556	9878.21
646.749	9884.35
646.942	9837.25
647.135	9788.1
647.328	9620.16
647.521	9585.35
647.714	9411.27
647.907	9593.54
648.099	9472.71
648.292	9497.28
648.485	9507.52
648.678	9142.99
648.871	9255.62
649.064	9079.5
649.256	9290.44
649.449	8968.91
649.642	9077.45
649.835	9001.68
650.027	8942.28
650.22	8944.33
650.413	8999.63
650.605	8733.39
650.798	8751.82
650.991	8737.49
651.183	8682.19
651.376	8606.42
651.568	8678.1
651.761	8561.36
651.954	8592.08
652.146	8528.6
652.339	8477.4
652.531	8362.71
652.724	8307.41
652.916	8026.84
653.109	8162.01
653.301	8106.71
653.494	7949.02
653.686	7871.2
653.879	8121.05
654.071	7822.05
654.263	7912.16
654.456	7895.77
654.648	7885.53
654.84	7588.58
655.033	7647.97
655.225	7666.4
655.417	7662.3
655.61	7588.58
655.802	7537.38
655.994	7668.45
656.186	7631.58
656.379	7310.05
656.571	7475.94
656.763	7084.78
656.955	7299.81
657.148	7330.53
657.34	7209.7
657.532	7271.14
657.724	7060.2
657.916	7076.59
658.108	7029.48
658.3	7082.73
658.492	6896.36
658.684	6847.21
658.876	6986.47
659.068	6767.34
659.26	6617.84
659.452	6714.09
659.644	6718.19
659.836	6789.87
660.028	6630.13
660.22	6679.28
660.412	6660.85
660.604	6361.84
660.796	6492.91
660.988	6503.15
661.18	6316.79
661.372	6380.28
661.563	6333.17
661.755	6286.07
661.947	6472.43
662.139	6167.29
662.331	6095.61
662.522	6073.08
662.714	6054.65
662.906	6091.51
663.097	6091.51
663.289	5780.22
663.481	5767.93
663.673	5997.31
663.864	5774.08
664.056	5896.96
664.247	5849.85
664.439	5798.65
664.631	5782.27
664.822	5749.5
665.014	5636.86
665.205	5632.77
665.397	5671.68
665.588	5544.7
665.78	5346.05
665.971	5552.9
666.163	5493.51
666.354	5608.19
666.546	5364.48
666.737	5442.31
666.929	5395.2
667.12	5372.68
667.311	5403.39
667.503	5208.84
667.694	5337.86
667.885	5296.9
668.077	5229.32
668.268	5073.67
668.459	5088.01
668.651	5108.49
668.842	5075.72
669.033	5100.3
669.224	4997.9
669.416	5042.95
669.607	4961.03
669.798	5001.99
669.989	5001.99
670.18	4967.18
670.371	4834.06
670.563	4868.88
670.754	4999.95
670.945	4764.43
671.136	4717.33
671.327	4774.67
671.518	4719.37
671.709	4766.48
671.9	4872.97
672.091	4723.47
672.282	4758.28
672.473	4573.97
672.664	4719.37
672.855	4688.65
673.046	4721.42
673.237	4592.4
673.428	4780.81
673.619	4559.63
673.809	4692.75
674	4670.22
674.191	4588.3
674.382	4563.73
674.573	4490
674.764	4510.48
674.954	4637.45
675.145	4528.91
675.336	4412.18
675.527	4346.64
675.717	4606.74
675.908	4365.07
676.099	4320.02
676.289	4240.15
676.48	4426.51
676.671	4340.5
676.861	4408.08
677.052	4467.47
677.243	4395.79
677.433	4350.74
677.624	4328.21
677.814	4307.73
678.005	4326.16
678.195	4401.94
678.386	4360.98
678.576	4373.27
678.767	4225.81
678.957	4229.91
679.148	4229.91
679.338	4252.44
679.529	4072.22
679.719	4152.09
679.909	4291.35
680.1	4111.13
680.29	4152.09
680.481	4229.91
680.671	4084.5
680.861	4260.63
681.052	4250.39
681.242	4039.45
681.432	4250.39
681.622	4152.09
681.813	3992.34
682.003	4203.29
682.193	4080.41
682.383	4225.81
682.573	4227.86
682.764	4080.41
682.954	4137.75
683.144	4160.28
683.334	4084.5
683.524	3943.19
683.714	4004.63
683.904	3949.34
684.094	4092.69
684.284	4098.84
684.474	4064.02
684.664	3982.1
684.854	3973.91
685.044	4119.32
685.234	3896.09
685.424	4150.04
685.614	3840.79
685.804	4121.37
685.994	4084.5
686.184	4111.13
686.374	4043.54
686.564	3932.95
686.753	4098.84
686.943	3816.22
687.133	4016.92
687.323	3957.53
687.513	4002.58
687.702	3894.04
687.892	3867.42
688.082	3904.28
688.272	4021.02
688.461	3883.8
688.651	3932.95
688.841	3801.88
689.03	3713.82
689.22	3978.01
689.41	3824.41
689.599	3744.54
689.789	3758.88
689.979	3891.99
690.168	3793.69
690.358	3808.03
690.547	3693.34
690.737	3785.5
690.926	3840.79
691.116	3883.8
691.305	3828.51
691.495	3730.2
691.684	3656.48
691.874	3656.48
692.063	3744.54
692.252	3695.39
692.442	3777.31
692.631	3605.28
692.82	3695.39
693.01	3570.46
693.199	3691.29
693.388	3650.33
693.578	3697.44
693.767	3781.4
693.956	3711.77
694.146	3535.65
694.335	3549.98
694.524	3654.43
694.713	3662.62
694.902	3656.48
695.092	3666.72
695.281	3711.77
695.47	3746.59
695.659	3570.46
695.848	3570.46
696.037	3564.32
696.226	3621.66
696.415	3509.02
696.604	3853.08
696.793	3595.04
696.982	3597.09
697.171	3844.89
697.36	3617.57
697.549	3676.96
697.738	3621.66
697.927	3607.33
698.116	3646.24
698.305	3582.75
698.494	3685.15
698.683	3691.29
698.872	3703.58
699.061	3605.28
699.25	3713.82
699.438	3697.44
699.627	3719.96
699.816	3875.61
700.005	3697.44
700.193	3769.12
700.382	3736.35
700.571	3861.27
700.76	3662.62
700.948	3848.99
701.137	3783.45
701.326	3627.81
701.514	3848.99
701.703	3812.12
701.892	3736.35
702.08	3791.64
702.269	3668.77
702.457	3805.98
702.646	3793.69
702.834	3742.49
703.023	3564.32
703.212	3724.06
703.4	3697.44
703.589	3689.25
703.777	3795.74
703.965	3681.05
704.154	3554.08
704.342	3861.27
704.531	3762.97
704.719	3767.07
704.907	3826.46
705.096	3728.16
705.284	3705.63
705.472	3619.61
705.661	3844.89
705.849	3844.89
706.037	3908.38
706.226	3836.7
706.414	3869.47
706.602	3851.03
706.79	3838.75
706.979	3867.42
707.167	3844.89
707.355	3730.2
707.543	3846.94
707.731	3734.3
707.919	3777.31
708.107	3898.14
708.296	3617.57
708.484	3722.01
708.672	3818.27
708.86	3711.77
709.048	3783.45
709.236	3789.6
709.424	3865.37
709.612	3715.87
709.8	3750.68
709.988	3744.54
710.176	3791.64
710.364	3840.79
710.551	3752.73
710.739	3728.16
710.927	3812.12
711.115	3906.33
711.303	3785.5
711.491	3881.75
711.679	3785.5
711.866	3715.87
712.054	3728.16
712.242	3640.09
712.43	3826.46
712.617	3648.29
712.805	3795.74
712.993	3646.24
713.181	3689.25
713.368	3713.82
713.556	3771.16
713.744	3730.2
713.931	3902.23
714.119	3595.04
714.306	3711.77
714.494	3703.58
714.682	3736.35
714.869	3789.6
715.057	3674.91
715.244	3697.44
715.432	3742.49
715.619	3597.09
715.807	3633.95
715.994	3810.08
716.182	3783.45
716.369	3797.79
716.556	3687.2
716.744	3730.2
716.931	3515.17
717.119	3805.98
717.306	3703.58
717.493	3750.68
717.681	3803.93
717.868	3668.77
718.055	3531.55
718.242	3728.16
718.43	3873.56
718.617	3760.92
718.804	3703.58
718.991	3623.71
719.179	3666.72
719.366	3705.63
719.553	3666.72
719.74	3752.73
719.927	3732.25
720.114	3812.12
720.301	3654.43
720.488	3572.51
720.676	3695.39
720.863	3756.83
721.05	3592.99
721.237	3679.01
721.424	3697.44
721.611	3646.24
721.798	3730.2
721.985	3574.56
722.172	3601.18
722.358	3566.37
722.545	3568.41
722.732	3681.05
722.919	3756.83
723.106	3582.75
723.293	3629.85
723.48	3693.34
723.667	3463.97
723.853	3648.29
724.04	3670.81
724.227	3676.96
724.414	3619.61
724.6	3547.94
724.787	3672.86
724.974	3656.48
725.161	3601.18
725.347	3541.79
725.534	3472.16
725.72	3537.7
725.907	3672.86
726.094	3638.05
726.28	3519.26
726.467	3537.7
726.653	3461.92
726.84	3582.75
727.027	3711.77
727.213	3437.34
727.4	3562.27
727.586	3570.46
727.773	3525.41
727.959	3525.41
728.145	3513.12
728.332	3537.7
728.518	3443.49
728.705	3355.43
728.891	3437.34
729.077	3433.25
729.264	3410.72
729.45	3447.58
729.636	3636
729.823	3498.78
730.009	3433.25
730.195	3457.82
730.382	3375.91
730.568	3365.67
730.754	3312.42
730.94	3291.94
731.126	3420.96
731.313	3404.58
731.499	3326.75
731.685	3345.19
731.871	3404.58
732.057	3261.22
732.243	3455.78
732.429	3400.48
732.615	3449.63
732.801	3371.81
732.987	3234.6
733.173	3480.35
733.359	3371.81
733.545	3283.75
733.731	3310.37
733.917	3459.87
734.103	3322.66
734.289	3433.25
734.475	3173.16
734.661	3367.71
734.847	3347.23
735.033	3259.17
735.219	3332.9
735.404	3373.86
735.59	3238.69
735.776	3148.58
735.962	3468.06
736.148	3341.09
736.333	3263.27
736.519	3193.64
736.705	3361.57
736.89	3191.59
737.076	3234.6
737.262	3115.81
737.447	3011.37
737.633	3234.6
737.819	3240.74
738.004	3193.64
738.19	3142.44
738.375	3160.87
738.561	3189.54
738.747	3162.92
738.932	3076.9
739.118	3111.72
739.303	3095.33
739.489	3212.07
739.674	3031.85
739.859	3029.8
740.045	3191.59
740.23	3015.46
740.416	2966.31
740.601	3081
740.786	3042.09
740.972	2870.06
741.157	2890.54
741.342	2831.15
741.528	2980.65
741.713	2917.16
741.898	2808.62
742.084	3046.18
742.269	2829.1
742.454	2947.88
742.639	2896.68
742.824	2908.97
743.01	3015.46
743.195	2849.58
743.38	2851.63
743.565	2769.71
743.75	2788.14
743.935	2843.43
744.12	2857.77
744.305	2851.63
744.49	2706.22
744.675	2693.93
744.86	2720.56
745.045	2652.97
745.23	2599.73
745.415	2757.42
745.6	2714.41
745.785	2630.45
745.97	2769.71
746.155	2560.81
746.34	2650.92
746.525	2589.49
746.71	2657.07
746.895	2466.61
747.079	2569.01
747.264	2573.1
747.449	2624.3
747.634	2716.46
747.819	2476.85
748.003	2378.55
748.188	2321.2
748.373	2528.05
748.557	2468.66
748.742	2356.02
748.927	2386.74
749.111	2390.83
749.296	2329.39
749.481	2327.35
749.665	2333.49
749.85	2214.71
750.034	2358.07
750.219	2198.32
750.404	2296.63
750.588	2347.83
750.773	2175.8
750.957	2366.26
751.141	2181.94
751.326	2265.91
751.51	2255.67
751.695	2220.85
751.879	2173.75
752.064	2192.18
752.248	2106.17
752.432	2157.36
752.617	2202.42
752.801	2075.45
752.985	2181.94
753.17	2204.47
753.354	2034.49
753.538	2048.82
753.722	2173.75
753.907	1950.52
754.091	1999.67
754.275	1993.53
754.459	1887.03
754.643	1880.89
754.828	1901.37
755.012	1911.61
755.196	1854.27
755.38	1874.74
755.564	1893.18
755.748	1825.59
755.932	1864.5
756.116	1858.36
756.3	1874.74
756.484	1852.22
756.668	1733.43
756.852	1715
757.036	1825.59
757.22	1776.44
757.404	1770.3
757.588	1749.82
757.772	1837.88
757.956	1686.33
758.14	1700.67
758.323	1678.14
758.507	1835.83
758.691	1692.48
758.875	1692.48
759.059	1706.81
759.242	1651.52
759.426	1624.89
759.61	1602.36
759.794	1581.89
759.977	1553.21
760.161	1704.76
760.345	1635.13
760.528	1592.13
760.712	1567.55
760.895	1502.01
761.079	1579.84
761.263	1491.77
761.446	1528.64
761.63	1583.93
761.813	1592.13
761.997	1506.11
762.18	1590.08
762.364	1469.25
762.547	1459.01
762.731	1510.21
762.914	1569.6
763.098	1538.88
763.281	1434.43
763.464	1508.16
763.648	1456.96
763.831	1393.47
764.015	1459.01
764.198	1413.95
764.381	1416
764.564	1479.49
764.748	1418.05
764.931	1438.53
765.114	1348.42
765.297	1428.29
765.481	1434.43
765.664	1416
765.847	1340.22
766.03	1426.24
766.213	1383.23
766.397	1497.92
766.58	1276.74
766.763	1393.47
766.946	1321.79
767.129	1200.96
767.312	1299.27
767.495	1336.13
767.678	1274.69
767.861	1364.8
768.044	1266.5
768.227	1243.97
768.41	1258.31
768.593	1289.03
768.776	1321.79
768.959	1338.18
769.142	1340.22
769.324	1221.44
769.507	1250.11
769.69	1127.24
769.873	1168.2
770.056	1221.44
770.239	1190.72
770.421	1227.59
770.604	1213.25
770.787	1184.58
770.97	1233.73
771.152	1166.15
771.335	1174.34
771.518	1264.45
771.7	1200.96
771.883	1176.39
772.066	1188.68
772.248	1243.97
772.431	1221.44
772.613	1203.01
772.796	1106.76
772.978	1258.31
773.161	1108.8
773.343	1110.85
773.526	1067.85
773.708	1139.52
773.891	1102.66
774.073	1151.81
774.256	1039.17
774.438	1274.69
774.621	1094.47
774.803	1043.27
774.985	1078.08
775.168	1071.94
775.35	1014.6
775.532	1106.76
775.715	1020.74
775.897	1108.8
776.079	1135.43
776.261	973.64
776.444	1020.74
776.626	994.12
776.808	998.21
776.99	1094.47
777.173	967.49
777.355	942.92
777.537	994.12
777.719	1014.6
777.901	1080.13
778.083	1024.84
778.265	895.82
778.447	1014.6
778.629	809.8
778.811	949.06
778.993	1002.31
779.175	985.93
779.357	869.19
779.539	871.24
779.721	908.1
779.903	942.92
780.085	901.96
780.267	901.96
780.449	807.75
780.631	785.23
780.812	920.39
780.994	705.35
781.176	901.96
781.358	774.99
781.54	852.81
781.721	809.8
781.903	791.37
782.085	766.79
782.267	924.49
782.448	770.89
782.63	809.8
782.812	731.98
782.993	768.84
783.175	844.62
783.357	766.79
783.538	748.36
783.72	742.22
783.901	781.13
784.083	688.97
784.264	750.41
784.446	680.78
784.627	609.1
784.809	787.27
784.99	643.92
785.172	701.26
785.353	729.93
785.535	684.87
785.716	736.07
785.897	619.34
786.079	660.3
786.26	676.68
786.441	637.77
786.623	656.2
786.804	631.63
786.985	574.28
787.167	596.81
787.348	588.62
787.529	588.62
787.71	707.4
787.891	627.53
788.073	502.61
788.254	549.71
788.435	621.39
788.616	611.15
788.797	525.13
788.978	537.42
789.159	518.99
789.34	598.86
789.522	625.48
789.703	463.69
789.884	707.4
790.065	574.28
790.246	637.77
790.427	529.23
790.607	666.44
790.788	631.63
790.969	566.09
791.15	574.28
791.331	447.31
791.512	473.93
791.693	451.41
791.874	574.28
792.054	650.06
792.235	559.95
792.416	484.17
792.597	435.02
792.778	498.51
792.958	463.69
793.139	488.27
793.32	582.48
793.5	428.88
793.681	539.47
793.862	496.46
794.042	498.51
794.223	402.26
794.404	420.69
794.584	398.16
794.765	367.44
794.945	394.06
795.126	453.45
795.306	529.23
795.487	447.31
795.667	420.69
795.848	459.6
796.028	465.74
796.209	455.5
796.389	336.72
796.57	406.35
796.75	332.62
796.93	416.59
797.111	379.73
797.291	465.74
797.471	484.17
797.652	402.26
797.832	373.58
798.012	449.36
798.192	389.97
798.373	435.02
798.553	357.2
798.733	432.97
798.913	262.99
799.093	344.91
799.274	420.69
799.454	420.69
799.634	410.45
799.814	312.14
799.994	279.38
800.174	410.45
800.354	377.68
800.534	342.86
800.714	371.54
800.894	293.71
801.074	367.44
801.254	344.91
801.434	353.1
801.614	346.96
801.794	289.62
801.974	1303.36
802.154	432.97
802.334	299.86
802.514	283.47
802.693	277.33
802.873	287.57
803.053	363.34
803.233	367.44
803.413	383.82
803.592	371.54
803.772	308.05
803.952	289.62
804.131	283.47
804.311	369.49
804.491	400.21
804.67	291.66
804.85	324.43
805.03	363.34
805.209	375.63
805.389	310.1
805.568	306
805.748	285.52
805.928	262.99
806.107	308.05
806.287	326.48
806.466	271.19
806.646	312.14
806.825	273.23
807.004	242.51
807.184	299.86
807.363	256.85
807.543	256.85
807.722	238.42
807.901	297.81
808.081	265.04
808.26	146.26
808.439	269.14
808.619	308.05
808.798	254.8
808.977	217.94
809.156	273.23
809.336	236.37
809.515	232.27
809.694	189.27
809.873	293.71
810.052	265.04
810.231	273.23
810.411	267.09
810.59	326.48
810.769	353.1
810.948	240.47
811.127	152.4
811.306	303.95
811.485	222.03
811.664	285.52
811.843	275.28
812.022	193.36
812.201	185.17
812.38	201.55
812.559	226.13
812.737	297.81
812.916	158.55
813.095	262.99
813.274	236.37
813.453	260.95
813.632	224.08
813.811	334.67
813.989	86.87
814.168	185.17
814.347	148.31
814.526	170.83
814.704	273.23
814.883	240.47
815.062	191.31
815.24	222.03
815.419	189.27
815.598	179.03
815.776	138.07
815.955	252.75
816.133	62.29
816.312	140.12
816.49	140.12
816.669	236.37
816.847	205.65
817.026	129.88
817.204	252.75
817.383	185.17
817.561	95.06
817.74	265.04
817.918	293.71
818.097	156.5
818.275	93.01
818.453	240.47
818.632	265.04
818.81	119.64
818.988	168.79
819.167	176.98
819.345	150.36
819.523	201.55
819.701	207.7
819.879	222.03
820.058	162.64
820.236	162.64
820.414	168.79
820.592	185.17
820.77	162.64
820.948	148.31
821.127	154.45
821.305	191.31
821.483	70.48
821.661	179.03
821.839	148.31
822.017	111.44
822.195	152.4
822.373	207.7
822.551	183.12
822.729	138.07
822.907	144.21
823.085	154.45
823.262	115.54
823.44	146.26
823.618	166.74
823.796	154.45
823.974	107.35
824.152	113.49
824.329	148.31
824.507	156.5
824.685	123.73
824.863	158.55
825.04	176.98
825.218	222.03
825.396	201.55
825.574	207.7
825.751	283.47
825.929	197.46
826.107	107.35
826.284	150.36
826.462	107.35
826.639	117.59
826.817	117.59
826.994	121.68
827.172	99.16
827.349	193.36
827.527	72.53
827.704	203.6
827.882	138.07
828.059	162.64
828.237	133.97
828.414	146.26
828.591	90.96
828.769	111.44
828.946	50
829.124	144.21
829.301	103.25
829.478	142.16
829.655	166.74
829.833	131.92
830.01	99.16
830.187	170.83
830.364	54.1
830.542	74.58
830.719	168.79
830.896	129.88
831.073	78.68
831.25	95.06
831.427	144.21
831.604	154.45
831.782	58.2
831.959	64.34
832.136	56.15
832.313	113.49
832.49	131.92
832.667	183.12
832.844	97.11
833.021	105.3
833.198	197.46
833.374	86.87
833.551	109.4
833.728	105.3
833.905	115.54
834.082	80.72
834.259	123.73
834.436	176.98
834.612	50
834.789	101.2
834.966	11.09
835.143	99.16
835.319	9.05
835.496	152.4
835.673	168.79
835.85	162.64
836.026	166.74
836.203	93.01
836.38	93.01
836.556	148.31
836.733	80.72
836.909	74.58
837.086	95.06
837.262	9.05
837.439	111.44
837.616	84.82
837.792	99.16
837.968	76.63
838.145	-38.06
838.321	93.01
838.498	82.77
838.674	156.5
838.851	146.26
839.027	84.82
839.203	164.69
839.38	99.16
839.556	41.81
839.732	93.01
839.909	82.77
840.085	80.72
840.261	64.34
840.437	66.39
840.614	105.3
840.79	150.36
840.966	97.11
841.142	250.71
841.318	133.97
841.494	142.16
841.671	152.4
841.847	74.58
842.023	68.44
842.199	133.97
842.375	195.41
842.551	54.1
842.727	54.1
842.903	158.55
843.079	111.44
843.255	103.25
843.431	105.3
843.607	144.21
843.783	-25.77
843.959	90.96
844.134	21.33
844.31	123.73
844.486	66.39
844.662	45.91
844.838	80.72
845.013	103.25
845.189	62.29
845.365	90.96
845.541	23.38
845.716	154.45
845.892	115.54
846.068	52.05
846.244	25.43
846.419	101.2
846.595	-19.63
846.77	111.44
846.946	41.81
847.122	140.12
847.297	17.24
847.473	131.92
847.648	95.06
847.824	74.58
847.999	29.52
848.175	7
848.35	148.31
848.526	33.62
848.701	101.2
848.876	88.92
849.052	29.52
849.227	7
849.403	66.39
849.578	-29.87
849.753	70.48
849.929	95.06
850.104	29.52
850.279	88.92
850.454	23.38
850.63	54.1
850.805	54.1
850.98	41.81
851.155	58.2
851.33	50
851.505	-17.58
851.681	125.78
851.856	68.44
852.031	43.86
852.206	101.2
852.381	23.38
852.556	37.72
852.731	95.06
852.906	39.76
853.081	144.21
853.256	131.92
853.431	80.72
853.606	-33.96
853.781	-13.48
853.956	7
854.131	103.25
854.305	23.38
854.48	-68.78
854.655	-38.06
854.83	19.29
855.005	66.39
855.18	80.72
855.354	97.11
855.529	64.34
855.704	-5.29
855.879	27.48
856.053	11.09
856.228	70.48
856.403	15.19
856.577	62.29
856.752	7
856.926	82.77
857.101	74.58
857.276	-7.34
857.45	35.67
857.625	93.01
857.799	37.72
857.974	41.81
858.148	0.85
858.323	45.91
858.497	52.05
858.672	33.62
858.846	-11.43
859.02	84.82
859.195	-9.39
859.369	82.77
859.543	-29.87
859.718	13.14
859.892	101.2
860.066	4.95
860.241	-23.72
860.415	-15.53
860.589	68.44
860.763	39.76
860.938	13.14
861.112	-1.19
861.286	95.06
861.46	56.15
861.634	52.05
861.808	78.68
861.982	7
862.157	21.33
862.331	-5.29
862.505	50
862.679	-1.19
862.853	31.57
863.027	-33.96
863.201	115.54
863.375	31.57
863.549	93.01
863.722	21.33
863.896	109.4
864.07	2.9
864.244	4.95
864.418	70.48
864.592	60.24
864.766	31.57
864.939	86.87
865.113	41.81
865.287	66.39
865.461	29.52
865.634	25.43
865.808	-23.72
865.982	37.72
866.156	47.96
866.329	-7.34
866.503	-27.82
866.676	72.53
866.85	90.96
867.024	-13.48
867.197	99.16
867.371	62.29
867.544	33.62
867.718	-42.15
867.891	90.96
868.065	-50.35
868.238	56.15
868.412	66.39
868.585	-33.96
868.759	33.62
868.932	11.09
869.105	-48.3
869.279	9.05
869.452	-7.34
869.625	43.86
869.799	56.15
869.972	54.1
870.145	13.14
870.319	109.4
870.492	-7.34
870.665	-56.49
870.838	-23.72
871.011	-40.11
871.185	-1.19
871.358	19.29
871.531	-23.72
871.704	17.24
871.877	29.52
872.05	7
872.223	62.29
872.396	60.24
872.569	68.44
872.742	43.86
872.915	84.82
873.088	-46.25
873.261	23.38
873.434	68.44
873.607	121.68
873.78	21.33
873.953	-23.72
874.126	13.14
874.299	101.2
874.471	-15.53
874.644	0.85
874.817	60.24
874.99	97.11
875.163	-29.87
875.335	78.68
875.508	-11.43
875.681	45.91
875.853	37.72
876.026	31.57
876.199	76.63
876.371	23.38
876.544	15.19
876.717	-50.35
876.889	-38.06
877.062	29.52
877.234	-72.87
877.407	15.19
877.579	21.33
877.752	-54.44
877.924	99.16
878.097	33.62
878.269	-15.53
878.442	39.76
878.614	-19.63
878.786	31.57
878.959	25.43
879.131	37.72
879.303	-29.87
879.476	41.81
879.648	72.53
879.82	31.57
879.993	15.19
880.165	41.81
880.337	-15.53
880.509	-9.39
880.681	-25.77
880.854	11.09
881.026	52.05
881.198	144.21
881.37	-13.48
881.542	7
881.714	2.9
881.886	-103.59
882.058	-33.96
882.23	90.96
882.402	2.9
882.574	23.38
882.746	-17.58
882.918	88.92
883.09	70.48
883.262	-52.39
883.434	43.86
883.606	-46.25
883.778	19.29
883.95	97.11
884.122	-1.19
884.293	29.52
884.465	62.29
884.637	64.34
884.809	58.2
884.98	62.29
885.152	-5.29
885.324	-1.19
885.496	-21.67
885.667	43.86
885.839	0.85
886.011	117.59
886.182	25.43
886.354	19.29
886.525	27.48
886.697	105.3
886.869	-3.24
887.04	31.57
887.212	76.63
887.383	82.77
887.555	17.24
887.726	93.01
887.897	50
888.069	-3.24
888.24	7
888.412	19.29
888.583	21.33
888.754	50
888.926	-99.5
889.097	31.57
889.268	-93.35
889.44	-15.53
889.611	-79.02
889.782	-25.77
889.953	-38.06
890.125	-1.19
890.296	-74.92
890.467	-64.68
890.638	11.09
890.809	4.95
890.98	-15.53
891.151	62.29
891.323	72.53
891.494	-5.29
891.665	19.29
891.836	35.67
892.007	0.85
892.178	74.58
892.349	-3.24
892.52	-29.87
892.691	7
892.862	7
893.032	-60.59
893.203	-1.19
893.374	56.15
893.545	33.62
893.716	11.09
893.887	47.96
894.057	9.05
894.228	-25.77
894.399	-21.67
894.57	19.29
894.74	37.72
894.911	-1.19
895.082	37.72
895.253	13.14
895.423	33.62
895.594	45.91
895.764	7
895.935	-11.43
896.106	43.86
896.276	19.29
896.447	-25.77
896.617	-25.77
896.788	-23.72
896.958	-42.15
897.129	-38.06
897.299	11.09
897.47	56.15
897.64	37.72
897.81	-9.39
897.981	-9.39
898.151	-54.44
898.322	15.19
898.492	43.86
898.662	-27.82
898.832	11.09
899.003	15.19
899.173	29.52
899.343	-38.06
899.513	0.85
