Data from USB4F104151__59__12-12-26-054.txt Node

Date: Fri Mar 14 12:12:26 EDT 2025
User: louis
Spectrometer: USB4F10415
Trigger mode: 4
Integration Time (sec): 5.000000E-2
Scans to average: 1
Electric dark correction enabled: true
Nonlinearity correction enabled: false
Boxcar width: 0
XAxis mode: Wavelengths
Number of Pixels in Spectrum: 3648
>>>>>Begin Spectral Data<<<<<
178.204	-209.75
178.424	-209.75
178.644	-209.75
178.864	-193.36
179.084	-230.23
179.304	15.53
179.524	-35.67
179.744	9.39
179.964	44.2
180.184	-17.24
180.404	58.54
180.624	-25.43
180.844	-21.33
181.064	-9.05
181.283	-64.34
181.503	-11.09
181.723	56.49
181.943	-43.86
182.163	79.02
182.383	81.07
182.602	11.43
182.822	5.29
183.042	-23.38
183.262	-25.43
183.482	95.4
183.701	-43.86
183.921	40.11
184.141	-13.14
184.361	50.35
184.58	-15.19
184.8	81.07
185.02	-21.33
185.239	64.68
185.459	-9.05
185.679	62.63
185.898	-41.81
186.118	62.63
186.338	58.54
186.557	103.59
186.777	113.83
186.997	-62.29
187.216	56.49
187.436	76.97
187.655	109.74
187.875	68.78
188.095	-54.1
188.314	19.63
188.534	50.35
188.753	-7
188.973	46.25
189.192	99.5
189.412	13.48
189.631	15.53
189.851	52.39
190.07	91.31
190.29	38.06
190.509	9.39
190.729	64.68
190.948	40.11
191.168	251.05
191.387	70.83
191.607	-37.72
191.826	62.63
192.045	-56.15
192.265	-29.52
192.484	9.39
192.704	79.02
192.923	-56.15
193.142	140.46
193.362	101.55
193.581	109.74
193.8	64.68
194.02	85.16
194.239	-15.19
194.458	50.35
194.678	-50
194.897	25.77
195.116	-13.14
195.335	89.26
195.555	31.91
195.774	36.01
195.993	38.06
196.212	25.77
196.432	15.53
196.651	74.92
196.87	13.48
197.089	173.22
197.308	54.44
197.528	29.87
197.747	-11.09
197.966	-15.19
198.185	89.26
198.404	60.59
198.623	74.92
198.842	105.64
199.062	87.21
199.281	62.63
199.5	64.68
199.719	70.83
199.938	60.59
200.157	107.69
200.376	56.49
200.595	162.98
200.814	62.63
201.033	-25.43
201.252	13.48
201.471	-19.29
201.69	58.54
201.909	-11.09
202.128	156.84
202.347	-35.67
202.566	-11.09
202.785	19.63
203.004	11.43
203.223	136.36
203.442	21.67
203.661	7.34
203.879	42.15
204.098	113.83
204.317	-62.29
204.536	115.88
204.755	50.35
204.974	54.44
205.193	-2.9
205.411	156.84
205.63	40.11
205.849	103.59
206.068	83.11
206.287	27.82
206.505	68.78
206.724	46.25
206.943	1.19
207.162	17.58
207.381	140.46
207.599	140.46
207.818	54.44
208.037	25.77
208.255	62.63
208.474	128.17
208.693	11.43
208.911	113.83
209.13	68.78
209.349	72.87
209.567	17.58
209.786	40.11
210.005	48.3
210.223	50.35
210.442	-23.38
210.661	56.49
210.879	7.34
211.098	27.82
211.316	58.54
211.535	58.54
211.753	15.53
211.972	42.15
212.191	-0.85
212.409	50.35
212.628	19.63
212.846	42.15
213.065	60.59
213.283	128.17
213.502	15.53
213.72	7.34
213.938	-0.85
214.157	-19.29
214.375	29.87
214.594	-37.72
214.812	31.91
215.031	64.68
215.249	21.67
215.467	33.96
215.686	3.24
215.904	38.06
216.122	-33.62
216.341	85.16
216.559	1.19
216.778	93.35
216.996	93.35
217.214	52.39
217.432	52.39
217.651	-9.05
217.869	87.21
218.087	-0.85
218.306	113.83
218.524	117.93
218.742	79.02
218.96	31.91
219.179	91.31
219.397	-13.14
219.615	132.26
219.833	33.96
220.051	66.73
220.27	124.07
220.488	70.83
220.706	27.82
220.924	50.35
221.142	13.48
221.36	-7
221.578	36.01
221.796	56.49
222.015	105.64
222.233	25.77
222.451	105.64
222.669	42.15
222.887	38.06
223.105	-68.44
223.323	29.87
223.541	-15.19
223.759	87.21
223.977	17.58
224.195	144.55
224.413	21.67
224.631	25.77
224.849	33.96
225.067	146.6
225.285	-47.96
225.503	13.48
225.721	9.39
225.939	25.77
226.157	54.44
226.375	148.65
226.592	-47.96
226.81	9.39
227.028	72.87
227.246	103.59
227.464	85.16
227.682	38.06
227.9	138.41
228.117	70.83
228.335	54.44
228.553	58.54
228.771	40.11
228.989	85.16
229.206	70.83
229.424	36.01
229.642	44.2
229.86	13.48
230.077	91.31
230.295	21.67
230.513	126.12
230.731	72.87
230.948	107.69
231.166	38.06
231.384	38.06
231.601	-0.85
231.819	156.84
232.037	42.15
232.254	48.3
232.472	-50
232.689	-2.9
232.907	-9.05
233.125	85.16
233.342	40.11
233.56	-11.09
233.777	101.55
233.995	-33.62
234.213	83.11
234.43	70.83
234.648	-39.76
234.865	58.54
235.083	13.48
235.3	105.64
235.518	128.17
235.735	138.41
235.953	44.2
236.17	162.98
236.388	40.11
236.605	3.24
236.822	68.78
237.04	81.07
237.257	29.87
237.475	5.29
237.692	19.63
237.909	19.63
238.127	79.02
238.344	-29.52
238.562	-35.67
238.779	-64.34
238.996	17.58
239.214	29.87
239.431	124.07
239.648	1.19
239.865	64.68
240.083	74.92
240.3	23.72
240.517	-19.29
240.735	31.91
240.952	122.02
241.169	91.31
241.386	25.77
241.603	21.67
241.821	29.87
242.038	105.64
242.255	60.59
242.472	-15.19
242.689	33.96
242.907	56.49
243.124	-0.85
243.341	13.48
243.558	38.06
243.775	-31.57
243.992	-27.48
244.209	27.82
244.426	76.97
244.643	87.21
244.86	-37.72
245.078	-2.9
245.295	56.49
245.512	124.07
245.729	-9.05
245.946	72.87
246.163	13.48
246.38	3.24
246.597	-17.24
246.814	25.77
247.031	117.93
247.248	70.83
247.464	3.24
247.681	62.63
247.898	54.44
248.115	58.54
248.332	48.3
248.549	38.06
248.766	140.46
248.983	95.4
249.2	64.68
249.417	111.78
249.633	-62.29
249.85	66.73
250.067	-25.43
250.284	101.55
250.501	33.96
250.717	85.16
250.934	-9.05
251.151	7.34
251.368	3.24
251.585	124.07
251.801	76.97
252.018	-21.33
252.235	54.44
252.451	25.77
252.668	17.58
252.885	117.93
253.102	50.35
253.318	74.92
253.535	11.43
253.752	-2.9
253.968	15.53
254.185	-58.2
254.401	-37.72
254.618	66.73
254.835	-11.09
255.051	62.63
255.268	60.59
255.484	72.87
255.701	68.78
255.917	132.26
256.134	50.35
256.351	23.72
256.567	70.83
256.784	70.83
257	-78.68
257.217	64.68
257.433	83.11
257.65	146.6
257.866	126.12
258.082	-9.05
258.299	62.63
258.515	56.49
258.732	91.31
258.948	-27.48
259.165	62.63
259.381	27.82
259.597	58.54
259.814	48.3
260.03	21.67
260.246	40.11
260.463	33.96
260.679	-15.19
260.895	48.3
261.112	97.45
261.328	-7
261.544	42.15
261.761	89.26
261.977	62.63
262.193	19.63
262.409	109.74
262.626	15.53
262.842	60.59
263.058	1.19
263.274	44.2
263.49	60.59
263.707	48.3
263.923	132.26
264.139	54.44
264.355	46.25
264.571	64.68
264.787	60.59
265.004	74.92
265.22	74.92
265.436	-2.9
265.652	46.25
265.868	72.87
266.084	-2.9
266.3	40.11
266.516	-21.33
266.732	70.83
266.948	72.87
267.164	-0.85
267.38	87.21
267.596	-50
267.812	154.79
268.028	76.97
268.244	-25.43
268.46	109.74
268.676	56.49
268.892	42.15
269.108	-0.85
269.324	-23.38
269.54	19.63
269.756	64.68
269.972	-17.24
270.188	38.06
270.403	-29.52
270.619	58.54
270.835	91.31
271.051	1.19
271.267	-39.76
271.483	66.73
271.698	79.02
271.914	3.24
272.13	74.92
272.346	50.35
272.562	31.91
272.777	81.07
272.993	83.11
273.209	44.2
273.425	62.63
273.64	-39.76
273.856	115.88
274.072	38.06
274.287	-50
274.503	23.72
274.719	99.5
274.934	109.74
275.15	29.87
275.366	42.15
275.581	-2.9
275.797	-2.9
276.012	-9.05
276.228	25.77
276.444	72.87
276.659	-4.95
276.875	-33.62
277.09	38.06
277.306	19.63
277.521	54.44
277.737	23.72
277.952	56.49
278.168	70.83
278.383	48.3
278.599	31.91
278.814	79.02
279.03	-13.14
279.245	103.59
279.461	33.96
279.676	66.73
279.892	81.07
280.107	50.35
280.322	-37.72
280.538	105.64
280.753	-70.48
280.969	52.39
281.184	42.15
281.399	132.26
281.615	95.4
281.83	74.92
282.045	-11.09
282.26	40.11
282.476	50.35
282.691	115.88
282.906	87.21
283.122	21.67
283.337	-37.72
283.552	89.26
283.767	48.3
283.983	9.39
284.198	-54.1
284.413	109.74
284.628	-29.52
284.843	38.06
285.058	11.43
285.274	99.5
285.489	-35.67
285.704	50.35
285.919	-17.24
286.134	52.39
286.349	89.26
286.564	42.15
286.779	48.3
286.995	91.31
287.21	-9.05
287.425	72.87
287.64	-9.05
287.855	5.29
288.07	-0.85
288.285	93.35
288.5	3.24
288.715	72.87
288.93	-31.57
289.145	56.49
289.36	119.98
289.575	7.34
289.79	89.26
290.004	7.34
290.219	87.21
290.434	36.01
290.649	72.87
290.864	-25.43
291.079	-2.9
291.294	25.77
291.509	50.35
291.724	36.01
291.938	72.87
292.153	33.96
292.368	21.67
292.583	23.72
292.798	13.48
293.012	-0.85
293.227	56.49
293.442	107.69
293.657	119.98
293.871	95.4
294.086	19.63
294.301	103.59
294.516	113.83
294.73	33.96
294.945	-33.62
295.16	-17.24
295.374	17.58
295.589	91.31
295.804	-7
296.018	68.78
296.233	101.55
296.447	36.01
296.662	46.25
296.877	56.49
297.091	52.39
297.306	-9.05
297.52	56.49
297.735	64.68
297.949	-7
298.164	-4.95
298.378	40.11
298.593	54.44
298.807	23.72
299.022	36.01
299.236	66.73
299.451	48.3
299.665	-15.19
299.88	48.3
300.094	70.83
300.309	124.07
300.523	-2.9
300.737	-17.24
300.952	62.63
301.166	91.31
301.381	23.72
301.595	23.72
301.809	83.11
302.024	-4.95
302.238	13.48
302.452	33.96
302.667	25.77
302.881	89.26
303.095	33.96
303.309	66.73
303.524	-47.96
303.738	-33.62
303.952	-15.19
304.166	74.92
304.381	27.82
304.595	36.01
304.809	23.72
305.023	9.39
305.237	44.2
305.452	58.54
305.666	87.21
305.88	50.35
306.094	87.21
306.308	25.77
306.522	91.31
306.736	54.44
306.95	-9.05
307.164	50.35
307.379	25.77
307.593	64.68
307.807	130.22
308.021	107.69
308.235	111.78
308.449	3.24
308.663	50.35
308.877	152.74
309.091	52.39
309.305	93.35
309.519	-54.1
309.733	27.82
309.947	-62.29
310.161	23.72
310.374	70.83
310.588	66.73
310.802	33.96
311.016	13.48
311.23	9.39
311.444	52.39
311.658	-25.43
311.872	165.03
312.085	91.31
312.299	19.63
312.513	93.35
312.727	85.16
312.941	9.39
313.154	103.59
313.368	111.78
313.582	115.88
313.796	64.68
314.009	-23.38
314.223	130.22
314.437	113.83
314.651	79.02
314.864	42.15
315.078	7.34
315.292	-47.96
315.505	3.24
315.719	56.49
315.933	95.4
316.146	48.3
316.36	38.06
316.573	64.68
316.787	42.15
317.001	72.87
317.214	17.58
317.428	40.11
317.641	27.82
317.855	-39.76
318.068	27.82
318.282	9.39
318.495	144.55
318.709	60.59
318.922	38.06
319.136	62.63
319.349	72.87
319.563	56.49
319.776	48.3
319.99	56.49
320.203	-9.05
320.417	72.87
320.63	148.65
320.843	101.55
321.057	-2.9
321.27	74.92
321.483	144.55
321.697	36.01
321.91	72.87
322.124	54.44
322.337	17.58
322.55	31.91
322.763	31.91
322.977	-90.96
323.19	36.01
323.403	36.01
323.617	87.21
323.83	93.35
324.043	1.19
324.256	83.11
324.469	7.34
324.683	68.78
324.896	-21.33
325.109	-0.85
325.322	38.06
325.535	31.91
325.748	33.96
325.962	70.83
326.175	54.44
326.388	-15.19
326.601	68.78
326.814	29.87
327.027	64.68
327.24	138.41
327.453	-86.87
327.666	87.21
327.879	134.31
328.092	42.15
328.305	105.64
328.518	-2.9
328.731	52.39
328.944	11.43
329.157	54.44
329.37	19.63
329.583	160.94
329.796	93.35
330.009	9.39
330.222	13.48
330.435	70.83
330.648	-23.38
330.861	60.59
331.073	21.67
331.286	62.63
331.499	25.77
331.712	42.15
331.925	27.82
332.138	64.68
332.35	81.07
332.563	9.39
332.776	74.92
332.989	-56.15
333.202	31.91
333.414	17.58
333.627	91.31
333.84	56.49
334.053	46.25
334.265	52.39
334.478	-41.81
334.691	-7
334.903	-50
335.116	36.01
335.329	23.72
335.541	76.97
335.754	146.6
335.966	-11.09
336.179	23.72
336.392	-43.86
336.604	99.5
336.817	62.63
337.029	5.29
337.242	-17.24
337.454	85.16
337.667	72.87
337.88	99.5
338.092	60.59
338.305	33.96
338.517	-7
338.729	103.59
338.942	154.79
339.154	-29.52
339.367	27.82
339.579	126.12
339.792	1.19
340.004	107.69
340.217	27.82
340.429	101.55
340.641	-9.05
340.854	93.35
341.066	48.3
341.278	44.2
341.491	60.59
341.703	7.34
341.915	25.77
342.128	64.68
342.34	79.02
342.552	11.43
342.764	-29.52
342.977	83.11
343.189	113.83
343.401	25.77
343.613	27.82
343.826	101.55
344.038	33.96
344.25	50.35
344.462	36.01
344.674	-35.67
344.886	89.26
345.099	99.5
345.311	31.91
345.523	52.39
345.735	13.48
345.947	66.73
346.159	46.25
346.371	11.43
346.583	50.35
346.795	195.75
347.007	-60.24
347.219	105.64
347.431	23.72
347.643	185.51
347.855	13.48
348.067	68.78
348.279	68.78
348.491	33.96
348.703	72.87
348.915	79.02
349.127	40.11
349.339	68.78
349.551	-29.52
349.763	83.11
349.975	66.73
350.187	103.59
350.399	87.21
350.61	81.07
350.822	48.3
351.034	-0.85
351.246	54.44
351.458	44.2
351.669	-23.38
351.881	3.24
352.093	134.31
352.305	107.69
352.517	58.54
352.728	111.78
352.94	68.78
353.152	113.83
353.363	1.19
353.575	89.26
353.787	126.12
353.999	117.93
354.21	83.11
354.422	79.02
354.633	60.59
354.845	19.63
355.057	72.87
355.268	40.11
355.48	128.17
355.692	-27.48
355.903	56.49
356.115	44.2
356.326	-11.09
356.538	117.93
356.749	74.92
356.961	64.68
357.172	68.78
357.384	23.72
357.595	189.61
357.807	58.54
358.018	56.49
358.23	-15.19
358.441	105.64
358.653	72.87
358.864	87.21
359.075	50.35
359.287	21.67
359.498	113.83
359.709	54.44
359.921	7.34
360.132	44.2
360.344	33.96
360.555	33.96
360.766	27.82
360.977	38.06
361.189	152.74
361.4	95.4
361.611	142.5
361.823	79.02
362.034	50.35
362.245	-15.19
362.456	89.26
362.667	38.06
362.879	126.12
363.09	-4.95
363.301	36.01
363.512	140.46
363.723	46.25
363.935	-35.67
364.146	111.78
364.357	11.43
364.568	36.01
364.779	111.78
364.99	138.41
365.201	-17.24
365.412	72.87
365.623	27.82
365.834	23.72
366.045	29.87
366.256	70.83
366.467	42.15
366.678	29.87
366.889	52.39
367.1	40.11
367.311	85.16
367.522	15.53
367.733	64.68
367.944	44.2
368.155	79.02
368.366	152.74
368.577	85.16
368.788	42.15
368.999	13.48
369.209	-0.85
369.42	181.42
369.631	97.45
369.842	115.88
370.053	68.78
370.264	103.59
370.474	-17.24
370.685	72.87
370.896	50.35
371.107	56.49
371.317	83.11
371.528	15.53
371.739	60.59
371.95	101.55
372.16	64.68
372.371	1.19
372.582	44.2
372.792	64.68
373.003	33.96
373.214	60.59
373.424	72.87
373.635	3.24
373.846	115.88
374.056	60.59
374.267	27.82
374.477	40.11
374.688	25.77
374.898	68.78
375.109	70.83
375.319	7.34
375.53	33.96
375.74	52.39
375.951	72.87
376.161	68.78
376.372	81.07
376.582	66.73
376.793	128.17
377.003	-11.09
377.214	25.77
377.424	70.83
377.635	97.45
377.845	1.19
378.055	165.03
378.266	23.72
378.476	128.17
378.686	60.59
378.897	52.39
379.107	68.78
379.317	130.22
379.528	40.11
379.738	56.49
379.948	1.19
380.158	101.55
380.369	93.35
380.579	85.16
380.789	13.48
380.999	128.17
381.21	91.31
381.42	134.31
381.63	15.53
381.84	56.49
382.05	76.97
382.261	33.96
382.471	31.91
382.681	48.3
382.891	158.89
383.101	46.25
383.311	36.01
383.521	9.39
383.731	119.98
383.941	76.97
384.151	103.59
384.361	74.92
384.571	40.11
384.781	117.93
384.991	173.22
385.201	105.64
385.411	140.46
385.621	64.68
385.831	91.31
386.041	107.69
386.251	46.25
386.461	15.53
386.671	76.97
386.881	99.5
387.091	76.97
387.301	111.78
387.511	46.25
387.72	93.35
387.93	109.74
388.14	50.35
388.35	62.63
388.56	79.02
388.769	62.63
388.979	101.55
389.189	64.68
389.399	54.44
389.609	60.59
389.818	124.07
390.028	136.36
390.238	124.07
390.447	9.39
390.657	70.83
390.867	54.44
391.076	-13.14
391.286	91.31
391.496	74.92
391.705	72.87
391.915	138.41
392.125	89.26
392.334	38.06
392.544	138.41
392.753	89.26
392.963	33.96
393.172	33.96
393.382	68.78
393.591	132.26
393.801	29.87
394.01	91.31
394.22	76.97
394.429	46.25
394.639	60.59
394.848	76.97
395.058	87.21
395.267	111.78
395.477	117.93
395.686	103.59
395.895	160.94
396.105	212.14
396.314	93.35
396.524	52.39
396.733	56.49
396.942	158.89
397.152	191.66
397.361	181.42
397.57	89.26
397.78	146.6
397.989	81.07
398.198	271.53
398.407	148.65
398.617	99.5
398.826	87.21
399.035	140.46
399.244	165.03
399.453	68.78
399.663	146.6
399.872	138.41
400.081	93.35
400.29	189.61
400.499	27.82
400.708	132.26
400.917	85.16
401.127	87.21
401.336	132.26
401.545	195.75
401.754	173.22
401.963	81.07
402.172	152.74
402.381	146.6
402.59	165.03
402.799	105.64
403.008	138.41
403.217	142.5
403.426	177.32
403.635	91.31
403.844	140.46
404.053	89.26
404.262	169.13
404.471	228.52
404.68	181.42
404.888	218.28
405.097	208.04
405.306	251.05
405.515	193.7
405.724	99.5
405.933	181.42
406.142	212.14
406.35	246.95
406.559	216.23
406.768	173.22
406.977	261.29
407.185	246.95
407.394	304.29
407.603	203.94
407.812	269.48
408.02	427.17
408.229	251.05
408.438	294.05
408.646	210.09
408.855	324.77
409.064	296.1
409.272	240.81
409.481	302.25
409.69	271.53
409.898	236.71
410.107	351.4
410.315	425.12
410.524	279.72
410.733	322.73
410.941	345.25
411.15	482.47
411.358	402.6
411.567	513.19
411.775	402.6
411.984	445.6
412.192	562.34
412.401	494.76
412.609	617.63
412.818	545.95
413.026	552.1
413.234	552.1
413.443	556.19
413.651	664.74
413.86	625.83
414.068	650.4
414.276	701.6
414.485	681.12
414.693	742.56
414.901	849.05
415.11	799.9
415.318	695.46
415.526	822.43
415.734	861.34
415.943	939.16
416.151	920.73
416.359	840.86
416.567	963.74
416.776	922.78
416.984	957.6
417.192	1066.14
417.4	1160.34
417.608	1059.99
417.817	1047.71
418.025	1193.11
418.233	1373.33
418.441	1250.46
418.649	1299.61
418.857	1459.35
419.065	1418.39
419.273	1320.09
419.481	1498.26
419.689	1651.86
419.897	1549.46
420.105	1608.85
420.313	1682.58
420.521	1784.98
420.729	1860.75
420.937	1864.85
421.145	1944.72
421.353	2073.74
421.561	2204.81
421.769	2266.25
421.977	2198.67
422.185	2301.06
422.393	2301.06
422.601	2509.96
422.809	2460.81
423.017	2589.83
423.224	2618.5
423.432	2704.51
423.64	2778.24
423.848	2942.08
424.056	2794.62
424.263	3026.04
424.471	3005.56
424.679	3105.92
424.887	3327.1
425.094	3300.47
425.302	3357.82
425.51	3503.22
425.718	3646.58
425.925	3689.59
426.133	3724.4
426.341	4072.56
426.548	4203.63
426.756	4242.54
426.964	4263.02
427.171	4543.59
427.379	4611.17
427.586	4662.37
427.794	4744.29
428.001	5190.75
428.209	5205.08
428.417	5094.49
428.624	5616.72
428.832	5463.13
429.039	5532.76
429.247	5448.79
429.454	6169.68
429.662	6454.34
429.869	5852.24
430.076	6360.14
430.284	6153.29
430.491	6550.6
430.699	6798.4
430.906	6759.49
431.114	6870.08
431.321	7162.94
431.528	7404.6
431.736	7758.9
431.943	8066.1
432.15	7828.53
432.358	7797.81
432.565	8365.1
432.772	8123.44
432.979	8737.83
433.187	8987.68
433.394	8766.5
433.601	9352.22
433.808	9503.77
434.016	9430.04
434.223	9761.81
434.43	10368.01
434.637	10214.41
434.844	10513.42
435.052	11060.23
435.259	10888.2
435.466	10972.16
435.673	10900.48
435.88	11748.34
436.087	12243.95
436.294	12434.41
436.501	11971.57
436.708	12119.03
436.915	12542.96
437.122	13382.62
437.329	13083.62
437.537	13521.88
437.743	13661.15
437.95	13552.6
438.157	14316.5
438.364	14687.18
438.571	14861.26
438.778	14676.94
438.985	16075.7
439.192	15332.29
439.399	16008.12
439.606	15547.33
439.813	16579.5
440.02	17347.49
440.227	17243.04
440.433	17099.69
440.64	17746.84
440.847	17314.72
441.054	18150.29
441.261	19096.46
441.467	18746.25
441.674	19078.02
441.881	19796.86
442.088	19563.39
442.294	19608.45
442.501	20239.22
442.708	20181.88
442.914	21181.29
443.121	22205.27
443.328	21629.79
443.534	22563.67
443.741	22264.66
443.948	21875.55
444.154	23737.15
444.361	23452.48
444.568	23698.24
444.774	23726.91
444.981	23653.19
445.187	24630.07
445.394	25502.5
445.6	25033.52
445.807	27429.64
446.013	26372.89
446.22	27040.53
446.426	27687.68
446.633	28285.69
446.839	29119.21
447.046	27982.59
447.252	29485.8
447.459	29532.9
447.665	29434.6
447.871	30538.46
448.078	31873.73
448.284	30188.25
448.491	31126.22
448.697	32740.02
448.903	32848.57
449.11	33270.45
449.316	32316.09
449.522	32858.81
449.728	33710.76
449.935	34091.68
450.141	33981.09
450.347	34869.91
450.553	33974.95
450.76	34183.84
450.966	35037.84
451.172	34603.67
451.378	35728.01
451.584	34884.25
451.791	35601.04
451.997	35328.66
452.203	36108.93
452.409	36242.05
452.615	36248.19
452.821	34413.21
453.027	34325.15
453.233	35986.05
453.44	34552.48
453.646	34869.91
453.852	35007.12
454.058	35668.62
454.264	34396.83
454.47	35322.51
454.676	33985.19
454.882	35152.53
455.088	32123.58
455.294	32635.58
455.5	33266.35
455.705	33405.61
455.911	31961.79
456.117	31349.45
456.323	30939.86
456.529	29641.45
456.735	30876.37
456.941	29657.83
457.147	29334.25
457.352	28328.7
457.558	28224.25
457.764	28637.94
457.97	27585.29
458.176	26946.32
458.381	26895.12
458.587	25420.58
458.793	25899.81
458.999	24017.72
459.204	25942.81
459.41	25027.37
459.616	23771.97
459.821	23714.62
460.027	23315.27
460.233	22588.24
460.438	21713.76
460.644	22209.37
460.85	20994.92
461.055	20773.74
461.261	20650.86
461.466	18826.12
461.672	18324.37
461.878	19573.63
462.083	18527.12
462.289	18129.81
462.494	17847.19
462.7	17132.45
462.905	16505.77
463.111	17167.27
463.316	17267.62
463.522	16583.6
463.727	16894.89
463.932	16909.22
464.138	16485.3
464.343	16669.61
464.549	16133.04
464.754	16663.47
464.959	16485.3
465.165	16329.65
465.37	15655.87
465.575	14977.99
465.781	15770.55
465.986	15934.39
466.191	15207.36
466.397	14939.08
466.602	14146.51
466.807	14646.22
467.012	14586.83
467.218	14732.23
467.423	14515.15
467.628	14537.68
467.833	14916.55
468.038	14445.52
468.244	14107.6
468.449	14595.02
468.654	14220.24
468.859	14070.74
469.064	14089.17
469.269	13468.64
469.474	13413.34
469.679	13755.35
469.885	13216.74
470.09	13503.45
470.295	13554.65
470.5	13235.17
470.705	13171.68
470.91	12780.52
471.115	12809.19
471.32	12825.57
471.525	12846.05
471.73	12682.22
471.935	12545
472.139	12069.87
472.344	12436.46
472.549	12108.79
472.754	12090.35
472.959	11783.16
473.164	11359.23
473.369	11516.92
473.574	11684.86
473.778	11504.64
473.983	11500.54
474.188	11584.51
474.393	10777.61
474.598	10894.34
474.802	10816.52
475.007	10822.66
475.212	10626.06
475.417	10353.68
475.621	10417.16
475.826	10550.28
476.031	10062.87
476.235	9890.84
476.44	10243.09
476.645	9974.8
476.849	9931.8
477.054	9698.33
477.259	9591.83
477.463	9481.24
477.668	9356.32
477.872	9384.99
478.077	9331.74
478.282	8981.54
478.486	9141.28
478.691	8901.67
478.895	8928.29
479.1	8922.15
479.304	8891.43
479.509	8490.03
479.713	8909.86
479.918	8500.26
480.122	8571.94
480.326	8434.73
480.531	8410.15
480.735	8397.87
480.94	8240.17
481.144	8567.85
481.348	7982.13
481.553	8270.89
481.757	8016.94
481.961	8320.04
482.166	8164.4
482.37	8195.12
482.574	7932.98
482.778	8176.69
482.983	8197.17
483.187	8242.22
483.391	8309.8
483.595	7902.26
483.8	8154.16
484.004	8021.04
484.208	7957.55
484.412	8184.88
484.616	8109.1
484.821	8150.06
485.025	7697.46
485.229	7873.59
485.433	8027.18
485.637	8051.76
485.841	7879.73
486.045	7937.07
486.249	8166.45
486.453	7912.5
486.657	7887.92
486.861	8078.38
487.065	7795.76
487.269	7986.22
487.473	7787.57
487.677	7873.59
487.881	8004.66
488.085	8000.56
488.289	8135.73
488.493	7990.32
488.697	8225.84
488.901	8025.14
489.105	7947.31
489.309	7988.27
489.512	8064.05
489.716	8062
489.92	8041.52
490.124	8168.49
490.328	8291.37
490.531	8098.86
490.735	8236.08
490.939	8100.91
491.143	8289.32
491.346	8348.72
491.55	8289.32
491.754	8215.6
491.958	8270.89
492.161	8315.95
492.365	8342.57
492.569	8451.11
492.772	8387.63
492.976	8535.08
493.18	8528.94
493.383	8473.64
493.587	8598.57
493.79	8629.29
493.994	8668.2
494.197	8528.94
494.401	8942.63
494.605	8823.84
494.808	8940.58
495.012	8743.97
495.215	8879.14
495.419	9075.74
495.622	8948.77
495.825	9174.05
496.029	9049.12
496.232	9378.84
496.436	9180.19
496.639	9720.85
496.843	9473.05
497.046	9591.83
497.249	9569.3
497.453	9835.54
497.656	9856.02
497.859	9817.11
498.063	10054.67
498.266	10195.98
498.469	9802.77
498.673	10222.61
498.876	10316.81
499.079	10486.79
499.282	10546.19
499.485	10830.85
499.689	10734.6
499.892	10959.88
500.095	10910.72
500.298	11043.84
500.501	11074.56
500.705	11496.44
500.908	11453.44
501.111	11582.46
501.314	11471.87
501.517	11766.78
501.72	11721.72
501.923	11977.72
502.126	12057.59
502.329	12237.81
502.532	12159.99
502.735	12571.63
502.938	12633.07
503.141	12815.34
503.344	12788.71
503.547	12835.81
503.75	13093.86
503.953	13421.53
504.156	13468.64
504.359	13597.66
504.562	13534.17
504.765	13814.74
504.968	13921.24
505.17	14384.08
505.373	14033.88
505.576	14539.72
505.779	14425.04
505.982	14511.05
506.185	14746.57
506.387	15115.2
506.59	15195.07
506.793	15182.79
506.996	15479.74
507.198	15907.77
507.401	15721.4
507.604	15700.92
507.807	16087.99
508.009	16294.83
508.212	16466.86
508.415	16638.89
508.617	16665.52
508.82	16737.2
509.022	16774.06
509.225	17075.11
509.428	17378.21
509.63	17413.02
509.833	17220.52
510.035	17763.23
510.238	17757.08
510.44	18164.63
510.643	18353.04
510.845	18310.04
511.048	18146.2
511.25	18738.06
511.453	18957.19
511.655	19012.49
511.858	18994.06
512.06	19231.62
512.262	19424.13
512.465	19491.71
512.667	19532.67
512.87	20020.09
513.072	19989.37
513.274	20503.41
513.477	20478.83
513.679	20738.93
513.881	20700.01
514.084	20923.24
514.286	21173.1
514.488	21283.69
514.69	21468
514.893	21807.97
515.095	21576.55
515.297	21947.23
515.499	21775.2
515.701	22201.18
515.904	22573.91
516.106	22649.68
516.308	22895.44
516.51	22864.72
516.712	22799.18
516.914	23200.58
517.116	23472.96
517.318	23243.59
517.52	23651.14
517.722	23460.68
517.925	24075.07
518.127	24372.02
518.329	24501.04
518.531	24394.55
518.733	24892.21
518.935	24838.96
519.136	24791.86
519.338	25166.63
519.54	25387.82
519.742	25344.81
519.944	25609
520.146	26030.88
520.348	25944.86
520.55	26135.32
520.752	25756.45
520.954	26968.85
521.155	26557.21
521.357	26749.71
521.559	26866.45
521.761	27011.85
521.963	27331.34
522.164	27011.85
522.366	27263.75
522.568	27714.31
522.77	27687.68
522.971	27994.88
523.173	27456.26
523.375	27968.26
523.576	28093.18
523.778	28160.76
523.98	28377.85
524.181	28482.3
524.383	28654.33
524.584	28842.74
524.786	28887.79
524.988	28568.31
525.189	29207.28
525.391	28982
525.592	29137.65
525.794	29311.72
525.995	29397.74
526.197	29414.12
526.398	29252.33
526.6	29547.24
526.801	29416.17
527.003	29737.7
527.204	29424.36
527.406	30096.1
527.607	29833.96
527.808	30225.12
528.01	29780.71
528.211	29891.3
528.412	30745.3
528.614	29973.22
528.815	30003.94
529.016	30282.46
529.218	30477.02
529.419	30343.9
529.62	30411.48
529.822	30370.52
530.023	30198.49
530.224	30399.19
530.425	30229.21
530.626	30046.94
530.828	30302.94
531.029	30651.09
531.23	30425.82
531.431	30380.76
531.632	30497.5
531.833	30784.21
532.035	30386.91
532.236	30829.27
532.437	30726.87
532.638	30124.77
532.839	30642.9
533.04	30722.77
533.241	30321.37
533.442	30888.66
533.643	30595.8
533.844	30513.88
534.045	30745.3
534.246	30429.91
534.447	30589.66
534.648	30462.68
534.849	30718.68
535.05	30429.91
535.251	30739.16
535.451	30661.33
535.652	30616.28
535.853	30182.11
536.054	30870.23
536.255	30626.52
536.456	30255.84
536.657	30782.16
536.857	30515.93
537.058	30393.05
537.259	30675.67
537.46	30286.56
537.66	30497.5
537.861	30694.1
538.062	30153.44
538.263	30636.76
538.463	30382.81
538.664	30223.07
538.865	30735.06
539.065	30442.2
539.266	29903.59
539.466	31032.02
539.667	30255.84
539.868	30986.96
540.068	30266.08
540.269	30511.83
540.469	30448.35
540.67	30388.95
540.87	30206.69
541.071	29954.79
541.271	30448.35
541.472	30661.33
541.672	30370.52
541.873	29954.79
542.073	29608.68
542.274	30286.56
542.474	30251.74
542.675	29620.97
542.875	30513.88
543.075	30079.71
543.276	29946.59
543.476	30538.46
543.676	29729.51
543.877	30241.5
544.077	30167.77
544.277	29942.5
544.478	30003.94
544.678	30278.36
544.878	30003.94
545.078	30081.76
545.279	29694.69
545.479	29838.05
545.679	30092
545.879	29754.08
546.079	29860.58
546.28	29625.06
546.48	29561.58
546.68	29756.13
546.88	30030.56
547.08	30040.8
547.28	29962.98
547.48	29555.43
547.68	29735.65
547.88	29627.11
548.081	29973.22
548.281	29893.35
548.481	29893.35
548.681	29739.75
548.881	30106.34
549.081	29698.79
549.28	29661.93
549.48	29889.25
549.68	29799.14
549.88	30044.9
550.08	29522.66
550.28	29688.55
550.48	29713.13
550.68	30073.57
550.88	29897.44
551.08	29717.22
551.279	29823.72
551.479	29238
551.679	29741.8
551.879	29450.99
552.079	29487.85
552.278	29381.35
552.478	29729.51
552.678	29610.73
552.878	29608.68
553.077	29608.68
553.277	29164.27
553.477	29541.1
553.676	29532.9
553.876	29426.41
554.076	29364.97
554.275	29416.17
554.475	29106.93
554.674	29354.73
554.874	29682.41
555.074	29432.55
555.273	29551.34
555.473	29682.41
555.672	29416.17
555.872	29448.94
556.071	29104.88
556.271	29872.87
556.47	29516.52
556.67	29117.17
556.869	29311.72
557.068	29264.62
557.268	29432.55
557.467	29215.47
557.667	29121.26
557.866	29059.82
558.065	29098.73
558.265	29145.84
558.464	29264.62
558.663	29641.45
558.863	29117.17
559.062	29354.73
559.261	28891.89
559.461	29510.38
559.66	29033.2
559.859	29465.32
560.058	29135.6
560.258	29086.45
560.457	28834.55
560.656	29422.31
560.855	28807.92
561.054	29143.79
561.253	28867.31
561.453	29350.63
561.652	29182.7
561.851	29166.32
562.05	29039.34
562.249	28791.54
562.448	29115.12
562.647	28832.5
562.846	28938.99
563.045	29106.93
563.244	28652.28
563.443	29072.11
563.642	28701.43
563.841	29121.26
564.04	28654.33
564.239	28754.68
564.438	28455.67
564.637	28470.01
564.836	28764.92
565.035	28418.81
565.234	28580.6
565.432	28338.94
565.631	28814.07
565.83	28734.2
566.029	28287.74
566.228	28470.01
566.427	28513.02
566.625	28683
566.824	28336.89
567.023	28355.32
567.222	28316.41
567.42	28642.04
567.619	28494.58
567.818	28209.92
568.016	28580.6
568.215	28431.1
568.414	28322.55
568.612	28371.71
568.811	28484.34
569.01	28246.78
569.208	28295.93
569.407	28433.14
569.605	27753.22
569.804	28271.36
570.002	28199.68
570.201	28168.96
570.4	28099.33
570.598	28136.19
570.797	27849.47
570.995	28078.85
571.193	27568.9
571.392	28035.84
571.59	27851.52
571.789	28056.32
571.987	27581.19
572.186	27933.44
572.384	27826.95
572.582	27767.55
572.781	27673.35
572.979	27693.83
573.177	28037.89
573.376	27564.81
573.574	27491.08
573.772	27599.62
573.971	27261.71
574.169	27511.56
574.367	27417.35
574.565	27435.78
574.763	27529.99
574.962	27558.66
575.16	27247.37
575.358	27425.54
575.556	27003.66
575.754	27484.94
575.952	27190.03
576.151	27511.56
576.349	27351.82
576.547	27042.57
576.745	27343.63
576.943	27130.64
577.141	27122.44
577.339	26923.79
577.537	26956.56
577.735	27063.05
577.933	26639.12
578.131	27108.11
578.329	26925.84
578.527	26862.35
578.725	27034.38
578.923	26835.73
579.121	26798.87
579.319	26886.93
579.516	26749.71
579.714	26811.15
579.912	26618.64
580.11	26641.17
580.308	26645.27
580.506	26616.6
580.704	26628.88
580.901	26569.49
581.099	26729.23
581.297	26409.75
581.495	26364.7
581.692	26440.47
581.89	26534.68
582.088	26379.03
582.285	26225.43
582.483	26213.15
582.681	26327.83
582.878	26182.43
583.076	26297.11
583.274	26479.38
583.471	25998.11
583.669	26077.98
583.866	25832.22
584.064	26149.66
584.262	25813.79
584.459	26387.22
584.657	25791.27
584.854	26458.9
585.052	25576.23
585.249	26336.02
585.447	25873.18
585.644	25635.62
585.841	25957.15
586.039	25953.05
586.236	25631.52
586.434	25570.08
586.631	25733.92
586.828	25953.05
587.026	25793.31
587.223	25443.11
587.42	25832.22
587.618	25838.37
587.815	25029.42
588.012	25209.64
588.21	25645.86
588.407	25674.53
588.604	25418.53
588.801	25330.47
588.999	25561.89
589.196	25252.65
589.393	25287.46
589.59	25322.28
589.787	25123.63
589.984	25174.83
590.182	24892.21
590.379	25215.79
590.576	24877.87
590.773	25080.62
590.97	24931.12
591.167	25289.51
591.364	24785.71
591.561	25197.35
591.758	24896.3
591.955	25094.96
592.152	25338.66
592.349	24818.48
592.546	25273.13
592.743	25041.71
592.94	25072.43
593.137	24963.89
593.334	25031.47
593.531	24888.11
593.727	25101.1
593.924	25103.15
594.121	24619.83
594.318	25244.46
594.515	24630.07
594.712	24812.34
594.908	24750.9
595.105	24931.12
595.302	24638.26
595.499	24935.21
595.696	24914.73
595.892	24636.21
596.089	24900.4
596.286	24927.02
596.482	24798
596.679	24542
596.876	24777.52
597.072	24367.93
597.269	24750.9
597.466	24558.39
597.662	24509.24
597.859	24681.27
598.055	24775.47
598.252	24531.76
598.448	24542
598.645	24802.1
598.841	24349.5
599.038	24924.97
599.234	24769.33
599.431	24560.44
599.627	24611.64
599.824	24834.86
600.02	24535.86
600.217	24748.85
600.413	24722.23
600.609	24793.9
600.806	24744.75
601.002	25158.44
601.198	24466.23
601.395	24703.79
601.591	24767.28
601.787	24552.24
601.984	24402.74
602.18	24824.62
602.376	24781.62
602.572	24566.58
602.769	24740.66
602.965	24754.99
603.161	24783.66
603.357	24906.54
603.553	24816.43
603.75	24806.19
603.946	24466.23
604.142	25164.59
604.338	24601.4
604.534	24955.69
604.73	24787.76
604.926	24824.62
605.122	24832.82
605.318	24996.65
605.514	24664.88
605.71	24808.24
605.906	25000.75
606.102	25430.82
606.298	24998.7
606.494	24859.44
606.69	25236.27
606.886	25420.58
607.082	25023.28
607.278	25201.45
607.474	24906.54
607.67	25545.51
607.866	24965.93
608.062	25588.52
608.257	25144.11
608.453	25223.98
608.649	25635.62
608.845	25246.51
609.041	25430.82
609.236	25516.84
609.432	25539.36
609.628	25799.46
609.824	25533.22
610.019	25602.85
610.215	25525.03
610.411	25740.07
610.606	25809.7
610.802	25969.44
610.998	25645.86
611.193	25938.72
611.389	26098.46
611.584	25721.63
611.78	25928.48
611.976	26338.07
612.171	26256.15
612.367	26014.49
612.562	26174.24
612.758	25981.73
612.953	26006.3
613.149	26571.54
613.344	25852.7
613.539	26549.01
613.735	26372.89
613.93	26704.66
614.126	26438.42
614.321	26903.31
614.517	26714.9
614.712	26628.88
614.907	26456.85
615.103	26944.27
615.298	26616.6
615.493	26921.74
615.688	26503.96
615.884	27013.9
616.079	26295.07
616.274	26860.3
616.47	26925.84
616.665	27249.42
616.86	27136.78
617.055	26784.53
617.25	26811.15
617.445	27208.46
617.641	26735.38
617.836	27185.93
618.031	26829.59
618.226	27302.67
618.421	26794.77
618.616	27175.69
618.811	26858.26
619.006	27632.39
619.201	27050.77
619.396	27104.01
619.591	26692.37
619.786	27214.6
619.981	26747.67
620.176	27083.53
620.371	26671.89
620.566	26893.07
620.761	26675.99
620.956	26893.07
621.151	26635.03
621.346	26852.11
621.541	26872.59
621.735	27075.34
621.93	26342.17
622.125	26807.06
622.32	26221.34
622.515	26428.18
622.709	26399.51
622.904	26370.84
623.099	26198.81
623.294	26520.34
623.488	26086.17
623.683	26319.64
623.878	25633.57
624.072	26090.27
624.267	26055.45
624.462	25975.58
624.656	25869.09
624.851	25864.99
625.046	25711.39
625.24	25717.54
625.435	25451.3
625.629	25209.64
625.824	25178.92
626.018	25492.26
626.213	24787.76
626.407	25428.77
626.602	25021.23
626.796	25068.33
626.991	25064.24
627.185	24857.39
627.38	24904.49
627.574	24879.92
627.768	24693.55
627.963	24511.28
628.157	24447.8
628.352	24499
628.546	24167.23
628.74	24531.76
628.935	24183.61
629.129	24281.91
629.323	24081.21
629.517	24066.88
629.712	23890.75
629.906	23933.76
630.1	23468.87
630.294	23778.11
630.489	23735.1
630.683	23931.71
630.877	23233.35
631.071	23429.96
631.265	23386.95
631.459	23327.56
631.653	23173.96
631.848	23006.03
632.042	23020.36
632.236	23139.15
632.43	22688.59
632.624	22930.25
632.818	22842.19
633.012	22756.18
633.206	22532.95
633.4	22707.02
633.594	22055.77
633.788	22430.55
633.982	22426.45
634.176	22242.14
634.369	21992.28
634.563	21904.22
634.757	21916.51
634.951	22033.24
635.145	21775.2
635.339	21584.74
635.533	21701.47
635.726	21357.41
635.92	21246.82
636.114	21537.63
636.308	21287.78
636.501	21234.53
636.695	21119.85
636.889	20767.6
637.083	20824.94
637.276	20378.48
637.47	20783.98
637.664	20591.47
637.857	20480.88
638.051	20304.76
638.244	20515.7
638.438	20372.34
638.632	19909.5
638.825	20081.53
639.019	20167.54
639.212	19952.51
639.406	19837.82
639.599	19542.91
639.793	19661.69
639.986	19336.07
640.18	19399.55
640.373	19338.12
640.567	19082.12
640.76	19125.13
640.954	18987.91
641.147	18871.18
641.34	18693.01
641.534	18834.32
641.727	18719.63
641.92	18766.73
642.114	18570.13
642.307	18484.11
642.5	18502.54
642.694	17941.4
642.887	18144.15
643.08	18178.97
643.273	17992.6
643.467	17785.76
643.66	17593.25
643.853	17468.32
644.046	17228.71
644.239	17415.07
644.432	17345.44
644.626	17456.03
644.819	16964.52
645.012	17081.25
645.205	17017.77
645.398	17157.03
645.591	16923.56
645.784	16735.15
645.977	16800.68
646.17	16608.17
646.363	16366.51
646.556	16239.54
646.749	16061.37
646.942	16417.71
647.135	16141.24
647.328	16098.23
647.521	15932.34
647.714	15643.58
647.907	15586.24
648.099	15838.14
648.292	15662.01
648.485	15547.33
648.678	15201.22
648.871	15262.66
649.064	15172.55
649.256	15369.15
649.449	15127.49
649.642	14805.96
649.835	14697.42
650.027	15051.72
650.22	14697.42
650.413	14771.15
650.605	14412.75
650.798	14457.81
650.991	14232.53
651.183	14291.92
651.376	14144.47
651.568	14377.94
651.761	14007.25
651.954	14123.99
652.146	14078.93
652.339	13839.32
652.531	13904.85
652.724	13534.17
652.916	13624.28
653.109	13431.77
653.301	13667.29
653.494	13405.15
653.686	13097.95
653.879	13349.85
654.071	13077.48
654.263	13198.31
654.456	13124.58
654.648	13091.81
654.84	12813.29
655.033	12694.5
655.225	12968.93
655.417	12473.32
655.61	12749.8
655.802	12522.48
655.994	12289.01
656.186	12448.75
656.379	12319.73
656.571	12356.59
656.763	12119.03
656.955	12086.26
657.148	11994.1
657.34	12026.87
657.532	11779.06
657.724	11842.55
657.916	11762.68
658.108	11674.62
658.3	11439.1
658.492	11557.88
658.684	11383.8
658.876	11275.26
659.068	11377.66
659.26	11217.92
659.452	11101.19
659.644	11017.22
659.836	10945.54
660.028	10996.74
660.22	10755.08
660.412	10869.76
660.604	10810.37
660.796	10578.95
660.988	10570.76
661.18	10583.05
661.372	10550.28
661.563	10695.69
661.755	10251.28
661.947	10177.55
662.139	10325.01
662.331	9958.42
662.522	9872.4
662.714	9915.41
662.906	9968.66
663.097	9743.38
663.289	9737.24
663.481	9788.44
663.673	9720.85
663.864	9567.26
664.056	9514.01
664.247	9608.22
664.439	9372.7
664.631	9427.99
664.822	9174.05
665.014	9217.05
665.205	9276.45
665.397	9147.42
665.588	9196.57
665.78	8889.38
665.971	9034.78
666.163	9063.46
666.354	9114.66
666.546	8956.96
666.737	8799.27
666.929	8721.45
667.12	8733.73
667.311	8698.92
667.503	8549.42
667.694	8725.54
667.885	8469.55
668.077	8545.32
668.268	8418.35
668.459	8277.04
668.651	8242.22
668.842	8297.52
669.033	8162.35
669.224	8070.19
669.416	8219.69
669.607	8041.52
669.798	8139.82
669.989	8184.88
670.18	7832.63
670.371	7916.59
670.563	7924.79
670.754	7863.35
670.945	7793.72
671.136	7849.01
671.327	7826.48
671.518	7734.32
671.709	7668.79
671.9	7627.83
672.091	7679.03
672.282	7554.1
672.473	7593.01
672.664	7582.77
672.855	7308.35
673.046	7459.9
673.237	7539.77
673.428	7357.5
673.619	7420.99
673.809	7332.92
674	7445.56
674.191	7375.93
674.382	7185.47
674.573	7281.72
674.764	7101.5
674.954	7140.41
675.145	7167.04
675.336	7048.26
675.527	7025.73
675.717	7097.41
675.908	6990.91
676.099	7054.4
676.289	7162.94
676.48	6896.71
676.671	6833.22
676.861	7081.02
677.052	6761.54
677.243	6906.95
677.433	6739.01
677.624	6894.66
677.814	6720.58
678.005	6622.28
678.195	6911.04
678.386	6765.64
678.576	6638.66
678.767	6804.55
678.957	6624.33
679.148	6665.28
679.338	6622.28
679.529	6669.38
679.719	6562.89
679.909	6601.8
680.1	6589.51
680.29	6554.69
680.481	6507.59
680.671	6419.53
680.861	6642.76
681.052	6618.18
681.242	6325.32
681.432	6724.68
681.622	6415.43
681.813	6491.21
682.003	6435.91
682.193	6489.16
682.383	6452.3
682.573	6542.41
682.764	6440.01
682.954	6431.82
683.144	6476.87
683.334	6351.95
683.524	6095.95
683.714	6278.22
683.904	6397
684.094	6276.17
684.284	6503.5
684.474	6558.79
684.664	6337.61
684.854	6315.08
685.044	6192.2
685.234	6067.28
685.424	6177.87
685.614	6278.22
685.804	6128.72
685.994	6253.64
686.184	6235.21
686.374	6257.74
686.564	6075.47
686.753	6278.22
686.943	6009.93
687.133	6145.1
687.323	6085.71
687.513	6095.95
687.702	6263.88
687.892	6079.57
688.082	5979.22
688.272	6030.41
688.461	6036.56
688.651	5950.54
688.841	5936.21
689.03	5938.26
689.22	5889.1
689.41	5956.69
689.599	5876.82
689.789	5997.65
689.979	5925.97
690.168	6014.03
690.358	5788.75
690.547	5971.02
690.737	5751.89
690.926	5878.86
691.116	5792.85
691.305	6077.52
691.495	5803.09
691.684	5708.88
691.874	5848.15
692.063	5928.02
692.252	5725.27
692.442	5827.67
692.631	5678.16
692.82	5612.63
693.01	5712.98
693.199	5637.2
693.388	5657.68
693.578	5739.6
693.767	5665.88
693.956	5708.88
694.146	5690.45
694.335	5758.03
694.524	5762.13
694.713	5551.19
694.902	5663.83
695.092	5819.47
695.281	5600.34
695.47	5678.16
695.659	5454.94
695.848	5659.73
696.037	5534.81
696.226	5686.36
696.415	5536.85
696.604	5676.12
696.793	5702.74
696.982	5510.23
697.171	5653.59
697.36	5833.81
697.549	5567.57
697.738	5551.19
697.927	5672.02
698.116	5637.2
698.305	5545.05
698.494	5727.32
698.683	5387.35
698.872	5739.6
699.061	5502.04
699.25	5645.4
699.438	5649.49
699.627	5391.45
699.816	5737.56
700.005	5502.04
700.193	5629.01
700.382	5643.35
700.571	5581.91
700.76	5602.39
700.948	5690.45
701.137	5526.61
701.326	5487.7
701.514	5588.05
701.703	5530.71
701.892	5614.68
702.08	5596.25
702.269	5442.65
702.457	5502.04
702.646	5573.72
702.834	5518.42
703.023	5497.94
703.212	5553.24
703.4	5411.93
703.589	5295.19
703.777	5583.96
703.965	5413.98
704.154	5434.46
704.342	5442.65
704.531	5553.24
704.719	5463.13
704.907	5440.6
705.096	5280.86
705.284	5334.11
705.472	5518.42
705.661	5526.61
705.849	5366.87
706.037	5370.97
706.226	5291.1
706.414	5504.09
706.602	5272.67
706.79	5360.73
706.979	5332.06
707.167	5426.26
707.355	5170.27
707.543	5338.2
707.731	5454.94
707.919	5207.13
708.107	5166.17
708.296	5160.03
708.484	5086.3
708.672	5338.2
708.86	5268.57
709.048	5184.6
709.236	5246.04
709.424	5309.53
709.612	5323.87
709.8	5151.84
709.988	5143.64
710.176	5264.47
710.364	5219.42
710.551	5090.4
710.739	5291.1
710.927	5213.28
711.115	5289.05
711.303	5119.07
711.491	5094.49
711.679	5061.73
711.866	5065.82
712.054	5198.94
712.242	5063.77
712.43	5067.87
712.617	5094.49
712.805	5045.34
712.993	5082.21
713.181	5039.2
713.368	4922.46
713.556	5090.4
713.744	4748.39
713.931	5096.54
714.119	5141.6
714.306	5114.97
714.494	5065.82
714.682	5014.62
714.869	5043.29
715.057	4901.98
715.244	4848.74
715.432	4858.98
715.619	4879.46
715.807	4912.22
715.994	4895.84
716.182	4772.96
716.369	4742.24
716.556	5004.38
716.744	4740.19
716.931	4820.07
717.119	4879.46
717.306	4889.7
717.493	4758.63
717.681	4756.58
717.868	4732
718.055	4768.87
718.242	4760.67
718.43	4629.6
718.617	4719.71
718.804	4674.66
718.991	4676.71
719.179	4648.04
719.366	4582.5
719.553	4572.26
719.74	4650.08
719.927	4516.97
720.114	4670.56
720.301	4564.07
720.488	4523.11
720.676	4562.02
720.863	4365.42
721.05	4576.36
721.237	4471.91
721.424	4596.84
721.611	4400.23
721.798	4459.62
721.985	4471.91
722.172	4504.68
722.358	4453.48
722.545	4430.95
722.732	4572.26
722.919	4338.79
723.106	4457.57
723.293	4336.74
723.48	4398.18
723.667	4369.51
723.853	4197.48
724.04	4500.58
724.227	4381.8
724.414	4336.74
724.6	4346.98
724.787	4471.91
724.974	4437.09
725.161	4312.17
725.347	4228.2
725.534	4420.71
725.72	4263.02
725.907	4166.76
726.094	4275.31
726.28	4283.5
726.467	4185.19
726.653	4160.62
726.84	4295.79
727.027	4285.55
727.213	3892.34
727.4	4174.95
727.586	4164.72
727.773	4099.18
727.959	4156.52
728.145	3968.11
728.332	4117.61
728.518	4074.6
728.705	3986.54
728.891	4123.76
729.077	4109.42
729.264	3939.44
729.45	3978.35
729.636	4078.7
729.823	4033.65
730.009	4084.84
730.195	3996.78
730.382	4058.22
730.568	3898.48
730.754	3906.67
730.94	3902.58
731.126	4056.17
731.313	3931.25
731.499	3918.96
731.685	3894.38
731.871	3896.43
732.057	3871.86
732.243	3826.8
732.429	3902.58
732.615	3865.71
732.801	3843.18
732.987	3810.42
733.173	3820.66
733.359	3814.51
733.545	3775.6
733.731	3912.81
733.917	3806.32
734.103	3769.46
734.289	3791.98
734.475	3708.02
734.661	3648.63
734.847	3808.37
735.033	3650.67
735.219	3667.06
735.404	3437.69
735.59	3650.67
735.776	3687.54
735.962	3789.94
736.148	3624.05
736.333	3791.98
736.519	3685.49
736.705	3568.76
736.89	3564.66
737.076	3665.01
737.262	3447.93
737.447	3572.85
737.633	3595.38
737.819	3656.82
738.004	3626.1
738.19	3595.38
738.375	3417.21
738.561	3572.85
738.747	3511.41
738.932	3435.64
739.118	3347.58
739.303	3423.35
739.489	3429.49
739.674	3282.04
739.859	3339.38
740.045	3409.01
740.23	3224.7
740.416	3118.2
740.601	3480.69
740.786	3224.7
740.972	3253.37
741.157	3206.27
741.342	3200.12
741.528	3050.62
741.713	3249.27
741.898	3159.16
742.084	3300.47
742.269	3122.3
742.454	3257.46
742.639	3261.56
742.824	3146.87
743.01	3083.39
743.195	3153.02
743.38	3097.72
743.565	2995.32
743.75	3171.45
743.935	2997.37
744.12	3155.07
744.305	3005.56
744.49	3007.61
744.675	2985.09
744.86	2874.49
745.045	3007.61
745.23	2847.87
745.415	2946.17
745.6	2980.99
745.785	2739.33
745.97	2845.82
746.155	2847.87
746.34	2890.88
746.525	2921.6
746.71	2903.17
746.895	2759.81
747.079	2696.32
747.264	2829.44
747.449	2937.98
747.634	2747.52
747.819	2806.91
748.003	2598.02
748.188	2649.22
748.373	2641.03
748.557	2632.83
748.742	2614.4
748.927	2573.44
749.111	2628.74
749.296	2456.71
749.481	2608.26
749.665	2577.54
749.85	2460.81
750.034	2477.19
750.219	2448.52
750.404	2393.22
750.588	2538.63
750.773	2442.37
750.957	2522.24
751.141	2387.08
751.326	2409.61
751.51	2335.88
751.695	2487.43
751.879	2348.17
752.064	2477.19
752.248	2382.98
752.432	2266.25
752.617	2276.49
752.801	2233.48
752.985	2251.91
753.17	2253.96
753.354	2247.82
753.538	2260.1
753.722	2094.22
753.907	2077.83
754.091	2100.36
754.275	2178.19
754.459	2282.63
754.643	2032.78
754.828	2077.83
755.012	2098.31
755.196	2040.97
755.38	2100.36
755.564	2045.07
755.748	1905.81
755.932	2114.7
756.116	1985.68
756.3	2036.88
756.484	1868.94
756.668	1932.43
756.852	1854.61
757.036	1858.7
757.22	1911.95
757.404	1811.6
757.588	1784.98
757.772	1977.48
757.956	1756.3
758.14	1905.81
758.323	1772.69
758.507	1858.7
758.691	1832.08
758.875	1838.22
759.059	1848.46
759.242	1799.31
759.426	1780.88
759.61	1746.06
759.794	1731.73
759.977	1854.61
760.161	1868.94
760.345	1741.97
760.528	1629.33
760.712	1694.86
760.895	1789.07
761.079	1733.78
761.263	1627.28
761.446	1582.23
761.63	1578.13
761.813	1651.86
761.997	1629.33
762.18	1574.03
762.364	1647.76
762.547	1629.33
762.731	1580.18
762.914	1619.09
763.098	1682.58
763.281	1539.22
763.464	1428.63
763.648	1514.64
763.831	1623.19
764.015	1535.12
764.198	1619.09
764.381	1531.03
764.564	1526.93
764.748	1586.32
764.931	1537.17
765.114	1490.07
765.297	1549.46
765.481	1471.64
765.664	1658
765.847	1477.78
766.03	1469.59
766.213	1373.33
766.397	1467.54
766.58	1467.54
766.763	1586.32
766.946	1356.95
767.129	1481.88
767.312	1367.19
767.495	1449.11
767.678	1479.83
767.861	1455.25
768.044	1442.96
768.227	1338.52
768.41	1430.68
768.593	1406.1
768.776	1492.12
768.959	1395.86
769.142	1459.35
769.324	1291.41
769.507	1408.15
769.69	1309.85
769.873	1330.33
770.056	1455.25
770.239	1338.52
770.421	1424.53
770.604	1250.46
770.787	1428.63
770.97	1332.37
771.152	1322.13
771.335	1293.46
771.518	1215.64
771.7	1285.27
771.883	1320.09
772.066	1252.5
772.248	1283.22
772.431	1277.08
772.613	1307.8
772.796	1242.26
772.978	1240.22
773.161	1166.49
773.343	1227.93
773.526	1205.4
773.708	1264.79
773.891	1135.77
774.073	1203.35
774.256	1121.43
774.438	1229.98
774.621	1180.82
774.803	1236.12
774.985	1176.73
775.168	1195.16
775.35	1107.1
775.532	1176.73
775.715	1111.19
775.897	1139.87
776.079	1217.69
776.261	1133.72
776.444	1158.3
776.626	1076.38
776.808	1154.2
776.99	1125.53
777.173	1139.87
777.355	1051.8
777.537	1141.91
777.719	1047.71
777.901	1078.43
778.083	1012.89
778.265	982.17
778.447	1035.42
778.629	1068.19
778.811	1051.8
778.993	1084.57
779.175	961.69
779.357	926.88
779.539	916.64
779.721	939.16
779.903	1006.75
780.085	1025.18
780.267	961.69
780.449	916.64
780.631	994.46
780.812	994.46
780.994	916.64
781.176	957.6
781.358	902.3
781.54	896.16
781.721	918.68
781.903	918.68
782.085	840.86
782.267	916.64
782.448	937.12
782.63	760.99
782.812	869.53
782.993	783.52
783.175	877.73
783.357	767.13
783.538	834.72
783.72	785.57
783.901	787.61
784.083	894.11
784.264	736.42
784.446	703.65
784.627	715.94
784.809	793.76
784.99	760.99
785.172	834.72
785.353	787.61
785.535	715.94
785.716	740.51
785.897	707.74
786.079	656.54
786.26	654.5
786.441	717.98
786.623	654.5
786.804	646.3
786.985	646.3
787.167	689.31
787.348	677.02
787.529	609.44
787.71	693.41
787.891	668.83
788.073	662.69
788.254	601.25
788.435	709.79
788.616	670.88
788.797	576.67
788.978	623.78
789.159	617.63
789.34	619.68
789.522	736.42
789.703	666.78
789.884	638.11
790.065	642.21
790.246	654.5
790.427	595.11
790.607	654.5
790.788	564.39
790.969	609.44
791.15	660.64
791.331	548
791.512	529.57
791.693	511.14
791.874	529.57
792.054	619.68
792.235	591.01
792.416	521.38
792.597	490.66
792.778	548
792.958	525.47
793.139	470.18
793.32	556.19
793.5	574.63
793.681	560.29
793.862	517.28
794.042	535.71
794.223	443.56
794.404	531.62
794.584	500.9
794.765	451.75
794.945	521.38
795.126	459.94
795.306	474.28
795.487	500.9
795.667	492.71
795.848	502.95
796.028	488.61
796.209	441.51
796.389	558.24
796.57	455.84
796.75	396.45
796.93	408.74
797.111	412.84
797.291	431.27
797.471	476.32
797.652	457.89
797.832	423.08
798.012	504.99
798.192	361.64
798.373	396.45
798.553	502.95
798.733	492.71
798.913	373.92
799.093	425.12
799.274	380.07
799.454	431.27
799.634	449.7
799.814	451.75
799.994	457.89
800.174	476.32
800.354	373.92
800.534	363.69
800.714	484.52
800.894	330.92
801.074	335.01
801.254	367.78
801.434	406.69
801.614	406.69
801.794	316.58
801.974	1254.55
802.154	339.11
802.334	408.74
802.514	367.78
802.693	316.58
802.873	347.3
803.053	459.94
803.233	359.59
803.413	408.74
803.592	386.21
803.772	314.53
803.952	410.79
804.131	253.09
804.311	380.07
804.491	345.25
804.67	316.58
804.85	246.95
805.03	435.36
805.209	328.87
805.389	328.87
805.568	269.48
805.748	316.58
805.928	261.29
806.107	357.54
806.287	328.87
806.466	298.15
806.646	285.86
806.825	292.01
807.004	273.57
807.184	302.25
807.363	269.48
807.543	265.38
807.722	314.53
807.901	304.29
808.081	347.3
808.26	212.14
808.439	271.53
808.619	281.77
808.798	263.33
808.977	292.01
809.156	261.29
809.336	212.14
809.515	279.72
809.694	279.72
809.873	234.66
810.052	287.91
810.231	302.25
810.411	287.91
810.59	232.62
810.769	255.14
810.948	251.05
811.127	265.38
811.306	249
811.485	228.52
811.664	298.15
811.843	171.18
812.022	251.05
812.201	169.13
812.38	220.33
812.559	212.14
812.737	216.23
812.916	242.85
813.095	189.61
813.274	195.75
813.453	304.29
813.632	199.85
813.811	318.63
813.989	140.46
814.168	267.43
814.347	240.81
814.526	265.38
814.704	304.29
814.883	279.72
815.062	185.51
815.24	224.42
815.419	201.9
815.598	330.92
815.776	107.69
815.955	195.75
816.133	222.38
816.312	197.8
816.49	249
816.669	271.53
816.847	165.03
817.026	142.5
817.204	179.37
817.383	234.66
817.561	226.47
817.74	300.2
817.918	177.32
818.097	150.7
818.275	158.89
818.453	199.85
818.632	146.6
818.81	197.8
818.988	175.27
819.167	158.89
819.345	173.22
819.523	197.8
819.701	160.94
819.879	255.14
820.058	136.36
820.236	210.09
820.414	187.56
820.592	177.32
820.77	165.03
820.948	103.59
821.127	181.42
821.305	226.47
821.483	158.89
821.661	300.2
821.839	189.61
822.017	140.46
822.195	195.75
822.373	222.38
822.551	208.04
822.729	132.26
822.907	218.28
823.085	165.03
823.262	169.13
823.44	130.22
823.618	162.98
823.796	152.74
823.974	201.9
824.152	165.03
824.329	152.74
824.507	107.69
824.685	91.31
824.863	79.02
825.04	238.76
825.218	109.74
825.396	154.79
825.574	189.61
825.751	89.26
825.929	189.61
826.107	36.01
826.284	117.93
826.462	173.22
826.639	150.7
826.817	74.92
826.994	130.22
827.172	95.4
827.349	236.71
827.527	150.7
827.704	156.84
827.882	244.9
828.059	189.61
828.237	179.37
828.414	165.03
828.591	105.64
828.769	105.64
828.946	136.36
829.124	144.55
829.301	169.13
829.478	146.6
829.655	136.36
829.833	130.22
830.01	56.49
830.187	146.6
830.364	132.26
830.542	113.83
830.719	134.31
830.896	181.42
831.073	156.84
831.25	230.57
831.427	154.79
831.604	70.83
831.782	130.22
831.959	130.22
832.136	91.31
832.313	119.98
832.49	27.82
832.667	183.46
832.844	97.45
833.021	199.85
833.198	142.5
833.374	185.51
833.551	111.78
833.728	97.45
833.905	146.6
834.082	9.39
834.259	126.12
834.436	173.22
834.612	93.35
834.789	128.17
834.966	44.2
835.143	52.39
835.319	113.83
835.496	107.69
835.673	138.41
835.85	89.26
836.026	83.11
836.203	136.36
836.38	113.83
836.556	76.97
836.733	126.12
836.909	181.42
837.086	-29.52
837.262	48.3
837.439	113.83
837.616	115.88
837.792	31.91
837.968	130.22
838.145	27.82
838.321	76.97
838.498	197.8
838.674	148.65
838.851	70.83
839.027	113.83
839.203	103.59
839.38	132.26
839.556	54.44
839.732	136.36
839.909	66.73
840.085	169.13
840.261	103.59
840.437	33.96
840.614	66.73
840.79	79.02
840.966	64.68
841.142	89.26
841.318	95.4
841.494	99.5
841.671	97.45
841.847	66.73
842.023	99.5
842.199	40.11
842.375	105.64
842.551	-13.14
842.727	19.63
842.903	144.55
843.079	74.92
843.255	113.83
843.431	87.21
843.607	99.5
843.783	15.53
843.959	66.73
844.134	31.91
844.31	162.98
844.486	81.07
844.662	60.59
844.838	105.64
845.013	105.64
845.189	99.5
845.365	38.06
845.541	66.73
845.716	76.97
845.892	140.46
846.068	17.58
846.244	23.72
846.419	74.92
846.595	72.87
846.77	64.68
846.946	107.69
847.122	99.5
847.297	23.72
847.473	117.93
847.648	31.91
847.824	83.11
847.999	9.39
848.175	44.2
848.35	105.64
848.526	101.55
848.701	36.01
848.876	87.21
849.052	56.49
849.227	-0.85
849.403	33.96
849.578	48.3
849.753	46.25
849.929	124.07
850.104	9.39
850.279	89.26
850.454	50.35
850.63	87.21
850.805	33.96
850.98	91.31
851.155	31.91
851.33	50.35
851.505	25.77
851.681	126.12
851.856	56.49
852.031	132.26
852.206	13.48
852.381	56.49
852.556	33.96
852.731	89.26
852.906	52.39
853.081	91.31
853.256	136.36
853.431	107.69
853.606	38.06
853.781	48.3
853.956	25.77
854.131	154.79
854.305	9.39
854.48	3.24
854.655	21.67
854.83	29.87
855.005	3.24
855.18	-25.43
855.354	-54.1
855.529	64.68
855.704	-0.85
855.879	62.63
856.053	-2.9
856.228	15.53
856.403	46.25
856.577	62.63
856.752	-37.72
856.926	7.34
857.101	36.01
857.276	5.29
857.45	97.45
857.625	21.67
857.799	15.53
857.974	1.19
858.148	-4.95
858.323	89.26
858.497	27.82
858.672	13.48
858.846	-19.29
859.02	76.97
859.195	7.34
859.369	29.87
859.543	21.67
859.718	5.29
859.892	72.87
860.066	23.72
860.241	27.82
860.415	-4.95
860.589	13.48
860.763	19.63
860.938	-2.9
861.112	128.17
861.286	-21.33
861.46	58.54
861.634	15.53
861.808	83.11
861.982	-74.58
862.157	105.64
862.331	58.54
862.505	-31.57
862.679	-25.43
862.853	-7
863.027	25.77
863.201	101.55
863.375	-4.95
863.549	85.16
863.722	36.01
863.896	83.11
864.07	27.82
864.244	-7
864.418	117.93
864.592	36.01
864.766	-19.29
864.939	46.25
865.113	-11.09
865.287	38.06
865.461	9.39
865.634	72.87
865.808	-2.9
865.982	-7
866.156	-0.85
866.329	31.91
866.503	27.82
866.676	124.07
866.85	19.63
867.024	9.39
867.197	29.87
867.371	33.96
867.544	38.06
867.718	-35.67
867.891	74.92
868.065	44.2
868.238	42.15
868.412	50.35
868.585	-27.48
868.759	-33.62
868.932	23.72
869.105	-7
869.279	72.87
869.452	-4.95
869.625	66.73
869.799	44.2
869.972	46.25
870.145	76.97
870.319	79.02
870.492	-97.11
870.665	113.83
870.838	40.11
871.011	-76.63
871.185	21.67
871.358	-2.9
871.531	83.11
871.704	-17.24
871.877	-13.14
872.05	54.44
872.223	-33.62
872.396	52.39
872.569	62.63
872.742	-35.67
872.915	95.4
873.088	-54.1
873.261	27.82
873.434	-19.29
873.607	60.59
873.78	15.53
873.953	-31.57
874.126	44.2
874.299	15.53
874.471	-23.38
874.644	3.24
874.817	33.96
874.99	52.39
875.163	68.78
875.335	-15.19
875.508	97.45
875.681	64.68
875.853	-0.85
876.026	-11.09
876.199	-9.05
876.371	-0.85
876.544	48.3
876.717	76.97
876.889	58.54
877.062	31.91
877.234	-58.2
877.407	3.24
877.579	48.3
877.752	48.3
877.924	103.59
878.097	-31.57
878.269	44.2
878.442	72.87
878.614	68.78
878.786	31.91
878.959	-7
879.131	44.2
879.303	-41.81
879.476	9.39
879.648	74.92
879.82	9.39
879.993	-23.38
880.165	115.88
880.337	52.39
880.509	48.3
880.681	52.39
880.854	-35.67
881.026	60.59
881.198	66.73
881.37	13.48
881.542	-7
881.714	15.53
881.886	9.39
882.058	19.63
882.23	-19.29
882.402	13.48
882.574	76.97
882.746	21.67
882.918	58.54
883.09	-27.48
883.262	44.2
883.434	-0.85
883.606	-121.68
883.778	19.63
883.95	62.63
884.122	40.11
884.293	103.59
884.465	-11.09
884.637	-11.09
884.809	25.77
884.98	-31.57
885.152	21.67
885.324	36.01
885.496	3.24
885.667	25.77
885.839	-19.29
886.011	105.64
886.182	-64.34
886.354	117.93
886.525	-45.91
886.697	13.48
886.869	-27.48
887.04	-4.95
887.212	72.87
887.383	76.97
887.555	21.67
887.726	-19.29
887.897	-9.05
888.069	38.06
888.24	-2.9
888.412	66.73
888.583	74.92
888.754	56.49
888.926	54.44
889.097	-15.19
889.268	-19.29
889.44	19.63
889.611	1.19
889.782	-23.38
889.953	58.54
890.125	54.44
890.296	-56.15
890.467	-23.38
890.638	-17.24
890.809	40.11
890.98	15.53
891.151	-4.95
891.323	19.63
891.494	-11.09
891.665	-54.1
891.836	-11.09
892.007	7.34
892.178	-29.52
892.349	58.54
892.52	-144.21
892.691	-21.33
892.862	-0.85
893.032	-39.76
893.203	-29.52
893.374	48.3
893.545	-27.48
893.716	-9.05
893.887	97.45
894.057	9.39
894.228	-39.76
894.399	-47.96
894.57	115.88
894.74	29.87
894.911	70.83
895.082	13.48
895.253	-0.85
895.423	-19.29
895.594	44.2
895.764	-54.1
895.935	-19.29
896.106	48.3
896.276	-25.43
896.447	76.97
896.617	-21.33
896.788	42.15
896.958	-27.48
897.129	15.53
897.299	5.29
897.47	52.39
897.64	52.39
897.81	-2.9
897.981	40.11
898.151	-50
898.322	15.53
898.492	64.68
898.662	-70.48
898.832	-103.25
899.003	-2.9
899.173	21.67
899.343	17.58
899.513	-35.67
