Data from USB4F104151__93__12-13-14-899.txt Node

Date: Fri Mar 14 12:13:14 EDT 2025
User: louis
Spectrometer: USB4F10415
Trigger mode: 4
Integration Time (sec): 5.000000E-2
Scans to average: 1
Electric dark correction enabled: true
Nonlinearity correction enabled: false
Boxcar width: 0
XAxis mode: Wavelengths
Number of Pixels in Spectrum: 3648
>>>>>Begin Spectral Data<<<<<
178.204	-214.52
178.424	-214.52
178.644	-214.52
178.864	-192
179.084	-126.46
179.304	20.99
179.524	-3.58
179.744	-50.69
179.964	90.62
180.184	4.61
180.404	57.86
180.624	-36.35
180.844	0.51
181.064	-75.26
181.283	10.75
181.503	-32.26
181.723	12.8
181.943	-101.89
182.163	92.67
182.383	2.56
182.602	27.14
182.822	47.62
183.042	-13.82
183.262	-50.69
183.482	37.38
183.701	78.33
183.921	-1.54
184.141	23.04
184.361	-30.21
184.58	-7.68
184.8	20.99
185.02	45.57
185.239	61.95
185.459	78.33
185.679	121.34
185.898	-54.78
186.118	72.19
186.338	-24.06
186.557	20.99
186.777	-56.83
186.997	-112.13
187.216	2.56
187.436	80.38
187.655	-7.68
187.875	25.09
188.095	-52.74
188.314	64
188.534	115.2
188.753	41.47
188.973	51.71
189.192	129.53
189.412	53.76
189.631	25.09
189.851	-22.02
190.07	47.62
190.29	12.8
190.509	25.09
190.729	6.66
190.948	150.01
191.168	178.69
191.387	39.42
191.607	-48.64
191.826	31.23
192.045	-13.82
192.265	-108.03
192.484	4.61
192.704	14.85
192.923	18.94
193.142	68.09
193.362	98.81
193.581	72.19
193.8	100.86
194.02	45.57
194.239	4.61
194.458	20.99
194.678	74.24
194.897	16.9
195.116	4.61
195.335	96.77
195.555	39.42
195.774	-32.26
195.993	29.18
196.212	27.14
196.432	-38.4
196.651	8.7
196.87	37.38
197.089	74.24
197.308	-3.58
197.528	68.09
197.747	-24.06
197.966	37.38
198.185	49.66
198.404	-62.98
198.623	39.42
198.842	88.57
199.062	68.09
199.281	31.23
199.5	20.99
199.719	35.33
199.938	23.04
200.157	92.67
200.376	88.57
200.595	29.18
200.814	61.95
201.033	-5.63
201.252	47.62
201.471	41.47
201.69	113.15
201.909	29.18
202.128	92.67
202.347	70.14
202.566	47.62
202.785	-1.54
203.004	-32.26
203.223	152.06
203.442	51.71
203.661	31.23
203.879	4.61
204.098	109.05
204.317	-44.54
204.536	39.42
204.755	0.51
204.974	76.29
205.193	59.9
205.411	94.72
205.63	55.81
205.849	20.99
206.068	33.28
206.287	16.9
206.505	55.81
206.724	29.18
206.943	-13.82
207.162	51.71
207.381	66.05
207.599	6.66
207.818	-1.54
208.037	29.18
208.255	23.04
208.474	43.52
208.693	16.9
208.911	41.47
209.13	47.62
209.349	119.29
209.567	84.48
209.786	68.09
210.005	39.42
210.223	35.33
210.442	2.56
210.661	-11.78
210.879	10.75
211.098	18.94
211.316	72.19
211.535	8.7
211.753	-28.16
211.972	25.09
212.191	-13.82
212.409	-60.93
212.628	41.47
212.846	20.99
213.065	2.56
213.283	66.05
213.502	-38.4
213.72	-42.5
213.938	49.66
214.157	-7.68
214.375	4.61
214.594	57.86
214.812	-1.54
215.031	-17.92
215.249	94.72
215.467	45.57
215.686	2.56
215.904	27.14
216.122	12.8
216.341	43.52
216.559	12.8
216.778	61.95
216.996	78.33
217.214	-17.92
217.432	0.51
217.651	29.18
217.869	31.23
218.087	2.56
218.306	0.51
218.524	39.42
218.742	23.04
218.96	80.38
219.179	0.51
219.397	4.61
219.615	158.21
219.833	68.09
220.051	-7.68
220.27	59.9
220.488	68.09
220.706	80.38
220.924	12.8
221.142	2.56
221.36	-24.06
221.578	14.85
221.796	25.09
222.015	31.23
222.233	39.42
222.451	104.96
222.669	-87.55
222.887	70.14
223.105	-30.21
223.323	64
223.541	51.71
223.759	72.19
223.977	-3.58
224.195	98.81
224.413	129.53
224.631	43.52
224.849	-34.3
225.067	57.86
225.285	-95.74
225.503	39.42
225.721	-42.5
225.939	55.81
226.157	10.75
226.375	178.69
226.592	37.38
226.81	18.94
227.028	70.14
227.246	121.34
227.464	-1.54
227.682	107.01
227.9	57.86
228.117	33.28
228.335	80.38
228.553	-32.26
228.771	72.19
228.989	39.42
229.206	90.62
229.424	39.42
229.642	-22.02
229.86	-5.63
230.077	68.09
230.295	-50.69
230.513	51.71
230.731	72.19
230.948	37.38
231.166	29.18
231.384	10.75
231.601	23.04
231.819	-5.63
232.037	35.33
232.254	-34.3
232.472	-85.5
232.689	-65.02
232.907	61.95
233.125	16.9
233.342	6.66
233.56	16.9
233.777	82.43
233.995	12.8
234.213	76.29
234.43	27.14
234.648	72.19
234.865	-13.82
235.083	0.51
235.3	43.52
235.518	41.47
235.735	88.57
235.953	27.14
236.17	41.47
236.388	-5.63
236.605	53.76
236.822	127.49
237.04	35.33
237.257	33.28
237.475	12.8
237.692	23.04
237.909	45.57
238.127	6.66
238.344	27.14
238.562	82.43
238.779	-9.73
238.996	-5.63
239.214	-30.21
239.431	47.62
239.648	14.85
239.865	-17.92
240.083	25.09
240.3	-1.54
240.517	37.38
240.735	35.33
240.952	51.71
241.169	35.33
241.386	45.57
241.603	18.94
241.821	-19.97
242.038	139.77
242.255	41.47
242.472	-19.97
242.689	57.86
242.907	49.66
243.124	102.91
243.341	4.61
243.558	66.05
243.775	-15.87
243.992	-17.92
244.209	-32.26
244.426	129.53
244.643	68.09
244.86	-5.63
245.078	12.8
245.295	12.8
245.512	-24.06
245.729	-99.84
245.946	59.9
246.163	12.8
246.38	92.67
246.597	4.61
246.814	39.42
247.031	66.05
247.248	33.28
247.464	6.66
247.681	39.42
247.898	57.86
248.115	-9.73
248.332	43.52
248.549	31.23
248.766	139.77
248.983	59.9
249.2	43.52
249.417	57.86
249.633	-11.78
249.85	-30.21
250.067	-44.54
250.284	-44.54
250.501	82.43
250.717	74.24
250.934	-62.98
251.151	70.14
251.368	14.85
251.585	-13.82
251.801	45.57
252.018	-11.78
252.235	-5.63
252.451	-71.17
252.668	84.48
252.885	61.95
253.102	-13.82
253.318	33.28
253.535	2.56
253.752	80.38
253.968	78.33
254.185	-36.35
254.401	0.51
254.618	31.23
254.835	-77.31
255.051	107.01
255.268	59.9
255.484	41.47
255.701	10.75
255.917	-26.11
256.134	-60.93
256.351	-26.11
256.567	-28.16
256.784	14.85
257	-36.35
257.217	29.18
257.433	41.47
257.65	84.48
257.866	131.58
258.082	-58.88
258.299	8.7
258.515	16.9
258.732	33.28
258.948	18.94
259.165	-26.11
259.381	61.95
259.597	121.34
259.814	-9.73
260.03	-13.82
260.246	25.09
260.463	12.8
260.679	53.76
260.895	31.23
261.112	45.57
261.328	64
261.544	-7.68
261.761	217.6
261.977	14.85
262.193	-69.12
262.409	43.52
262.626	92.67
262.842	8.7
263.058	6.66
263.274	111.1
263.49	45.57
263.707	47.62
263.923	-17.92
264.139	-15.87
264.355	-34.3
264.571	150.01
264.787	-5.63
265.004	59.9
265.22	-34.3
265.436	27.14
265.652	18.94
265.868	10.75
266.084	-3.58
266.3	88.57
266.516	-26.11
266.732	-42.5
266.948	37.38
267.164	45.57
267.38	68.09
267.596	-24.06
267.812	127.49
268.028	-3.58
268.244	20.99
268.46	113.15
268.676	18.94
268.892	37.38
269.108	45.57
269.324	-65.02
269.54	-9.73
269.756	72.19
269.972	8.7
270.188	55.81
270.403	-5.63
270.619	61.95
270.835	14.85
271.051	68.09
271.267	16.9
271.483	39.42
271.698	31.23
271.914	39.42
272.13	-46.59
272.346	31.23
272.562	10.75
272.777	86.53
272.993	41.47
273.209	-30.21
273.425	-22.02
273.64	-81.41
273.856	102.91
274.072	-24.06
274.287	-60.93
274.503	18.94
274.719	45.57
274.934	-71.17
275.15	-26.11
275.366	-19.97
275.581	-62.98
275.797	35.33
276.012	80.38
276.228	-1.54
276.444	23.04
276.659	168.45
276.875	-11.78
277.09	49.66
277.306	-26.11
277.521	78.33
277.737	29.18
277.952	82.43
278.168	45.57
278.383	51.71
278.599	59.9
278.814	23.04
279.03	100.86
279.245	117.25
279.461	70.14
279.676	53.76
279.892	-22.02
280.107	-67.07
280.322	-56.83
280.538	72.19
280.753	8.7
280.969	18.94
281.184	8.7
281.399	102.91
281.615	8.7
281.83	-1.54
282.045	39.42
282.26	-46.59
282.476	-28.16
282.691	33.28
282.906	59.9
283.122	20.99
283.337	33.28
283.552	53.76
283.767	16.9
283.983	57.86
284.198	51.71
284.413	45.57
284.628	-60.93
284.843	-62.98
285.058	25.09
285.274	39.42
285.489	-38.4
285.704	33.28
285.919	-5.63
286.134	37.38
286.349	16.9
286.564	37.38
286.779	29.18
286.995	84.48
287.21	-50.69
287.425	27.14
287.64	66.05
287.855	0.51
288.07	-11.78
288.285	115.2
288.5	45.57
288.715	57.86
288.93	-30.21
289.145	-19.97
289.36	72.19
289.575	-17.92
289.79	92.67
290.004	10.75
290.219	53.76
290.434	12.8
290.649	16.9
290.864	-36.35
291.079	8.7
291.294	18.94
291.509	41.47
291.724	-13.82
291.938	53.76
292.153	41.47
292.368	-5.63
292.583	80.38
292.798	43.52
293.012	51.71
293.227	74.24
293.442	-13.82
293.657	14.85
293.871	47.62
294.086	-11.78
294.301	156.16
294.516	49.66
294.73	16.9
294.945	39.42
295.16	-58.88
295.374	127.49
295.589	72.19
295.804	-13.82
296.018	102.91
296.233	12.8
296.447	-22.02
296.662	20.99
296.877	23.04
297.091	70.14
297.306	18.94
297.52	14.85
297.735	78.33
297.949	59.9
298.164	-7.68
298.378	-11.78
298.593	-22.02
298.807	47.62
299.022	10.75
299.236	74.24
299.451	43.52
299.665	104.96
299.88	37.38
300.094	4.61
300.309	14.85
300.523	-7.68
300.737	2.56
300.952	68.09
301.166	35.33
301.381	-9.73
301.595	35.33
301.809	-46.59
302.024	43.52
302.238	4.61
302.452	45.57
302.667	100.86
302.881	-3.58
303.095	82.43
303.309	-26.11
303.524	-30.21
303.738	-56.83
303.952	35.33
304.166	29.18
304.381	-50.69
304.595	61.95
304.809	-87.55
305.023	35.33
305.237	-34.3
305.452	-46.59
305.666	131.58
305.88	-1.54
306.094	78.33
306.308	4.61
306.522	82.43
306.736	-9.73
306.95	64
307.164	-22.02
307.379	-26.11
307.593	117.25
307.807	90.62
308.021	53.76
308.235	78.33
308.449	-50.69
308.663	33.28
308.877	64
309.091	94.72
309.305	45.57
309.519	-26.11
309.733	64
309.947	14.85
310.161	78.33
310.374	80.38
310.588	109.05
310.802	-13.82
311.016	-26.11
311.23	33.28
311.444	-32.26
311.658	25.09
311.872	86.53
312.085	94.72
312.299	64
312.513	43.52
312.727	129.53
312.941	-58.88
313.154	70.14
313.368	23.04
313.582	92.67
313.796	86.53
314.009	-13.82
314.223	47.62
314.437	6.66
314.651	53.76
314.864	14.85
315.078	-15.87
315.292	0.51
315.505	-15.87
315.719	31.23
315.933	68.09
316.146	12.8
316.36	8.7
316.573	35.33
316.787	6.66
317.001	45.57
317.214	66.05
317.428	35.33
317.641	-5.63
317.855	102.91
318.068	66.05
318.282	8.7
318.495	139.77
318.709	6.66
318.922	2.56
319.136	96.77
319.349	8.7
319.563	2.56
319.776	10.75
319.99	23.04
320.203	61.95
320.417	-1.54
320.63	31.23
320.843	98.81
321.057	59.9
321.27	86.53
321.483	78.33
321.697	64
321.91	8.7
322.124	47.62
322.337	8.7
322.55	-34.3
322.763	49.66
322.977	53.76
323.19	10.75
323.403	18.94
323.617	-28.16
323.83	174.59
324.043	135.68
324.256	113.15
324.469	18.94
324.683	154.11
324.896	70.14
325.109	27.14
325.322	-75.26
325.535	74.24
325.748	51.71
325.962	-24.06
326.175	-22.02
326.388	72.19
326.601	82.43
326.814	18.94
327.027	31.23
327.24	80.38
327.453	-34.3
327.666	96.77
327.879	135.68
328.092	96.77
328.305	57.86
328.518	37.38
328.731	-44.54
328.944	4.61
329.157	135.68
329.37	4.61
329.583	139.77
329.796	49.66
330.009	-19.97
330.222	111.1
330.435	61.95
330.648	49.66
330.861	47.62
331.073	57.86
331.286	76.29
331.499	72.19
331.712	20.99
331.925	84.48
332.138	111.1
332.35	70.14
332.563	-44.54
332.776	135.68
332.989	-13.82
333.202	23.04
333.414	35.33
333.627	-3.58
333.84	-58.88
334.053	82.43
334.265	-19.97
334.478	18.94
334.691	-7.68
334.903	43.52
335.116	-26.11
335.329	-7.68
335.541	31.23
335.754	70.14
335.966	-30.21
336.179	12.8
336.392	45.57
336.604	-9.73
336.817	37.38
337.029	39.42
337.242	-1.54
337.454	47.62
337.667	72.19
337.88	84.48
338.092	35.33
338.305	31.23
338.517	51.71
338.729	119.29
338.942	74.24
339.154	-15.87
339.367	25.09
339.579	57.86
339.792	-24.06
340.004	76.29
340.217	-15.87
340.429	53.76
340.641	-32.26
340.854	-44.54
341.066	57.86
341.278	111.1
341.491	131.58
341.703	80.38
341.915	8.7
342.128	59.9
342.34	33.28
342.552	49.66
342.764	59.9
342.977	80.38
343.189	133.63
343.401	55.81
343.613	-56.83
343.826	41.47
344.038	-32.26
344.25	53.76
344.462	45.57
344.674	31.23
344.886	-42.5
345.099	47.62
345.311	-1.54
345.523	4.61
345.735	-1.54
345.947	53.76
346.159	16.9
346.371	14.85
346.583	-56.83
346.795	154.11
347.007	-13.82
347.219	86.53
347.431	-34.3
347.643	68.09
347.855	-5.63
348.067	92.67
348.279	-73.21
348.491	31.23
348.703	104.96
348.915	-11.78
349.127	8.7
349.339	-26.11
349.551	10.75
349.763	14.85
349.975	-5.63
350.187	64
350.399	51.71
350.61	53.76
350.822	25.09
351.034	86.53
351.246	76.29
351.458	53.76
351.669	45.57
351.881	68.09
352.093	121.34
352.305	37.38
352.517	47.62
352.728	51.71
352.94	70.14
353.152	29.18
353.363	-54.78
353.575	90.62
353.787	141.82
353.999	39.42
354.21	96.77
354.422	16.9
354.633	49.66
354.845	-11.78
355.057	74.24
355.268	-1.54
355.48	76.29
355.692	-36.35
355.903	94.72
356.115	78.33
356.326	-28.16
356.538	82.43
356.749	16.9
356.961	186.88
357.172	72.19
357.384	-40.45
357.595	195.07
357.807	35.33
358.018	2.56
358.23	96.77
358.441	127.49
358.653	6.66
358.864	53.76
359.075	-3.58
359.287	55.81
359.498	6.66
359.709	-26.11
359.921	35.33
360.132	-60.93
360.344	20.99
360.555	16.9
360.766	80.38
360.977	96.77
361.189	88.57
361.4	139.77
361.611	-3.58
361.823	127.49
362.034	37.38
362.245	-79.36
362.456	109.05
362.667	37.38
362.879	88.57
363.09	-36.35
363.301	109.05
363.512	49.66
363.723	53.76
363.935	88.57
364.146	72.19
364.357	61.95
364.568	68.09
364.779	16.9
364.99	92.67
365.201	27.14
365.412	170.49
365.623	2.56
365.834	47.62
366.045	29.18
366.256	88.57
366.467	74.24
366.678	0.51
366.889	80.38
367.1	-5.63
367.311	78.33
367.522	47.62
367.733	80.38
367.944	57.86
368.155	6.66
368.366	35.33
368.577	61.95
368.788	119.29
368.999	-58.88
369.209	6.66
369.42	117.25
369.631	125.44
369.842	31.23
370.053	129.53
370.264	113.15
370.474	-26.11
370.685	33.28
370.896	41.47
371.107	64
371.317	27.14
371.528	68.09
371.739	64
371.95	53.76
372.16	86.53
372.371	4.61
372.582	16.9
372.792	37.38
373.003	90.62
373.214	14.85
373.424	33.28
373.635	4.61
373.846	80.38
374.056	37.38
374.267	37.38
374.477	33.28
374.688	-7.68
374.898	31.23
375.109	72.19
375.319	23.04
375.53	113.15
375.74	41.47
375.951	-15.87
376.161	20.99
376.372	76.29
376.582	27.14
376.793	129.53
377.003	31.23
377.214	-38.4
377.424	188.93
377.635	53.76
377.845	86.53
378.055	104.96
378.266	-5.63
378.476	115.2
378.686	6.66
378.897	-5.63
379.107	31.23
379.317	8.7
379.528	-93.69
379.738	88.57
379.948	-56.83
380.158	80.38
380.369	0.51
380.579	127.49
380.789	39.42
380.999	61.95
381.21	121.34
381.42	121.34
381.63	49.66
381.84	107.01
382.05	47.62
382.261	92.67
382.471	94.72
382.681	31.23
382.891	55.81
383.101	115.2
383.311	-58.88
383.521	-22.02
383.731	72.19
383.941	64
384.151	16.9
384.361	102.91
384.571	109.05
384.781	61.95
384.991	104.96
385.201	119.29
385.411	102.91
385.621	102.91
385.831	14.85
386.041	84.48
386.251	25.09
386.461	84.48
386.671	-1.54
386.881	152.06
387.091	53.76
387.301	100.86
387.511	10.75
387.72	107.01
387.93	143.87
388.14	-50.69
388.35	72.19
388.56	-42.5
388.769	141.82
388.979	57.86
389.189	8.7
389.399	94.72
389.609	49.66
389.818	27.14
390.028	64
390.238	25.09
390.447	12.8
390.657	104.96
390.867	37.38
391.076	68.09
391.286	16.9
391.496	98.81
391.705	47.62
391.915	172.54
392.125	98.81
392.334	84.48
392.544	127.49
392.753	57.86
392.963	12.8
393.172	29.18
393.382	66.05
393.591	100.86
393.801	72.19
394.01	201.21
394.22	57.86
394.429	76.29
394.639	51.71
394.848	88.57
395.058	12.8
395.267	145.92
395.477	49.66
395.686	96.77
395.895	156.16
396.105	195.07
396.314	20.99
396.524	74.24
396.733	41.47
396.942	84.48
397.152	131.58
397.361	186.88
397.57	76.29
397.78	119.29
397.989	76.29
398.198	213.5
398.407	78.33
398.617	135.68
398.826	156.16
399.035	96.77
399.244	117.25
399.453	14.85
399.663	96.77
399.872	141.82
400.081	33.28
400.29	180.73
400.499	27.14
400.708	180.73
400.917	80.38
401.127	104.96
401.336	12.8
401.545	221.69
401.754	154.11
401.963	211.45
402.172	107.01
402.381	109.05
402.59	115.2
402.799	94.72
403.008	143.87
403.217	55.81
403.426	135.68
403.635	90.62
403.844	86.53
404.053	117.25
404.262	39.42
404.471	186.88
404.68	131.58
404.888	141.82
405.097	137.73
405.306	152.06
405.515	203.26
405.724	127.49
405.933	229.88
406.142	145.92
406.35	227.84
406.559	168.45
406.768	193.02
406.977	225.79
407.185	258.56
407.394	233.98
407.603	174.59
407.812	262.65
408.02	276.99
408.229	182.78
408.438	281.08
408.646	217.6
408.855	207.36
409.064	250.36
409.272	356.86
409.481	258.56
409.69	313.85
409.898	252.41
410.107	287.23
410.315	317.95
410.524	295.42
410.733	303.61
410.941	367.1
411.15	397.82
411.358	371.19
411.567	434.68
411.775	391.67
411.984	428.54
412.192	461.3
412.401	358.91
412.609	530.94
412.818	516.6
413.026	522.74
413.234	469.5
413.443	532.98
413.651	535.03
413.86	526.84
414.068	641.53
414.276	668.15
414.485	604.66
414.693	715.25
414.901	694.77
415.11	610.81
415.318	745.97
415.526	748.02
415.734	797.17
415.943	838.13
416.151	778.74
416.359	799.22
416.567	788.98
416.776	979.44
416.984	946.67
417.192	1110.51
417.4	911.86
417.608	901.62
417.817	946.67
418.025	1133.04
418.233	1141.23
418.441	1032.69
418.649	1208.81
418.857	1354.22
419.065	1270.25
419.273	1333.74
419.481	1419.75
419.689	1427.95
419.897	1489.39
420.105	1520.1
420.313	1528.3
420.521	1694.18
420.729	1739.24
420.937	1690.09
421.145	1675.75
421.353	1843.68
421.561	1968.61
421.769	1931.75
421.977	2068.96
422.185	1997.28
422.393	2183.65
422.601	2253.28
422.809	2267.61
423.017	2316.76
423.224	2529.75
423.432	2431.45
423.64	2476.51
423.848	2712.02
424.056	2646.49
424.263	2890.2
424.471	2777.56
424.679	2892.24
424.887	3023.31
425.094	3375.56
425.302	3273.17
425.51	3244.49
425.718	3396.04
425.925	3441.1
426.133	3523.02
426.341	3811.78
426.548	3910.08
426.756	3938.76
426.964	3979.72
427.171	4282.81
427.379	4317.63
427.586	4424.12
427.794	4481.47
428.001	4641.21
428.209	4848.05
428.417	4909.49
428.624	5249.46
428.832	5407.15
429.039	5198.26
429.247	5239.22
429.454	5722.54
429.662	5994.92
429.869	5605.8
430.076	6191.52
430.284	5974.44
430.491	6298.02
430.699	6496.67
430.906	6603.16
431.114	6855.06
431.321	6914.45
431.528	7043.48
431.736	7477.65
431.943	7868.81
432.15	7590.28
432.358	7707.02
432.565	8073.6
432.772	7969.16
432.979	8425.86
433.187	8493.44
433.394	8745.34
433.601	9296.24
433.808	9204.08
434.016	9189.75
434.223	9632.11
434.43	10201.44
434.637	9890.15
434.844	10803.55
435.052	10805.6
435.259	10787.16
435.466	10985.82
435.673	10731.87
435.88	11522.38
436.087	11848.01
436.294	12073.29
436.501	11956.55
436.708	12187.97
436.915	12327.24
437.122	13027.64
437.329	13023.55
437.537	13240.63
437.743	13404.47
437.95	13472.05
438.157	14203.18
438.364	14747.93
438.571	14725.41
438.778	14838.05
438.985	16136.46
439.192	15343.89
439.399	16177.42
439.606	15573.27
439.813	16494.85
440.02	17680.63
440.227	17150.2
440.433	17338.62
440.64	17520.88
440.847	17600.76
441.054	18194.67
441.261	19355.86
441.467	19036.38
441.674	19226.84
441.881	20111.57
442.088	19894.48
442.294	20019.41
442.501	20613.32
442.708	20852.93
442.914	21584.05
443.121	22567.08
443.328	22005.94
443.534	23808.15
443.741	22898.85
443.948	22761.64
444.154	24416.4
444.361	24113.3
444.568	24088.72
444.774	24051.86
444.981	24793.22
445.187	25280.64
445.394	26226.8
445.6	25829.49
445.807	28436.56
446.013	27326.56
446.22	27899.99
446.426	29024.33
446.633	29145.16
446.839	30042.17
447.046	28833.86
447.252	30695.47
447.459	30298.16
447.665	30244.91
447.871	32202.77
448.078	33077.26
448.284	31576.09
448.491	32397.33
448.697	33906.68
448.903	34125.82
449.11	34185.21
449.316	34129.91
449.522	34912.24
449.728	35651.55
449.935	35860.44
450.141	35858.4
450.347	36372.44
450.553	35430.37
450.76	35913.69
450.966	37404.61
451.172	36792.27
451.378	37787.58
451.584	37232.58
451.791	38088.63
451.997	37937.09
452.203	38428.6
452.409	38506.42
452.615	38236.09
452.821	36976.59
453.027	36233.18
453.233	38449.08
453.44	36960.2
453.646	37365.7
453.852	37670.85
454.058	38199.23
454.264	37081.03
454.47	37994.43
454.676	36939.72
454.882	38014.91
455.088	35133.42
455.294	35299.3
455.5	36272.09
455.705	36306.9
455.911	34834.41
456.117	34062.33
456.323	33673.21
456.529	32063.51
456.735	33468.42
456.941	32952.33
457.147	32055.32
457.352	31270.95
457.558	30763.05
457.764	31164.45
457.97	30568.49
458.176	29923.38
458.381	29921.34
458.587	28295.25
458.793	28340.3
458.999	26962.02
459.204	28606.54
459.41	27889.75
459.616	26431.6
459.821	25950.32
460.027	25923.7
460.233	25319.55
460.438	24297.61
460.644	24635.53
460.85	23062.69
461.055	22935.71
461.261	23267.48
461.466	20973.76
461.672	20420.81
461.878	22182.06
462.083	20498.63
462.289	20293.83
462.494	19980.5
462.7	19120.35
462.905	18669.8
463.111	19345.62
463.316	19380.44
463.522	18649.32
463.727	19011.81
463.932	18952.41
464.138	18927.84
464.343	18845.92
464.549	18284.78
464.754	18911.46
464.959	18737.38
465.165	18632.93
465.37	17981.68
465.575	17314.04
465.781	18108.65
465.986	18104.56
466.191	17574.13
466.397	16834.82
466.602	16400.65
466.807	17148.15
467.012	16980.22
467.218	16914.69
467.423	16564.48
467.628	17066.24
467.833	17404.15
468.038	16791.81
468.244	16359.69
468.449	16926.97
468.654	16120.07
468.859	16421.13
469.064	16316.68
469.269	15610.13
469.474	15821.07
469.679	16068.87
469.885	15644.95
470.09	15796.49
470.295	15816.97
470.5	15274.26
470.705	15313.17
470.91	15132.95
471.115	14838.05
471.32	15450.39
471.525	15298.84
471.73	14909.72
471.935	14606.63
472.139	14319.91
472.344	14235.94
472.549	14270.76
472.754	14061.87
472.959	13908.27
473.164	13570.35
473.369	13156.66
473.574	14000.43
473.778	13773.1
473.983	13646.13
474.188	13658.42
474.393	12861.76
474.598	13003.07
474.802	12968.25
475.007	12661.05
475.212	13017.4
475.417	12362.05
475.621	12331.33
475.826	12482.88
476.031	11977.03
476.235	11954.51
476.44	12144.97
476.645	11766.09
476.849	11811.15
477.054	11688.27
477.259	11465.04
477.463	11751.76
477.668	11266.39
477.872	11077.97
478.077	11295.06
478.282	10907.99
478.486	10934.62
478.691	10881.37
478.895	10670.43
479.1	10699.1
479.304	10703.2
479.509	10461.54
479.713	10494.3
479.918	10477.92
480.122	10137.96
480.326	10434.91
480.531	10434.91
480.735	10324.32
480.94	10215.78
481.144	10396
481.348	10088.81
481.553	10023.27
481.757	9695.6
481.961	10006.89
482.166	10154.34
482.37	9947.5
482.574	9722.22
482.778	9935.21
482.983	10142.05
483.187	9898.34
483.391	10064.23
483.595	9927.02
483.8	9877.87
484.004	9789.8
484.208	10234.21
484.412	9761.13
484.616	9963.88
484.821	10078.57
485.025	9890.15
485.229	10041.7
485.433	9943.4
485.637	9941.35
485.841	9992.55
486.045	9935.21
486.249	9810.28
486.453	9988.46
486.657	10035.56
486.861	9816.43
487.065	9560.43
487.269	10092.9
487.473	9795.95
487.677	9783.66
487.881	10068.33
488.085	9861.48
488.289	9927.02
488.493	9881.96
488.697	10035.56
488.901	10049.89
489.105	10000.74
489.309	10033.51
489.512	10189.16
489.716	10074.47
489.92	10058.09
490.124	10021.22
490.328	10205.54
490.531	10041.7
490.735	10266.98
490.939	10252.64
491.143	10416.48
491.346	10105.19
491.55	10344.8
491.754	10408.29
491.958	10455.39
492.161	10449.25
492.365	10525.02
492.569	10518.88
492.772	10682.72
492.976	10690.91
493.18	10611.04
493.383	10828.12
493.587	10918.23
493.79	10946.9
493.994	10725.72
494.197	10766.68
494.401	10875.23
494.605	11014.49
494.808	11098.45
495.012	11110.74
495.215	11448.66
495.419	11340.11
495.622	11389.27
495.825	11395.41
496.029	11530.58
496.232	11870.54
496.436	11735.37
496.639	12071.24
496.843	12044.62
497.046	12296.52
497.249	12327.24
497.453	12462.4
497.656	12312.9
497.859	12384.58
498.063	12755.26
498.266	12896.57
498.469	12802.36
498.673	12988.73
498.876	13375.8
499.079	13482.29
499.282	13312.31
499.485	13807.92
499.689	13941.04
499.892	14074.15
500.095	14041.39
500.298	14274.85
500.501	14160.17
500.705	14584.1
500.908	14610.72
501.111	15108.38
501.314	15024.41
501.517	15184.15
501.72	15202.58
501.923	15456.53
502.126	15798.54
502.329	15835.41
502.532	16077.07
502.735	16066.83
502.938	16255.24
503.141	16087.31
503.344	16513.28
503.547	16472.32
503.75	16873.73
503.953	17178.87
504.156	17309.94
504.359	17625.33
504.562	17611
504.765	17848.56
504.968	17770.74
505.17	18141.42
505.373	18266.35
505.576	18471.14
505.779	18870.5
505.982	18919.65
506.185	19531.99
506.387	19314.91
506.59	19194.08
506.793	19710.16
506.996	19796.18
507.198	20103.37
507.401	20078.8
507.604	20760.77
507.807	20771.01
508.009	20816.07
508.212	20824.26
508.415	21399.74
508.617	21348.54
508.82	21760.18
509.022	21780.66
509.225	22104.24
509.428	22476.97
509.63	22188.21
509.833	22405.29
510.035	23271.58
510.238	23050.4
510.44	23249.05
510.643	23648.41
510.845	24203.41
511.048	23615.64
511.25	23785.62
511.453	23937.17
511.655	25077.89
511.858	24797.32
512.06	24817.8
512.262	25192.58
512.465	25528.44
512.667	25884.79
512.87	25692.28
513.072	25870.45
513.274	26318.96
513.477	26835.05
513.679	26785.9
513.881	26923.11
514.084	27250.78
514.286	27324.51
514.488	27539.55
514.69	27889.75
514.893	28151.89
515.095	28069.97
515.297	28403.79
515.499	28717.13
515.701	28930.12
515.904	29376.58
516.106	29825.08
516.308	29696.06
516.51	29921.34
516.712	29919.29
516.914	30441.52
517.116	30490.67
517.318	30916.65
517.52	31072.29
517.722	30701.61
517.925	31170.6
518.127	31658.01
518.329	31782.94
518.531	31924.25
518.733	32509.97
518.935	32552.98
519.136	32714.76
519.338	32991.24
519.54	32944.14
519.742	33439.75
519.944	33843.2
520.146	33886.2
520.348	34234.36
520.55	34131.96
520.752	34697.2
520.954	35035.11
521.155	34615.28
521.357	35114.98
521.559	35368.93
521.761	35891.16
521.963	35592.16
522.164	35741.66
522.366	36065.24
522.568	36294.61
522.77	36124.63
522.971	36839.37
523.173	36417.49
523.375	36777.93
523.576	37062.6
523.778	36861.9
523.98	37296.07
524.181	37674.95
524.383	37298.12
524.584	38043.58
524.786	37900.22
524.988	37904.32
525.189	37937.09
525.391	38465.46
525.592	38578.1
525.794	38610.87
525.995	38760.37
526.197	38764.46
526.398	38885.29
526.6	39286.7
526.801	39397.29
527.003	39065.52
527.204	39028.65
527.406	39597.99
527.607	39575.46
527.808	39884.7
528.01	39247.79
528.211	39298.98
528.412	40292.25
528.614	40148.89
528.815	40288.15
529.016	40521.62
529.218	39710.63
529.419	40357.78
529.62	40417.18
529.822	40181.66
530.023	40050.59
530.224	40415.13
530.425	40748.95
530.626	40093.6
530.828	40026.01
531.029	41074.57
531.23	40228.76
531.431	40296.35
531.632	40619.92
531.833	40877.97
532.035	40472.47
532.236	40791.95
532.437	40753.04
532.638	40750.99
532.839	40884.11
533.04	40828.82
533.241	40488.85
533.442	41144.2
533.643	40785.81
533.844	40722.32
534.045	40810.39
534.246	41017.23
534.447	40880.02
534.648	41086.86
534.849	41219.98
535.05	40406.94
535.251	40671.12
535.451	40812.43
535.652	40796.05
535.853	41222.03
536.054	40794
536.255	40873.87
536.456	40718.23
536.657	41205.64
536.857	40841.1
537.058	40693.65
537.259	41301.9
537.46	40605.59
537.66	40904.59
537.861	40986.51
538.062	41070.48
538.263	41119.63
538.463	41095.05
538.664	40972.17
538.865	40953.74
539.065	41090.96
539.266	40730.51
539.466	41090.96
539.667	40460.18
539.868	41131.92
540.068	41009.04
540.269	40634.26
540.469	40947.6
540.67	40773.52
540.87	40814.48
541.071	41029.52
541.271	41160.59
541.472	40914.83
541.672	41228.17
541.873	40519.57
542.073	40472.47
542.274	41045.9
542.474	40937.36
542.675	40677.27
542.875	41166.73
543.075	40591.25
543.276	40490.9
543.476	41058.19
543.676	40806.29
543.877	40802.19
544.077	41140.11
544.277	40574.87
544.478	41107.34
544.678	40986.51
544.878	40994.7
545.078	41107.34
545.279	40626.07
545.479	40423.32
545.679	40701.84
545.879	40691.6
546.079	40963.98
546.28	40644.5
546.48	40107.93
546.68	40886.16
546.88	40943.5
547.08	40521.62
547.28	40642.45
547.48	40476.57
547.68	40587.16
547.88	40325.02
548.081	40849.3
548.281	40857.49
548.481	40337.3
548.681	41027.47
548.881	40851.34
549.081	40755.09
549.28	40497.05
549.48	40830.86
549.68	41013.13
549.88	40812.43
550.08	40644.5
550.28	40728.47
550.48	40673.17
550.68	40773.52
550.88	40832.91
551.08	40820.63
551.279	40492.95
551.479	40066.97
551.679	40769.43
551.879	40574.87
552.079	41119.63
552.278	40171.42
552.478	40624.02
552.678	40902.54
552.878	40529.81
553.077	40656.79
553.277	40501.14
553.477	41093
553.676	40726.42
553.876	40703.89
554.076	40415.13
554.275	41181.07
554.475	40566.68
554.674	40667.03
554.874	40771.47
555.074	40621.97
555.273	40540.05
555.473	40994.7
555.672	40398.74
555.872	40568.72
556.071	40200.09
556.271	40771.47
556.47	40593.3
556.67	40304.54
556.869	40949.65
557.068	41082.77
557.268	40179.61
557.467	40492.95
557.667	40497.05
557.866	40466.33
558.065	40363.93
558.265	40335.26
558.464	40320.92
558.663	40505.24
558.863	40087.45
559.062	41189.26
559.261	40134.56
559.461	40955.79
559.66	39972.77
559.859	40460.18
560.058	39864.22
560.258	40488.85
560.457	39993.25
560.656	40333.21
560.855	40130.46
561.054	40595.35
561.253	40005.53
561.453	40150.94
561.652	40507.29
561.851	40368.02
562.05	40275.87
562.249	40187.8
562.448	40470.42
562.647	40130.46
562.846	39958.43
563.045	40019.87
563.244	39905.18
563.443	40538.01
563.642	39696.29
563.841	40216.47
564.04	40071.07
564.239	40329.11
564.438	39946.14
564.637	39927.71
564.836	40419.22
565.035	39661.47
565.234	40091.55
565.432	39950.24
565.631	39864.22
565.83	40290.2
566.029	39495.59
566.228	39813.02
566.427	39849.89
566.625	39669.67
566.824	39339.94
567.023	39888.8
567.222	39286.7
567.42	40128.41
567.619	39698.34
567.818	39870.37
568.016	39694.24
568.215	40265.63
568.414	39710.63
568.612	39759.78
568.811	39501.73
569.01	39638.95
569.208	39255.98
569.407	39765.92
569.605	38969.26
569.804	39712.67
570.002	39372.71
570.201	39786.4
570.4	39229.35
570.598	39124.91
570.797	39014.32
570.995	39296.94
571.193	38858.67
571.392	39217.07
571.59	38977.45
571.789	39155.63
571.987	38975.41
572.186	39004.08
572.384	39180.2
572.582	39018.41
572.781	38920.11
572.979	38299.58
573.177	38682.55
573.376	38981.55
573.574	38692.79
573.772	38948.78
573.971	38682.55
574.169	38571.96
574.367	38062.01
574.565	38485.94
574.763	38266.81
574.962	38444.98
575.16	38154.17
575.358	38389.69
575.556	38047.68
575.754	38633.39
575.952	38246.33
576.151	38598.58
576.349	37898.17
576.547	38152.12
576.745	38162.36
576.943	38197.18
577.141	37957.56
577.339	38172.6
577.537	37619.65
577.735	37836.73
577.933	37369.8
578.131	37758.91
578.329	37607.36
578.527	37726.14
578.725	37439.43
578.923	37912.51
579.121	37103.56
579.319	37304.26
579.516	37801.92
579.714	37429.19
579.912	37502.92
580.11	37117.9
580.308	37425.09
580.506	37191.62
580.704	36485.08
580.901	37085.13
581.099	37228.49
581.297	36779.98
581.495	37377.99
581.692	36870.09
581.89	36663.25
582.088	36700.11
582.285	36829.13
582.483	37152.71
582.681	36736.98
582.878	36501.46
583.076	36513.75
583.274	37144.52
583.471	36415.44
583.669	36644.82
583.866	35880.92
584.064	36458.45
584.262	35923.93
584.459	36437.97
584.657	35985.37
584.854	36370.39
585.052	35583.97
585.249	36184.02
585.447	36085.72
585.644	35536.87
585.841	35661.79
586.039	36079.58
586.236	35459.04
586.434	35676.13
586.631	35313.64
586.828	35696.61
587.026	35561.44
587.223	35422.18
587.42	35235.81
587.618	35467.23
587.815	35303.4
588.012	34922.48
588.21	34836.46
588.407	35360.74
588.604	34758.64
588.801	34111.48
588.999	34908.14
589.196	34361.33
589.393	34791.41
589.59	34801.64
589.787	34224.12
589.984	34402.29
590.182	34269.17
590.379	34758.64
590.576	34285.56
590.773	34410.48
590.97	34142.2
591.167	34445.3
591.364	33976.31
591.561	34332.66
591.758	34181.11
591.955	33884.15
592.152	34062.33
592.349	33669.12
592.546	33878.01
592.743	33955.83
592.94	33251.33
593.137	33566.72
593.334	33869.82
593.531	33341.44
593.727	33417.22
593.924	33462.27
594.121	33277.96
594.318	33359.87
594.515	32831.5
594.712	33323.01
594.908	32974.86
595.105	33005.58
595.302	32632.85
595.499	33103.88
595.696	32876.55
595.892	32395.28
596.089	33087.5
596.286	33087.5
596.482	32569.36
596.679	32448.53
596.876	32550.93
597.072	32546.83
597.269	32382.99
597.466	32131.09
597.662	32321.55
597.859	32122.9
598.055	32294.93
598.252	32213.01
598.448	32352.27
598.645	32137.24
598.841	32092.18
599.038	32051.22
599.234	32184.34
599.431	31871
599.627	31594.53
599.824	31846.43
600.02	31516.7
600.217	31569.95
600.413	31481.89
600.609	31582.24
600.806	31821.85
601.002	31500.32
601.198	31053.86
601.395	31195.17
601.591	31453.22
601.787	31262.75
601.984	31281.19
602.18	31457.31
602.376	30779.43
602.572	31168.55
602.769	31121.45
602.965	30705.71
603.161	30851.11
603.357	31100.97
603.553	30881.83
603.75	31086.63
603.946	30758.95
604.142	30670.89
604.338	30500.91
604.534	30828.59
604.73	30373.94
604.926	30699.56
605.122	30441.52
605.318	30533.68
605.514	30285.87
605.71	30232.63
605.906	30332.98
606.102	30050.36
606.298	30263.35
606.494	30232.63
606.69	30109.75
606.886	30201.91
607.082	29710.39
607.278	30650.41
607.474	29734.97
607.67	30177.33
607.866	29569.08
608.062	30353.46
608.257	29665.34
608.453	29823.03
608.649	29786.17
608.845	29526.08
609.041	29575.23
609.236	29788.22
609.432	29530.17
609.628	29898.81
609.824	29722.68
610.019	29712.44
610.215	29589.56
610.411	29708.35
610.606	29241.41
610.802	29620.28
610.998	29677.63
611.193	29388.86
611.389	29427.77
611.584	29298.75
611.78	29278.27
611.976	29288.51
612.171	29540.41
612.367	29384.77
612.562	29085.76
612.758	28934.21
612.953	29087.81
613.149	29200.45
613.344	29454.4
613.539	29409.34
613.735	29358.14
613.93	29188.16
614.126	29263.94
614.321	29372.48
614.517	29216.83
614.712	29102.15
614.907	28747.85
615.103	29227.07
615.298	28815.43
615.493	29210.69
615.688	28522.57
615.884	29063.24
616.079	28446.8
616.274	29087.81
616.47	28713.03
616.665	28737.61
616.86	28491.85
617.055	28768.33
617.25	28383.31
617.445	28467.28
617.641	28035.16
617.836	28495.95
618.031	28108.88
618.226	28725.32
618.421	27947.09
618.616	28198.99
618.811	27668.57
619.006	28280.91
619.201	27570.27
619.396	27875.41
619.591	27365.47
619.786	27943
619.981	27394.14
620.176	27652.19
620.371	27310.18
620.566	27228.26
620.761	26908.77
620.956	27082.85
621.151	26538.09
621.346	26777.7
621.541	26501.23
621.735	27060.32
621.93	26452.08
622.125	26808.42
622.32	25995.38
622.515	26198.13
622.709	25731.19
622.904	25995.38
623.099	25927.8
623.294	25856.12
623.488	25720.95
623.683	25702.52
623.878	25104.51
624.072	25426.04
624.267	25317.5
624.462	25118.85
624.656	25030.79
624.851	24623.24
625.046	24905.86
625.24	24533.13
625.435	24615.05
625.629	24461.45
625.824	24309.9
626.018	24318.09
626.213	23838.87
626.407	23939.22
626.602	23642.26
626.796	23787.67
626.991	23546.01
627.185	23371.93
627.38	23539.86
627.574	23474.33
627.768	23292.06
627.963	23017.63
628.157	22974.63
628.352	23011.49
628.546	22255.79
628.74	22986.91
628.935	22479.02
629.129	22718.63
629.323	21977.26
629.517	21921.97
629.712	22005.94
629.906	22188.21
630.1	21645.49
630.294	21833.91
630.489	21614.77
630.683	21846.19
630.877	20996.29
631.071	21405.88
631.265	21549.24
631.459	21356.73
631.653	21133.5
631.848	20936.9
632.042	20965.57
632.236	20861.12
632.43	20654.28
632.624	20854.98
632.818	20418.76
633.012	20277.45
633.206	19984.59
633.4	20269.26
633.594	19841.23
633.788	19960.02
633.982	20037.84
634.176	19906.77
634.369	19603.67
634.563	19593.43
634.757	19744.98
634.951	19591.38
635.145	19515.61
635.339	19540.18
635.533	19335.38
635.726	19235.03
635.92	18925.79
636.114	19005.66
636.308	18704.61
636.501	18796.77
636.695	18538.73
636.889	18301.16
637.083	18358.5
637.276	18194.67
637.47	18192.62
637.664	17959.15
637.857	18217.19
638.051	18131.18
638.244	17746.16
638.438	17608.95
638.632	17645.81
638.825	17615.09
639.019	17484.02
639.212	17182.97
639.406	17488.12
639.599	16869.63
639.793	17197.31
639.986	16843.01
640.18	16982.27
640.373	16865.53
640.567	16658.69
640.76	16404.74
640.954	16341.25
641.147	16171.27
641.34	16234.76
641.534	16148.75
641.727	16331.01
641.92	15876.37
642.114	15878.41
642.307	15661.33
642.5	15728.91
642.694	15495.44
642.887	15388.95
643.08	15515.92
643.273	15325.46
643.467	15079.71
643.66	15202.58
643.853	14991.64
644.046	14762.27
644.239	14852.38
644.432	14825.76
644.626	14506.27
644.819	14764.32
645.012	14651.68
645.205	14405.92
645.398	14090.54
645.591	14287.14
645.784	14332.2
645.977	13877.55
646.17	14031.15
646.363	13762.86
646.556	13711.66
646.749	13578.54
646.942	13601.07
647.135	13570.35
647.328	13398.32
647.521	13383.99
647.714	13332.79
647.907	13248.82
648.099	13082.94
648.292	13148.47
648.485	12894.52
648.678	12650.81
648.871	12960.06
649.064	12792.12
649.256	12888.38
649.449	12761.41
649.642	12587.33
649.835	12427.59
650.027	12255.56
650.22	12210.5
650.413	12273.99
650.605	12218.69
650.798	12185.93
650.991	11897.16
651.183	11981.13
651.376	11671.89
651.568	12034.38
651.761	11663.69
651.954	11698.51
652.146	11618.64
652.339	11555.15
652.531	11434.32
652.724	11487.57
652.916	11207
653.109	11241.81
653.301	11139.41
653.494	11217.24
653.686	10922.33
653.879	11098.45
654.071	11030.87
654.263	10907.99
654.456	10727.77
654.648	10991.96
654.84	10594.65
655.033	10424.67
655.225	10752.35
655.417	10414.43
655.61	10563.93
655.802	10305.89
655.994	10246.5
656.186	10510.69
656.379	10230.12
656.571	10119.53
656.763	10088.81
656.955	10008.94
657.148	10074.47
657.34	10152.29
657.532	9728.36
657.724	9851.24
657.916	9714.03
658.108	9754.99
658.3	9576.81
658.492	9705.84
658.684	9369.97
658.876	9539.95
659.068	9195.89
659.26	9378.16
659.452	9259.38
659.644	9159.03
659.836	9294.19
660.028	9113.97
660.22	9111.92
660.412	8956.28
660.604	8743.29
660.796	8796.54
660.988	8911.22
661.18	8833.4
661.372	8634.75
661.563	8767.87
661.755	8544.64
661.947	8595.84
662.139	8534.4
662.331	8526.21
662.522	8477.05
662.714	8399.23
662.906	8276.35
663.097	8262.02
663.289	8270.21
663.481	8178.05
663.673	8198.53
663.864	7967.11
664.056	8042.89
664.247	7985.54
664.439	7915.91
664.631	7842.18
664.822	7969.16
665.014	7735.69
665.205	7788.94
665.397	7655.82
665.588	7739.79
665.78	7600.52
665.971	7563.66
666.163	7723.4
666.354	7539.08
666.546	7494.03
666.737	7481.74
666.929	7362.96
667.12	7395.73
667.311	7336.34
667.503	7283.09
667.694	7213.46
667.885	7098.77
668.077	7168.4
668.268	7035.28
668.459	7006.61
668.651	7049.62
668.842	6924.69
669.033	6898.07
669.224	6801.82
669.416	7041.43
669.607	6910.36
669.798	6762.9
669.989	6803.86
670.18	6910.36
670.371	6797.72
670.563	6693.27
670.754	6807.96
670.945	6654.36
671.136	6683.03
671.327	6449.57
671.518	6386.08
671.709	6695.32
671.9	6484.38
672.091	6418.85
672.282	6500.76
672.473	6459.81
672.664	6449.57
672.855	6267.3
673.046	6246.82
673.237	6572.44
673.428	6334.88
673.619	6302.11
673.809	6105.51
674	6472.09
674.191	6420.89
674.382	6146.47
674.573	6101.41
674.764	6134.18
674.954	6298.02
675.145	5988.77
675.336	6046.12
675.527	6054.31
675.717	6064.55
675.908	5937.57
676.099	6091.17
676.289	6013.35
676.48	5925.29
676.671	5943.72
676.861	6218.15
677.052	5945.77
677.243	5781.93
677.433	5898.66
677.624	5888.42
677.814	5898.66
678.005	5982.63
678.195	5804.46
678.386	5779.88
678.576	5751.21
678.767	5845.41
678.957	5837.22
679.148	5869.99
679.338	5738.92
679.529	5642.67
679.719	5804.46
679.909	5769.64
680.1	5740.97
680.29	5702.06
680.481	5585.32
680.671	5695.91
680.861	5765.54
681.052	5810.6
681.242	5605.8
681.432	5689.77
681.622	5487.02
681.813	5474.73
682.003	5726.63
682.193	5540.27
682.383	5550.51
682.573	5708.2
682.764	5247.41
682.954	5579.18
683.144	5585.32
683.334	5472.68
683.524	5450.16
683.714	5601.71
683.904	5560.75
684.094	5589.42
684.284	5441.96
684.474	5560.75
684.664	5446.06
684.854	5624.23
685.044	5288.37
685.234	5358
685.424	5372.33
685.614	5415.34
685.804	5282.22
685.994	5411.25
686.184	5337.52
686.374	5255.6
686.564	5245.36
686.753	5409.2
686.943	5259.7
687.133	5368.24
687.323	5306.8
687.513	5317.04
687.702	5239.22
687.892	5157.3
688.082	5224.88
688.272	5198.26
688.461	5206.45
688.651	5329.33
688.841	5235.12
689.03	5218.74
689.22	5106.1
689.41	5208.5
689.599	5188.02
689.789	5218.74
689.979	5265.84
690.168	5091.76
690.358	5087.67
690.547	5048.75
690.737	5083.57
690.926	5249.46
691.116	4981.17
691.305	5177.78
691.495	5054.9
691.684	5091.76
691.874	5169.59
692.063	5036.47
692.252	5157.3
692.442	5116.34
692.631	5073.33
692.82	5198.26
693.01	5145.01
693.199	5073.33
693.388	5009.84
693.578	5167.54
693.767	5134.77
693.956	5183.92
694.146	5079.47
694.335	5028.28
694.524	5022.13
694.713	5202.35
694.902	5032.37
695.092	5149.11
695.281	5038.52
695.47	5147.06
695.659	5138.87
695.848	5020.08
696.037	5132.72
696.226	5198.26
696.415	5097.91
696.604	5188.02
696.793	5177.78
696.982	5181.87
697.171	5206.45
697.36	5241.26
697.549	5300.66
697.738	5247.41
697.927	5206.45
698.116	5259.7
698.305	5263.79
698.494	5218.74
698.683	5181.87
698.872	5329.33
699.061	5306.8
699.25	5132.72
699.438	5173.68
699.627	5353.9
699.816	5368.24
700.005	5280.18
700.193	5317.04
700.382	5441.96
700.571	5317.04
700.76	5224.88
700.948	5333.42
701.137	5259.7
701.326	5200.3
701.514	5298.61
701.703	5394.86
701.892	5360.05
702.08	5343.66
702.269	5284.27
702.457	5278.13
702.646	5239.22
702.834	5335.47
703.023	5267.89
703.212	5491.12
703.4	5241.26
703.589	5314.99
703.777	5271.98
703.965	5427.63
704.154	5183.92
704.342	5267.89
704.531	5349.81
704.719	5376.43
704.907	5220.78
705.096	5181.87
705.284	5366.19
705.472	5306.8
705.661	5405.1
705.849	5366.19
706.037	5343.66
706.226	5171.63
706.414	5349.81
706.602	5368.24
706.79	5280.18
706.979	5245.36
707.167	5255.6
707.355	5130.67
707.543	5120.43
707.731	5302.7
707.919	5437.87
708.107	5306.8
708.296	5233.07
708.484	5198.26
708.672	5296.56
708.86	5132.72
709.048	5261.74
709.236	5290.42
709.424	5288.37
709.612	5282.22
709.8	5192.11
709.988	5200.3
710.176	5265.84
710.364	5147.06
710.551	5288.37
710.739	5069.23
710.927	5208.5
711.115	5228.98
711.303	5216.69
711.491	5181.87
711.679	5099.95
711.866	5165.49
712.054	5128.63
712.242	4997.56
712.43	5282.22
712.617	5183.92
712.805	5110.19
712.993	5009.84
713.181	5034.42
713.368	5233.07
713.556	5190.06
713.744	5013.94
713.931	5345.71
714.119	5009.84
714.306	5261.74
714.494	5159.35
714.682	5159.35
714.869	5001.65
715.057	5030.32
715.244	4876.73
715.432	5048.75
715.619	5007.8
715.807	5026.23
715.994	5163.44
716.182	4954.55
716.369	4878.77
716.556	5075.38
716.744	5003.7
716.931	4936.12
717.119	4794.81
717.306	5058.99
717.493	4886.97
717.681	4950.45
717.868	4647.35
718.055	4934.07
718.242	4921.78
718.43	5003.7
718.617	4952.5
718.804	4778.42
718.991	4932.02
719.179	4977.08
719.366	4800.95
719.553	4706.74
719.74	4751.8
719.927	4872.63
720.114	4704.7
720.301	4733.37
720.488	4651.45
720.676	4696.5
720.863	4733.37
721.05	4837.81
721.237	4803
721.424	4694.46
721.611	4733.37
721.798	4628.92
721.985	4651.45
722.172	4633.02
722.358	4626.87
722.545	4649.4
722.732	4606.39
722.919	4639.16
723.106	4647.35
723.293	4561.34
723.48	4565.43
723.667	4518.33
723.853	4444.6
724.04	4620.73
724.227	4606.39
724.414	4579.77
724.6	4475.32
724.787	4575.67
724.974	4647.35
725.161	4481.47
725.347	4448.7
725.534	4344.25
725.72	4485.56
725.907	4399.55
726.094	4608.44
726.28	4260.29
726.467	4469.18
726.653	4409.79
726.84	4340.16
727.027	4340.16
727.213	4479.42
727.4	4358.59
727.586	4440.51
727.773	4340.16
727.959	4334.01
728.145	4407.74
728.332	4338.11
728.518	4180.42
728.705	4295.1
728.891	4297.15
729.077	4264.38
729.264	4266.43
729.45	4188.61
729.636	4207.04
729.823	4229.57
730.009	4305.34
730.195	4149.7
730.382	4006.34
730.568	4186.56
730.754	4227.52
730.94	4299.2
731.126	4358.59
731.313	4186.56
731.499	4221.38
731.685	4202.94
731.871	4116.93
732.057	4192.7
732.243	4051.39
732.429	4014.53
732.615	4110.79
732.801	4086.21
732.987	3973.57
733.173	3955.14
733.359	4053.44
733.545	3961.28
733.731	4047.3
733.917	4184.51
734.103	3928.52
734.289	3965.38
734.475	3914.18
734.661	4051.39
734.847	3961.28
735.033	3975.62
735.219	3946.95
735.404	3834.31
735.59	3824.07
735.776	3690.95
735.962	3869.12
736.148	3865.03
736.333	3908.04
736.519	3693
736.705	3762.63
736.89	3869.12
737.076	3762.63
737.262	3783.11
737.447	3541.45
737.633	3824.07
737.819	3752.39
738.004	3729.86
738.19	3641.8
738.375	3688.9
738.561	3768.77
738.747	3627.46
738.932	3588.55
739.118	3617.22
739.303	3557.83
739.489	3535.31
739.674	3547.59
739.859	3529.16
740.045	3563.98
740.23	3561.93
740.416	3457.48
740.601	3520.97
740.786	3404.24
740.972	3533.26
741.157	3420.62
741.342	3348.94
741.528	3359.18
741.713	3467.72
741.898	3437
742.084	3299.79
742.269	3383.76
742.454	3264.97
742.639	3324.37
742.824	3195.34
743.01	3209.68
743.195	3369.42
743.38	3350.99
743.565	3244.49
743.75	3207.63
743.935	3181.01
744.12	3172.82
744.305	3111.38
744.49	3103.18
744.675	3127.76
744.86	3047.89
745.045	3185.1
745.23	3072.47
745.415	3240.4
745.6	2996.69
745.785	3076.56
745.97	3183.06
746.155	3066.32
746.34	3084.75
746.525	2982.35
746.71	3080.66
746.895	2748.89
747.079	2972.11
747.264	2830.8
747.449	2929.11
747.634	2886.1
747.819	2888.15
748.003	2859.48
748.188	2814.42
748.373	2709.97
748.557	2808.28
748.742	2785.75
748.927	2755.03
749.111	2685.4
749.296	2664.92
749.481	2734.55
749.665	2568.66
749.85	2628.06
750.034	2728.41
750.219	2638.3
750.404	2556.38
750.588	2523.61
750.773	2439.64
750.957	2484.7
751.141	2619.86
751.326	2478.55
751.51	2443.74
751.695	2431.45
751.879	2507.23
752.064	2572.76
752.248	2427.35
752.432	2499.03
752.617	2394.59
752.801	2413.02
752.985	2294.24
753.17	2445.79
753.354	2288.09
753.538	2277.85
753.722	2304.48
753.907	2234.85
754.091	2157.02
754.275	2292.19
754.459	2281.95
754.643	2181.6
754.828	2142.69
755.012	2130.4
755.196	2218.46
755.38	2079.2
755.564	2081.25
755.748	2071.01
755.932	2236.89
756.116	2197.98
756.3	2083.3
756.484	2126.3
756.668	2097.63
756.852	1937.89
757.036	1956.32
757.22	2048.48
757.404	2083.3
757.588	1980.9
757.772	1976.8
757.956	1974.75
758.14	2021.86
758.323	1825.25
758.507	1931.75
758.691	1948.13
758.875	1898.98
759.059	1839.59
759.242	1937.89
759.426	1845.73
759.61	1888.74
759.794	1751.53
759.977	1858.02
760.161	1898.98
760.345	1876.45
760.528	1729
760.712	1724.9
760.895	1757.67
761.079	1751.53
761.263	1751.53
761.446	1751.53
761.63	1769.96
761.813	1831.4
761.997	1784.29
762.18	1739.24
762.364	1769.96
762.547	1692.13
762.731	1632.74
762.914	1669.61
763.098	1671.65
763.281	1692.13
763.464	1618.41
763.648	1645.03
763.831	1651.17
764.015	1552.87
764.198	1624.55
764.381	1638.89
764.564	1651.17
764.748	1587.69
764.931	1647.08
765.114	1526.25
765.297	1567.21
765.481	1505.77
765.664	1579.5
765.847	1622.5
766.03	1530.34
766.213	1608.17
766.397	1499.63
766.58	1505.77
766.763	1536.49
766.946	1503.72
767.129	1462.76
767.312	1491.43
767.495	1448.43
767.678	1425.9
767.861	1466.86
768.044	1386.99
768.227	1391.08
768.41	1450.47
768.593	1606.12
768.776	1462.76
768.959	1473
769.142	1491.43
769.324	1487.34
769.507	1444.33
769.69	1423.85
769.873	1341.93
770.056	1481.19
770.239	1415.66
770.421	1458.67
770.604	1419.75
770.787	1380.84
770.97	1448.43
771.152	1282.54
771.335	1458.67
771.518	1292.78
771.7	1374.7
771.883	1489.39
772.066	1325.55
772.248	1397.23
772.431	1405.42
772.613	1305.07
772.796	1323.5
772.978	1255.92
773.161	1358.32
773.343	1223.15
773.526	1239.53
773.708	1145.33
773.891	1286.64
774.073	1139.18
774.256	1247.72
774.438	1219.05
774.621	1264.11
774.803	1323.5
774.985	1153.52
775.168	1229.29
775.35	1247.72
775.532	1053.17
775.715	1219.05
775.897	1085.94
776.079	1188.33
776.261	1067.5
776.444	1118.7
776.626	1204.72
776.808	1188.33
776.99	1143.28
777.173	1090.03
777.355	1139.18
777.537	1006.06
777.719	1063.41
777.901	1094.13
778.083	1161.71
778.265	1098.22
778.447	1073.65
778.629	1051.12
778.811	1026.54
778.993	1026.54
779.175	1036.78
779.357	1071.6
779.539	950.77
779.721	1001.97
779.903	987.63
780.085	1036.78
780.267	926.19
780.449	1073.65
780.631	1047.02
780.812	1079.79
780.994	963.06
781.176	1034.74
781.358	1010.16
781.54	846.32
781.721	922.1
781.903	868.85
782.085	860.66
782.267	1006.06
782.448	801.27
782.63	897.52
782.812	932.34
782.993	891.38
783.175	907.76
783.357	829.94
783.538	885.23
783.72	791.03
783.901	811.51
784.083	840.18
784.264	848.37
784.446	713.21
784.627	731.64
784.809	762.36
784.99	725.49
785.172	758.26
785.353	834.04
785.535	823.8
785.716	745.97
785.897	727.54
786.079	768.5
786.26	733.68
786.441	811.51
786.623	623.09
786.804	723.44
786.985	723.44
787.167	764.4
787.348	659.96
787.529	668.15
787.71	819.7
787.891	668.15
788.073	643.57
788.254	569.85
788.435	705.01
788.616	571.9
788.797	664.05
788.978	649.72
789.159	643.57
789.34	702.97
789.522	682.49
789.703	594.42
789.884	649.72
790.065	571.9
790.246	725.49
790.427	551.42
790.607	776.69
790.788	614.9
790.969	524.79
791.15	637.43
791.331	549.37
791.512	549.37
791.693	588.28
791.874	528.89
792.054	674.29
792.235	610.81
792.416	528.89
792.597	557.56
792.778	598.52
792.958	543.22
793.139	485.88
793.32	557.56
793.5	479.74
793.681	635.38
793.862	518.65
794.042	528.89
794.223	528.89
794.404	520.7
794.584	397.82
794.765	608.76
794.945	549.37
795.126	516.6
795.306	475.64
795.487	569.85
795.667	463.35
795.848	496.12
796.028	342.52
796.209	469.5
796.389	526.84
796.57	514.55
796.75	465.4
796.93	487.93
797.111	401.91
797.291	408.06
797.471	449.02
797.652	430.59
797.832	389.63
798.012	522.74
798.192	463.35
798.373	365.05
798.553	424.44
798.733	414.2
798.913	383.48
799.093	391.67
799.274	469.5
799.454	469.5
799.634	479.74
799.814	489.98
799.994	434.68
800.174	371.19
800.354	391.67
800.534	328.19
800.714	459.26
800.894	332.28
801.074	414.2
801.254	391.67
801.434	453.11
801.614	360.95
801.794	383.48
801.974	1352.17
802.154	346.62
802.334	408.06
802.514	397.82
802.693	367.1
802.873	375.29
803.053	377.34
803.233	303.61
803.413	399.87
803.592	340.47
803.772	305.66
803.952	352.76
804.131	260.6
804.311	332.28
804.491	449.02
804.67	295.42
804.85	260.6
805.03	428.54
805.209	446.97
805.389	289.28
805.568	369.15
805.748	307.71
805.928	313.85
806.107	358.91
806.287	320
806.466	373.24
806.646	281.08
806.825	289.28
807.004	313.85
807.184	326.14
807.363	346.62
807.543	293.37
807.722	229.88
807.901	342.52
808.081	336.38
808.26	254.46
808.439	324.09
808.619	336.38
808.798	231.93
808.977	248.32
809.156	317.95
809.336	268.8
809.515	322.04
809.694	307.71
809.873	266.75
810.052	291.32
810.231	317.95
810.411	209.4
810.59	328.19
810.769	309.76
810.948	268.8
811.127	178.69
811.306	225.79
811.485	233.98
811.664	303.61
811.843	186.88
812.022	252.41
812.201	258.56
812.38	274.94
812.559	215.55
812.737	283.13
812.916	203.26
813.095	266.75
813.274	264.7
813.453	334.33
813.632	281.08
813.811	266.75
813.989	274.94
814.168	184.83
814.347	221.69
814.526	221.69
814.704	209.4
814.883	199.16
815.062	158.21
815.24	274.94
815.419	174.59
815.598	289.28
815.776	199.16
815.955	197.12
816.133	168.45
816.312	172.54
816.49	186.88
816.669	168.45
816.847	215.55
817.026	250.36
817.204	199.16
817.383	250.36
817.561	152.06
817.74	233.98
817.918	242.17
818.097	199.16
818.275	133.63
818.453	193.02
818.632	162.3
818.81	182.78
818.988	154.11
819.167	240.12
819.345	201.21
819.523	162.3
819.701	119.29
819.879	299.52
820.058	129.53
820.236	166.4
820.414	135.68
820.592	182.78
820.77	156.16
820.948	111.1
821.127	119.29
821.305	197.12
821.483	129.53
821.661	219.64
821.839	166.4
822.017	131.58
822.195	37.38
822.373	233.98
822.551	236.03
822.729	209.4
822.907	164.35
823.085	244.22
823.262	223.74
823.44	190.97
823.618	90.62
823.796	168.45
823.974	152.06
824.152	117.25
824.329	156.16
824.507	217.6
824.685	250.36
824.863	170.49
825.04	211.45
825.218	274.94
825.396	156.16
825.574	205.31
825.751	154.11
825.929	139.77
826.107	172.54
826.284	102.91
826.462	107.01
826.639	107.01
826.817	51.71
826.994	129.53
827.172	53.76
827.349	242.17
827.527	104.96
827.704	129.53
827.882	145.92
828.059	184.83
828.237	152.06
828.414	209.4
828.591	-15.87
828.769	104.96
828.946	68.09
829.124	178.69
829.301	86.53
829.478	119.29
829.655	166.4
829.833	166.4
830.01	84.48
830.187	117.25
830.364	70.14
830.542	182.78
830.719	160.25
830.896	145.92
831.073	152.06
831.25	96.77
831.427	158.21
831.604	113.15
831.782	31.23
831.959	150.01
832.136	133.63
832.313	135.68
832.49	80.38
832.667	135.68
832.844	113.15
833.021	94.72
833.198	82.43
833.374	193.02
833.551	100.86
833.728	119.29
833.905	152.06
834.082	82.43
834.259	92.67
834.436	150.01
834.612	20.99
834.789	135.68
834.966	70.14
835.143	145.92
835.319	-22.02
835.496	45.57
835.673	113.15
835.85	129.53
836.026	53.76
836.203	94.72
836.38	41.47
836.556	41.47
836.733	121.34
836.909	125.44
837.086	6.66
837.262	49.66
837.439	125.44
837.616	68.09
837.792	-5.63
837.968	35.33
838.145	39.42
838.321	49.66
838.498	137.73
838.674	92.67
838.851	49.66
839.027	61.95
839.203	113.15
839.38	74.24
839.556	29.18
839.732	127.49
839.909	102.91
840.085	104.96
840.261	41.47
840.437	64
840.614	31.23
840.79	131.58
840.966	61.95
841.142	49.66
841.318	33.28
841.494	102.91
841.671	96.77
841.847	4.61
842.023	68.09
842.199	104.96
842.375	121.34
842.551	37.38
842.727	33.28
842.903	147.97
843.079	29.18
843.255	100.86
843.431	119.29
843.607	45.57
843.783	31.23
843.959	107.01
844.134	80.38
844.31	119.29
844.486	-3.58
844.662	66.05
844.838	37.38
845.013	90.62
845.189	37.38
845.365	39.42
845.541	57.86
845.716	-11.78
845.892	125.44
846.068	76.29
846.244	-7.68
846.419	84.48
846.595	-28.16
846.77	-28.16
846.946	66.05
847.122	-11.78
847.297	53.76
847.473	59.9
847.648	51.71
847.824	74.24
847.999	-38.4
848.175	23.04
848.35	92.67
848.526	70.14
848.701	72.19
848.876	109.05
849.052	45.57
849.227	23.04
849.403	49.66
849.578	2.56
849.753	66.05
849.929	33.28
850.104	10.75
850.279	90.62
850.454	66.05
850.63	27.14
850.805	8.7
850.98	115.2
851.155	74.24
851.33	-5.63
851.505	-36.35
851.681	115.2
851.856	33.28
852.031	100.86
852.206	33.28
852.381	84.48
852.556	68.09
852.731	66.05
852.906	49.66
853.081	31.23
853.256	72.19
853.431	37.38
853.606	-22.02
853.781	61.95
853.956	-13.82
854.131	4.61
854.305	39.42
854.48	84.48
854.655	18.94
854.83	23.04
855.005	0.51
855.18	92.67
855.354	43.52
855.529	14.85
855.704	37.38
855.879	6.66
856.053	16.9
856.228	70.14
856.403	-32.26
856.577	8.7
856.752	-36.35
856.926	33.28
857.101	86.53
857.276	-30.21
857.45	78.33
857.625	133.63
857.799	-11.78
857.974	96.77
858.148	6.66
858.323	-28.16
858.497	-19.97
858.672	-26.11
858.846	-24.06
859.02	121.34
859.195	-28.16
859.369	10.75
859.543	45.57
859.718	55.81
859.892	-9.73
860.066	55.81
860.241	-1.54
860.415	-54.78
860.589	45.57
860.763	18.94
860.938	-5.63
861.112	25.09
861.286	43.52
861.46	-15.87
861.634	-5.63
861.808	64
861.982	8.7
862.157	37.38
862.331	-1.54
862.505	-77.31
862.679	39.42
862.853	25.09
863.027	12.8
863.201	100.86
863.375	12.8
863.549	57.86
863.722	72.19
863.896	57.86
864.07	-60.93
864.244	47.62
864.418	-32.26
864.592	-19.97
864.766	10.75
864.939	-56.83
865.113	2.56
865.287	-32.26
865.461	16.9
865.634	8.7
865.808	-54.78
865.982	-26.11
866.156	-58.88
866.329	-38.4
866.503	33.28
866.676	55.81
866.85	-17.92
867.024	29.18
867.197	74.24
867.371	61.95
867.544	84.48
867.718	-97.79
867.891	64
868.065	-60.93
868.238	35.33
868.412	41.47
868.585	33.28
868.759	-26.11
868.932	-17.92
869.105	-19.97
869.279	8.7
869.452	-58.88
869.625	-15.87
869.799	20.99
869.972	-9.73
870.145	4.61
870.319	6.66
870.492	33.28
870.665	88.57
870.838	8.7
871.011	-79.36
871.185	57.86
871.358	10.75
871.531	10.75
871.704	6.66
871.877	-34.3
872.05	37.38
872.223	-60.93
872.396	104.96
872.569	23.04
872.742	-52.74
872.915	14.85
873.088	-24.06
873.261	-30.21
873.434	53.76
873.607	-58.88
873.78	33.28
873.953	-69.12
874.126	14.85
874.299	6.66
874.471	-19.97
874.644	45.57
874.817	88.57
874.99	66.05
875.163	-67.07
875.335	-38.4
875.508	51.71
875.681	98.81
875.853	-60.93
876.026	16.9
876.199	31.23
876.371	-17.92
876.544	12.8
876.717	47.62
876.889	16.9
877.062	31.23
877.234	-24.06
877.407	2.56
877.579	-11.78
877.752	84.48
877.924	74.24
878.097	-7.68
878.269	-9.73
878.442	4.61
878.614	64
878.786	76.29
878.959	-24.06
879.131	78.33
879.303	-103.93
879.476	4.61
879.648	0.51
879.82	41.47
879.993	-34.3
880.165	-60.93
880.337	-69.12
880.509	-34.3
880.681	-28.16
880.854	-71.17
881.026	61.95
881.198	70.14
881.37	41.47
881.542	-15.87
881.714	-58.88
881.886	61.95
882.058	-11.78
882.23	10.75
882.402	45.57
882.574	-3.58
882.746	37.38
882.918	115.2
883.09	20.99
883.262	-44.54
883.434	29.18
883.606	-52.74
883.778	66.05
883.95	25.09
884.122	-42.5
884.293	78.33
884.465	47.62
884.637	-7.68
884.809	-5.63
884.98	70.14
885.152	29.18
885.324	8.7
885.496	-89.6
885.667	-56.83
885.839	-19.97
886.011	109.05
886.182	-38.4
886.354	-5.63
886.525	-48.64
886.697	-1.54
886.869	-30.21
887.04	39.42
887.212	41.47
887.383	96.77
887.555	-17.92
887.726	-19.97
887.897	-24.06
888.069	102.91
888.24	68.09
888.412	14.85
888.583	-50.69
888.754	10.75
888.926	-26.11
889.097	12.8
889.268	-46.59
889.44	45.57
889.611	-58.88
889.782	-73.21
889.953	-99.84
890.125	51.71
890.296	-79.36
890.467	-75.26
890.638	-36.35
890.809	-48.64
890.98	25.09
891.151	29.18
891.323	61.95
891.494	41.47
891.665	57.86
891.836	72.19
892.007	-50.69
892.178	-19.97
892.349	41.47
892.52	-19.97
892.691	25.09
892.862	35.33
893.032	-54.78
893.203	-26.11
893.374	-24.06
893.545	12.8
893.716	-103.93
893.887	43.52
894.057	-44.54
894.228	-30.21
894.399	-48.64
894.57	55.81
894.74	18.94
894.911	-1.54
895.082	-99.84
895.253	-50.69
895.423	37.38
895.594	127.49
895.764	2.56
895.935	-67.07
896.106	25.09
896.276	23.04
896.447	2.56
896.617	-3.58
896.788	-87.55
896.958	-46.59
897.129	-1.54
897.299	-24.06
897.47	-13.82
897.64	16.9
897.81	-13.82
897.981	6.66
898.151	6.66
898.322	59.9
898.492	72.19
898.662	6.66
898.832	-44.54
899.003	-30.21
899.173	8.7
899.343	-54.78
899.513	-77.31
