Data from USB4F104151__87__12-13-00-750.txt Node

Date: Fri Mar 14 12:13:00 EDT 2025
User: louis
Spectrometer: USB4F10415
Trigger mode: 4
Integration Time (sec): 5.000000E-2
Scans to average: 1
Electric dark correction enabled: true
Nonlinearity correction enabled: false
Boxcar width: 0
XAxis mode: Wavelengths
Number of Pixels in Spectrum: 3648
>>>>>Begin Spectral Data<<<<<
178.204	-216.74
178.424	-216.74
178.644	-216.74
178.864	-249.51
179.084	-196.26
179.304	-13.99
179.524	-28.33
179.744	-32.43
179.964	96.6
180.184	-38.57
180.404	-40.62
180.624	31.06
180.844	22.87
181.064	-22.19
181.283	-16.04
181.503	33.11
181.723	8.53
181.943	-46.76
182.163	104.79
182.383	2.39
182.602	18.77
182.822	53.59
183.042	65.88
183.262	-42.67
183.482	88.4
183.701	20.82
183.921	49.49
184.141	6.49
184.361	43.35
184.58	57.68
184.8	57.68
185.02	-26.28
185.239	88.4
185.459	14.68
185.679	72.02
185.898	-87.72
186.118	76.12
186.338	69.97
186.557	-3.75
186.777	-1.71
186.997	24.92
187.216	-28.33
187.436	106.84
187.655	80.21
187.875	49.49
188.095	43.35
188.314	86.36
188.534	74.07
188.753	12.63
188.973	59.73
189.192	102.74
189.412	67.92
189.631	20.82
189.851	82.26
190.07	88.4
190.29	2.39
190.509	20.82
190.729	45.4
190.948	115.03
191.168	184.66
191.387	162.13
191.607	67.92
191.826	43.35
192.045	69.97
192.265	63.83
192.484	-20.14
192.704	61.78
192.923	-46.76
193.142	166.23
193.362	-20.14
193.581	45.4
193.8	65.88
194.02	100.69
194.239	43.35
194.458	57.68
194.678	47.44
194.897	41.3
195.116	69.97
195.335	57.68
195.555	82.26
195.774	20.82
195.993	31.06
196.212	35.16
196.432	53.59
196.651	51.54
196.87	47.44
197.089	133.46
197.308	53.59
197.528	72.02
197.747	35.16
197.966	39.25
198.185	84.31
198.404	-30.38
198.623	22.87
198.842	82.26
199.062	94.55
199.281	84.31
199.5	59.73
199.719	45.4
199.938	108.88
200.157	-3.75
200.376	67.92
200.595	133.46
200.814	43.35
201.033	59.73
201.252	174.42
201.471	59.73
201.69	92.5
201.909	86.36
202.128	65.88
202.347	-7.85
202.566	26.96
202.785	35.16
203.004	16.73
203.223	182.61
203.442	-1.71
203.661	63.83
203.879	31.06
204.098	127.32
204.317	22.87
204.536	78.16
204.755	61.78
204.974	143.7
205.193	2.39
205.411	106.84
205.63	51.54
205.849	100.69
206.068	26.96
206.287	41.3
206.505	63.83
206.724	0.34
206.943	-34.47
207.162	35.16
207.381	31.06
207.599	-52.91
207.818	65.88
208.037	43.35
208.255	-13.99
208.474	-7.85
208.693	2.39
208.911	43.35
209.13	24.92
209.349	33.11
209.567	61.78
209.786	47.44
210.005	8.53
210.223	61.78
210.442	37.2
210.661	14.68
210.879	90.45
211.098	33.11
211.316	80.21
211.535	-30.38
211.753	-16.04
211.972	35.16
212.191	2.39
212.409	80.21
212.628	102.74
212.846	43.35
213.065	2.39
213.283	143.7
213.502	-40.62
213.72	63.83
213.938	82.26
214.157	84.31
214.375	59.73
214.594	26.96
214.812	108.88
215.031	6.49
215.249	2.39
215.467	57.68
215.686	26.96
215.904	82.26
216.122	43.35
216.341	65.88
216.559	108.88
216.778	147.8
216.996	57.68
217.214	-7.85
217.432	12.63
217.651	-42.67
217.869	26.96
218.087	59.73
218.306	47.44
218.524	49.49
218.742	16.73
218.96	-3.75
219.179	22.87
219.397	20.82
219.615	149.84
219.833	-30.38
220.051	-46.76
220.27	41.3
220.488	6.49
220.706	29.01
220.924	53.59
221.142	80.21
221.36	2.39
221.578	-24.23
221.796	31.06
222.015	12.63
222.233	86.36
222.451	164.18
222.669	-67.24
222.887	102.74
223.105	12.63
223.323	6.49
223.541	-20.14
223.759	86.36
223.977	45.4
224.195	92.5
224.413	12.63
224.631	106.84
224.849	14.68
225.067	76.12
225.285	43.35
225.503	6.49
225.721	-38.57
225.939	39.25
226.157	67.92
226.375	162.13
226.592	37.2
226.81	63.83
227.028	14.68
227.246	110.93
227.464	162.13
227.682	104.79
227.9	43.35
228.117	2.39
228.335	45.4
228.553	-40.62
228.771	45.4
228.989	72.02
229.206	67.92
229.424	-91.82
229.642	8.53
229.86	20.82
230.077	88.4
230.295	31.06
230.513	112.98
230.731	104.79
230.948	61.78
231.166	104.79
231.384	55.64
231.601	39.25
231.819	100.69
232.037	-24.23
232.254	-5.8
232.472	80.21
232.689	-110.25
232.907	31.06
233.125	20.82
233.342	2.39
233.56	-24.23
233.777	14.68
233.995	49.49
234.213	45.4
234.43	-9.9
234.648	-22.19
234.865	43.35
235.083	33.11
235.3	-100.01
235.518	102.74
235.735	59.73
235.953	106.84
236.17	76.12
236.388	26.96
236.605	18.77
236.822	112.98
237.04	51.54
237.257	4.44
237.475	-1.71
237.692	94.55
237.909	119.12
238.127	-38.57
238.344	78.16
238.562	-32.43
238.779	-1.71
238.996	-46.76
239.214	45.4
239.431	16.73
239.648	-9.9
239.865	135.51
240.083	24.92
240.3	-13.99
240.517	10.58
240.735	10.58
240.952	16.73
241.169	12.63
241.386	94.55
241.603	41.3
241.821	35.16
242.038	61.78
242.255	45.4
242.472	55.64
242.689	29.01
242.907	51.54
243.124	45.4
243.341	41.3
243.558	63.83
243.775	-42.67
243.992	-3.75
244.209	20.82
244.426	108.88
244.643	108.88
244.86	31.06
245.078	-32.43
245.295	108.88
245.512	59.73
245.729	2.39
245.946	10.58
246.163	8.53
246.38	55.64
246.597	-7.85
246.814	53.59
247.031	24.92
247.248	104.79
247.464	88.4
247.681	39.25
247.898	20.82
248.115	4.44
248.332	-24.23
248.549	74.07
248.766	119.12
248.983	61.78
249.2	141.65
249.417	92.5
249.633	-5.8
249.85	65.88
250.067	67.92
250.284	-13.99
250.501	59.73
250.717	80.21
250.934	14.68
251.151	22.87
251.368	41.3
251.585	26.96
251.801	98.64
252.018	-32.43
252.235	69.97
252.451	20.82
252.668	55.64
252.885	53.59
253.102	37.2
253.318	69.97
253.535	14.68
253.752	-24.23
253.968	16.73
254.185	-9.9
254.401	10.58
254.618	4.44
254.835	53.59
255.051	96.6
255.268	16.73
255.484	80.21
255.701	43.35
255.917	14.68
256.134	24.92
256.351	47.44
256.567	72.02
256.784	-44.71
257	39.25
257.217	86.36
257.433	39.25
257.65	45.4
257.866	74.07
258.082	-42.67
258.299	-11.95
258.515	2.39
258.732	51.54
258.948	67.92
259.165	37.2
259.381	6.49
259.597	0.34
259.814	59.73
260.03	18.77
260.246	100.69
260.463	117.08
260.679	26.96
260.895	31.06
261.112	45.4
261.328	43.35
261.544	14.68
261.761	129.36
261.977	22.87
262.193	12.63
262.409	96.6
262.626	33.11
262.842	31.06
263.058	-54.95
263.274	-38.57
263.49	69.97
263.707	76.12
263.923	106.84
264.139	-44.71
264.355	51.54
264.571	43.35
264.787	20.82
265.004	86.36
265.22	29.01
265.436	6.49
265.652	-32.43
265.868	-67.24
266.084	-11.95
266.3	33.11
266.516	78.16
266.732	37.2
266.948	14.68
267.164	14.68
267.38	20.82
267.596	8.53
267.812	131.41
268.028	98.64
268.244	18.77
268.46	29.01
268.676	-7.85
268.892	37.2
269.108	-57
269.324	49.49
269.54	-13.99
269.756	98.64
269.972	61.78
270.188	-3.75
270.403	-67.24
270.619	22.87
270.835	86.36
271.051	8.53
271.267	-20.14
271.483	-20.14
271.698	72.02
271.914	65.88
272.13	39.25
272.346	92.5
272.562	-34.47
272.777	74.07
272.993	-34.47
273.209	-16.04
273.425	39.25
273.64	-7.85
273.856	61.78
274.072	76.12
274.287	-42.67
274.503	102.74
274.719	37.2
274.934	10.58
275.15	-28.33
275.366	-16.04
275.581	26.96
275.797	-26.28
276.012	4.44
276.228	-48.81
276.444	2.39
276.659	-7.85
276.875	-20.14
277.09	37.2
277.306	80.21
277.521	112.98
277.737	26.96
277.952	35.16
278.168	51.54
278.383	49.49
278.599	43.35
278.814	98.64
279.03	49.49
279.245	82.26
279.461	16.73
279.676	55.64
279.892	63.83
280.107	8.53
280.322	-22.19
280.538	0.34
280.753	-30.38
280.969	59.73
281.184	26.96
281.399	100.69
281.615	63.83
281.83	-1.71
282.045	-52.91
282.26	-20.14
282.476	-3.75
282.691	63.83
282.906	-26.28
283.122	35.16
283.337	35.16
283.552	102.74
283.767	16.73
283.983	26.96
284.198	49.49
284.413	102.74
284.628	-93.87
284.843	47.44
285.058	55.64
285.274	41.3
285.489	-7.85
285.704	67.92
285.919	-11.95
286.134	24.92
286.349	88.4
286.564	4.44
286.779	80.21
286.995	-30.38
287.21	6.49
287.425	57.68
287.64	-30.38
287.855	51.54
288.07	-42.67
288.285	96.6
288.5	76.12
288.715	59.73
288.93	8.53
289.145	6.49
289.36	72.02
289.575	57.68
289.79	59.73
290.004	55.64
290.219	117.08
290.434	39.25
290.649	-18.09
290.864	59.73
291.079	22.87
291.294	8.53
291.509	-26.28
291.724	2.39
291.938	-36.52
292.153	-16.04
292.368	59.73
292.583	20.82
292.798	24.92
293.012	26.96
293.227	55.64
293.442	33.11
293.657	92.5
293.871	168.27
294.086	78.16
294.301	117.08
294.516	143.7
294.73	16.73
294.945	67.92
295.16	-44.71
295.374	151.89
295.589	29.01
295.804	-1.71
296.018	14.68
296.233	143.7
296.447	-18.09
296.662	6.49
296.877	10.58
297.091	37.2
297.306	31.06
297.52	2.39
297.735	8.53
297.949	123.22
298.164	90.45
298.378	14.68
298.593	65.88
298.807	24.92
299.022	-5.8
299.236	63.83
299.451	24.92
299.665	-65.19
299.88	22.87
300.094	33.11
300.309	55.64
300.523	74.07
300.737	-11.95
300.952	45.4
301.166	86.36
301.381	2.39
301.595	88.4
301.809	125.27
302.024	35.16
302.238	-5.8
302.452	78.16
302.667	26.96
302.881	86.36
303.095	22.87
303.309	22.87
303.524	-13.99
303.738	-46.76
303.952	-44.71
304.166	4.44
304.381	-34.47
304.595	45.4
304.809	-63.15
305.023	8.53
305.237	57.68
305.452	80.21
305.666	119.12
305.88	110.93
306.094	18.77
306.308	18.77
306.522	65.88
306.736	39.25
306.95	123.22
307.164	35.16
307.379	57.68
307.593	110.93
307.807	74.07
308.021	78.16
308.235	67.92
308.449	-38.57
308.663	-42.67
308.877	127.32
309.091	-44.71
309.305	16.73
309.519	-46.76
309.733	76.12
309.947	-30.38
310.161	57.68
310.374	29.01
310.588	74.07
310.802	45.4
311.016	-13.99
311.23	43.35
311.444	-18.09
311.658	31.06
311.872	104.79
312.085	74.07
312.299	82.26
312.513	133.46
312.727	94.55
312.941	43.35
313.154	39.25
313.368	59.73
313.582	6.49
313.796	-1.71
314.009	49.49
314.223	119.12
314.437	-18.09
314.651	49.49
314.864	49.49
315.078	16.73
315.292	-30.38
315.505	49.49
315.719	12.63
315.933	14.68
316.146	-100.01
316.36	0.34
316.573	100.69
316.787	88.4
317.001	33.11
317.214	24.92
317.428	4.44
317.641	10.58
317.855	45.4
318.068	41.3
318.282	6.49
318.495	59.73
318.709	69.97
318.922	24.92
319.136	53.59
319.349	80.21
319.563	41.3
319.776	-9.9
319.99	-73.39
320.203	43.35
320.417	31.06
320.63	168.27
320.843	37.2
321.057	61.78
321.27	55.64
321.483	55.64
321.697	61.78
321.91	88.4
322.124	57.68
322.337	80.21
322.55	-16.04
322.763	55.64
322.977	29.01
323.19	63.83
323.403	59.73
323.617	104.79
323.83	129.36
324.043	123.22
324.256	43.35
324.469	14.68
324.683	112.98
324.896	53.59
325.109	-46.76
325.322	-13.99
325.535	108.88
325.748	65.88
325.962	94.55
326.175	43.35
326.388	65.88
326.601	98.64
326.814	72.02
327.027	90.45
327.24	151.89
327.453	-63.15
327.666	92.5
327.879	121.17
328.092	69.97
328.305	90.45
328.518	37.2
328.731	43.35
328.944	33.11
329.157	12.63
329.37	18.77
329.583	104.79
329.796	131.41
330.009	-30.38
330.222	139.6
330.435	94.55
330.648	-13.99
330.861	67.92
331.073	55.64
331.286	82.26
331.499	61.78
331.712	-18.09
331.925	47.44
332.138	22.87
332.35	100.69
332.563	-18.09
332.776	43.35
332.989	12.63
333.202	43.35
333.414	18.77
333.627	76.12
333.84	-1.71
334.053	43.35
334.265	84.31
334.478	47.44
334.691	-34.47
334.903	45.4
335.116	33.11
335.329	29.01
335.541	82.26
335.754	119.12
335.966	45.4
336.179	4.44
336.392	53.59
336.604	86.36
336.817	90.45
337.029	82.26
337.242	88.4
337.454	12.63
337.667	-5.8
337.88	76.12
338.092	33.11
338.305	129.36
338.517	65.88
338.729	35.16
338.942	84.31
339.154	18.77
339.367	10.58
339.579	108.88
339.792	35.16
340.004	88.4
340.217	-7.85
340.429	65.88
340.641	14.68
340.854	45.4
341.066	-1.71
341.278	102.74
341.491	63.83
341.703	65.88
341.915	-57
342.128	123.22
342.34	-5.8
342.552	57.68
342.764	-13.99
342.977	67.92
343.189	82.26
343.401	49.49
343.613	-7.85
343.826	0.34
344.038	29.01
344.25	43.35
344.462	4.44
344.674	-22.19
344.886	65.88
345.099	98.64
345.311	88.4
345.523	78.16
345.735	-46.76
345.947	88.4
346.159	37.2
346.371	82.26
346.583	-24.23
346.795	96.6
347.007	-34.47
347.219	26.96
347.431	37.2
347.643	110.93
347.855	45.4
348.067	119.12
348.279	37.2
348.491	72.02
348.703	141.65
348.915	69.97
349.127	-34.47
349.339	100.69
349.551	49.49
349.763	57.68
349.975	37.2
350.187	72.02
350.399	108.88
350.61	74.07
350.822	115.03
351.034	65.88
351.246	92.5
351.458	112.98
351.669	22.87
351.881	106.84
352.093	39.25
352.305	131.41
352.517	80.21
352.728	84.31
352.94	-13.99
353.152	53.59
353.363	29.01
353.575	80.21
353.787	112.98
353.999	76.12
354.21	72.02
354.422	155.99
354.633	-20.14
354.845	100.69
355.057	37.2
355.268	-1.71
355.48	22.87
355.692	-16.04
355.903	12.63
356.115	20.82
356.326	-61.1
356.538	110.93
356.749	94.55
356.961	143.7
357.172	22.87
357.384	29.01
357.595	139.6
357.807	-22.19
358.018	29.01
358.23	61.78
358.441	123.22
358.653	35.16
358.864	74.07
359.075	29.01
359.287	-16.04
359.498	115.03
359.709	26.96
359.921	31.06
360.132	86.36
360.344	98.64
360.555	8.53
360.766	43.35
360.977	-11.95
361.189	45.4
361.4	102.74
361.611	96.6
361.823	137.56
362.034	24.92
362.245	-18.09
362.456	41.3
362.667	51.54
362.879	-59.05
363.09	53.59
363.301	39.25
363.512	51.54
363.723	-11.95
363.935	-16.04
364.146	43.35
364.357	43.35
364.568	63.83
364.779	29.01
364.99	135.51
365.201	18.77
365.412	45.4
365.623	12.63
365.834	63.83
366.045	33.11
366.256	72.02
366.467	176.47
366.678	35.16
366.889	33.11
367.1	20.82
367.311	117.08
367.522	16.73
367.733	82.26
367.944	117.08
368.155	49.49
368.366	98.64
368.577	43.35
368.788	65.88
368.999	-7.85
369.209	61.78
369.42	219.47
369.631	145.75
369.842	104.79
370.053	18.77
370.264	125.27
370.474	0.34
370.685	51.54
370.896	18.77
371.107	49.49
371.317	20.82
371.528	2.39
371.739	110.93
371.95	129.36
372.16	57.68
372.371	41.3
372.582	8.53
372.792	69.97
373.003	100.69
373.214	45.4
373.424	57.68
373.635	51.54
373.846	119.12
374.056	39.25
374.267	108.88
374.477	63.83
374.688	39.25
374.898	92.5
375.109	57.68
375.319	72.02
375.53	141.65
375.74	39.25
375.951	22.87
376.161	49.49
376.372	143.7
376.582	8.53
376.793	141.65
377.003	22.87
377.214	20.82
377.424	6.49
377.635	90.45
377.845	33.11
378.055	51.54
378.266	67.92
378.476	31.06
378.686	80.21
378.897	45.4
379.107	102.74
379.317	100.69
379.528	51.54
379.738	82.26
379.948	14.68
380.158	51.54
380.369	16.73
380.579	94.55
380.789	-9.9
380.999	45.4
381.21	61.78
381.42	125.27
381.63	4.44
381.84	96.6
382.05	90.45
382.261	74.07
382.471	29.01
382.681	24.92
382.891	174.42
383.101	65.88
383.311	2.39
383.521	37.2
383.731	67.92
383.941	94.55
384.151	63.83
384.361	51.54
384.571	127.32
384.781	22.87
384.991	39.25
385.201	115.03
385.411	53.59
385.621	98.64
385.831	-5.8
386.041	57.68
386.251	74.07
386.461	129.36
386.671	22.87
386.881	76.12
387.091	96.6
387.301	86.36
387.511	16.73
387.72	168.27
387.93	127.32
388.14	18.77
388.35	76.12
388.56	121.17
388.769	123.22
388.979	69.97
389.189	22.87
389.399	41.3
389.609	121.17
389.818	168.27
390.028	74.07
390.238	108.88
390.447	29.01
390.657	51.54
390.867	45.4
391.076	29.01
391.286	55.64
391.496	110.93
391.705	8.53
391.915	131.41
392.125	108.88
392.334	57.68
392.544	35.16
392.753	84.31
392.963	-36.52
393.172	24.92
393.382	51.54
393.591	182.61
393.801	82.26
394.01	119.12
394.22	65.88
394.429	98.64
394.639	43.35
394.848	49.49
395.058	129.36
395.267	65.88
395.477	112.98
395.686	67.92
395.895	145.75
396.105	98.64
396.314	137.56
396.524	78.16
396.733	102.74
396.942	88.4
397.152	96.6
397.361	176.47
397.57	115.03
397.78	129.36
397.989	131.41
398.198	127.32
398.407	57.68
398.617	108.88
398.826	135.51
399.035	59.73
399.244	106.84
399.453	98.64
399.663	139.6
399.872	180.56
400.081	121.17
400.29	129.36
400.499	94.55
400.708	149.84
400.917	65.88
401.127	121.17
401.336	55.64
401.545	143.7
401.754	131.41
401.963	125.27
402.172	67.92
402.381	180.56
402.59	14.68
402.799	112.98
403.008	164.18
403.217	59.73
403.426	145.75
403.635	35.16
403.844	110.93
404.053	119.12
404.262	80.21
404.471	143.7
404.68	112.98
404.888	170.32
405.097	49.49
405.306	92.5
405.515	180.56
405.724	215.38
405.933	141.65
406.142	88.4
406.35	201.04
406.559	158.03
406.768	143.7
406.977	229.71
407.185	153.94
407.394	229.71
407.603	117.08
407.812	170.32
408.02	264.53
408.229	168.27
408.438	260.43
408.646	190.8
408.855	276.82
409.064	268.63
409.272	237.91
409.481	295.25
409.69	239.95
409.898	198.99
410.107	258.39
410.315	309.58
410.524	186.71
410.733	237.91
410.941	287.06
411.15	332.11
411.358	332.11
411.567	409.94
411.775	297.3
411.984	373.07
412.192	393.55
412.401	338.26
412.609	411.98
412.818	438.61
413.026	391.5
413.234	358.74
413.443	487.76
413.651	418.13
413.86	520.53
414.068	526.67
414.276	561.48
414.485	473.42
414.693	536.91
414.901	661.84
415.11	512.33
415.318	641.36
415.526	649.55
415.734	588.11
415.943	637.26
416.151	739.66
416.359	655.69
416.567	700.75
416.776	696.65
416.984	878.92
417.192	817.48
417.4	770.38
417.608	854.34
417.817	893.26
418.025	917.83
418.233	1020.23
418.441	985.41
418.649	942.41
418.857	1091.91
419.065	1083.72
419.273	1040.71
419.481	1204.55
419.689	1216.83
419.897	1259.84
420.105	1222.98
420.313	1354.05
420.521	1306.95
420.729	1382.72
420.937	1376.58
421.145	1411.39
421.353	1591.61
421.561	1665.34
421.769	1534.27
421.977	1769.79
422.185	1730.87
422.393	1716.54
422.601	1866.04
422.809	1806.65
423.017	1904.95
423.224	1939.77
423.432	2052.41
423.64	2062.65
423.848	2320.69
424.056	2130.23
424.263	2369.84
424.471	2302.26
424.679	2335.03
424.887	2523.44
425.094	2505.01
425.302	2623.79
425.51	2736.43
425.718	2738.48
425.925	2806.06
426.133	2906.41
426.341	3021.1
426.548	3221.8
426.756	3275.04
426.964	3305.76
427.171	3404.07
427.379	3578.14
427.586	3512.61
427.794	3725.6
428.001	3838.23
428.209	3922.2
428.417	3993.88
428.624	4360.47
428.832	4270.36
429.039	4307.22
429.247	4299.03
429.454	4546.83
429.662	4935.95
429.869	4638.99
430.076	4829.45
430.284	4815.12
430.491	5019.91
430.699	5304.58
430.906	5253.38
431.114	5310.72
431.321	5617.92
431.528	5705.98
431.736	5953.79
431.943	6408.44
432.15	5918.97
432.358	6232.31
432.565	6510.83
432.772	6476.02
432.979	6902
433.187	6902
433.394	6959.34
433.601	7362.79
433.808	7534.82
434.016	7434.47
434.223	7700.7
434.43	8227.03
434.637	8298.71
434.844	8659.15
435.052	8636.63
435.259	8659.15
435.466	8663.25
435.673	8538.32
435.88	9203.91
436.087	9785.54
436.294	9963.71
436.501	9394.37
436.708	9644.23
436.915	10019
437.122	10485.94
437.329	10559.67
437.537	10862.77
437.743	11075.76
437.95	10625.2
438.157	11387.05
438.364	11573.41
438.571	11917.47
438.778	11815.07
438.985	12990.61
439.192	12517.53
439.399	12865.68
439.606	12501.14
439.813	13363.34
440.02	14045.31
440.227	13549.7
440.433	13410.44
440.64	13916.29
440.847	14071.93
441.054	14354.55
441.261	15329.39
441.467	15147.12
441.674	15480.94
441.881	15933.54
442.088	16029.79
442.294	15616.1
442.501	16164.96
442.708	16216.16
442.914	17193.04
443.121	17666.12
443.328	17487.95
443.534	18593.85
443.741	18110.53
443.948	17770.57
444.154	19142.71
444.361	18995.25
444.568	19234.86
444.774	19222.58
444.981	19275.82
445.187	19908.65
445.394	20842.52
445.6	20408.35
445.807	22476.8
446.013	21297.17
446.22	21940.23
446.426	22880.25
446.633	22896.63
446.839	23715.82
447.046	22630.4
447.252	24139.75
447.459	24121.32
447.665	23693.29
447.871	24866.78
448.078	26288.07
448.284	25194.45
448.491	25589.71
448.697	26341.32
448.903	26945.47
449.11	27088.82
449.316	26562.5
449.522	27408.31
449.728	27733.93
449.935	28012.46
450.141	27991.98
450.347	28712.86
450.553	27707.31
450.76	28202.92
450.966	28903.32
451.172	28839.84
451.378	29605.78
451.584	28997.53
451.791	29671.31
451.997	29562.77
452.203	29771.66
452.409	30048.14
452.615	29652.88
452.821	28915.61
453.027	28350.37
453.233	30039.95
453.44	28927.9
453.646	29210.52
453.852	29091.74
454.058	29765.52
454.264	28784.54
454.47	29239.19
454.676	28524.45
454.882	29577.11
455.088	26769.34
455.294	27334.58
455.5	27883.44
455.705	28139.43
455.911	27054.01
456.117	26310.6
456.323	26245.06
456.529	24674.27
456.735	25378.77
456.941	25024.47
457.147	24903.64
457.352	24057.83
457.558	23502.83
457.764	23644.14
457.97	23103.48
458.176	22960.12
458.381	22685.69
458.587	21665.8
458.793	21700.62
458.999	20291.62
459.204	22247.43
459.41	21606.41
459.616	19904.55
459.821	19990.56
460.027	19728.42
460.233	19462.19
460.438	18507.83
460.644	18864.18
460.85	17752.13
461.055	17555.53
461.261	17459.27
461.466	16097.38
461.672	15718.5
461.878	16963.67
462.083	15706.21
462.289	15100.01
462.494	15239.28
462.7	14420.09
462.905	14116.99
463.111	14952.56
463.316	14692.47
463.522	14422.14
463.727	14227.58
463.932	14524.54
464.138	14012.54
464.343	14246.01
464.549	14143.61
464.754	14315.64
464.959	14313.59
465.165	14139.52
465.37	13504.65
465.575	13168.78
465.781	13658.24
465.986	13885.57
466.191	13226.12
466.397	13037.71
466.602	12314.78
466.807	12994.7
467.012	12824.72
467.218	12578.97
467.423	12716.18
467.628	12558.49
467.833	13066.38
468.038	12640.4
468.244	12222.62
468.449	12816.53
468.654	12527.77
468.859	12277.91
469.064	12232.86
469.269	11839.65
469.474	11722.91
469.679	12054.69
469.885	11530.41
470.09	12054.69
470.295	11716.77
470.5	11456.68
470.705	11657.38
470.91	11217.07
471.115	11129
471.32	11411.62
471.525	11260.07
471.73	11198.63
471.935	10823.86
472.139	10916.01
472.344	10770.61
472.549	10707.12
472.754	10510.52
472.959	10344.63
473.164	10219.71
473.369	9976
473.574	10363.06
473.778	10324.15
473.983	10047.68
474.188	10047.68
474.393	9777.34
474.598	9617.6
474.802	9455.81
475.007	9570.5
475.212	9451.72
475.417	9201.86
475.621	9287.88
475.826	9031.88
476.031	9228.49
476.235	8849.61
476.44	9089.23
476.645	8751.31
476.849	8788.18
477.054	8691.92
477.259	8540.37
477.463	8581.33
477.668	8521.94
477.872	8550.61
478.077	8435.92
478.282	7993.56
478.486	8194.26
478.691	8124.63
478.895	7997.66
479.1	8001.76
479.304	7856.35
479.509	7876.83
479.713	7880.93
479.918	7745.76
480.122	7665.89
480.326	7674.08
480.531	7837.92
480.735	7657.7
480.94	7446.76
481.144	7848.16
481.348	7362.79
481.553	7495.91
481.757	7293.16
481.961	7483.62
482.166	7366.88
482.37	7332.07
482.574	7389.41
482.778	7291.11
482.983	7465.19
483.187	7338.21
483.391	7543.01
483.595	7411.94
483.8	7405.8
484.004	7274.73
484.208	7434.47
484.412	7528.67
484.616	7260.39
484.821	7424.23
485.025	7205.1
485.229	7327.97
485.433	7401.7
485.637	7383.27
485.841	7327.97
486.045	7485.67
486.249	7315.69
486.453	7241.96
486.657	7381.22
486.861	7319.78
487.065	7256.29
487.269	7389.41
487.473	7196.9
487.677	7497.95
487.881	7602.4
488.085	7201
488.289	7178.47
488.493	7557.35
488.697	7416.04
488.901	7377.12
489.105	7334.12
489.309	7487.72
489.512	7446.76
489.716	7471.33
489.92	7434.47
490.124	7295.21
490.328	7622.88
490.531	7383.27
490.735	7622.88
490.939	7403.75
491.143	7426.28
491.346	7416.04
491.55	7792.86
491.754	7624.93
491.958	7586.02
492.161	7622.88
492.365	7577.83
492.569	7717.09
492.772	7792.86
492.976	7811.29
493.18	7743.71
493.383	8057.05
493.587	8169.69
493.79	8179.93
493.994	7952.6
494.197	8085.72
494.401	8220.89
494.605	8130.78
494.808	8323.29
495.012	8317.14
495.215	8360.15
495.419	8403.16
495.622	8560.85
495.825	8489.17
496.029	8513.75
496.232	8827.09
496.436	8626.39
496.639	8870.09
496.843	8945.87
497.046	8837.33
497.249	9246.92
497.453	9197.77
497.656	9031.88
497.859	9138.38
498.063	9334.98
498.266	9636.03
498.469	9461.96
498.673	9547.97
498.876	9758.91
499.079	9834.69
499.282	9930.94
499.485	10186.94
499.689	9973.95
499.892	10143.93
500.095	10279.1
500.298	10625.2
500.501	10365.11
500.705	10754.23
500.908	10784.94
501.111	10965.17
501.314	11022.51
501.517	10971.31
501.72	11307.18
501.923	11335.85
502.126	11438.25
502.329	11620.52
502.532	11784.35
502.735	11950.24
502.938	12028.06
503.141	12138.65
503.344	12363.93
503.547	12282.01
503.75	12386.46
503.953	12679.32
504.156	12902.54
504.359	13035.66
504.562	13056.14
504.765	13291.66
504.968	13351.05
505.17	13420.68
505.373	13674.63
505.576	13695.11
505.779	13832.32
505.982	13965.44
506.185	14266.49
506.387	14272.64
506.59	14559.35
506.793	14626.93
506.996	14923.89
507.198	15014
507.401	15011.95
507.604	15198.32
507.807	15313
508.009	15394.92
508.212	15558.76
508.415	15706.21
508.617	15904.87
508.82	16236.64
509.022	15812.71
509.225	16126.05
509.428	16310.36
509.63	16685.14
509.833	16910.42
510.035	17010.77
510.238	17047.63
510.44	17285.2
510.643	17418.32
510.845	17596.49
511.048	17498.19
511.25	17838.15
511.453	17647.69
511.655	18403.39
511.858	18501.69
512.06	18571.32
512.262	18634.81
512.465	18630.71
512.667	19030.07
512.87	19152.95
513.072	19038.26
513.274	19413.04
513.477	19728.42
513.679	19544.11
513.881	20129.83
514.084	20060.2
514.286	20017.19
514.488	20232.22
514.69	20863
514.893	21137.43
515.095	20934.68
515.297	21098.52
515.499	21069.84
515.701	21305.36
515.904	21637.13
516.106	21669.9
516.308	22005.77
516.51	21866.5
516.712	21956.61
516.914	22013.96
517.116	22681.6
517.318	22755.32
517.52	22777.85
517.722	23017.46
517.925	23019.51
518.127	23545.84
518.329	23664.62
518.531	23633.9
518.733	23857.13
518.935	23973.86
519.136	24141.8
519.338	24381.41
519.54	24430.56
519.742	24758.24
519.944	24598.49
520.146	25223.12
520.348	24975.32
520.55	25042.9
520.752	25237.46
520.954	25608.14
521.155	25509.84
521.357	25810.89
521.559	26128.33
521.761	26212.29
521.963	26601.41
522.164	26251.2
522.366	26408.9
522.568	26587.07
522.77	26748.86
522.971	27398.07
523.173	27039.67
523.375	27172.79
523.576	27320.24
523.778	27357.11
523.98	27152.31
524.181	27602.86
524.383	27635.63
524.584	28012.46
524.786	27783.09
524.988	28125.1
525.189	28168.1
525.391	28440.48
525.592	28233.64
525.794	28475.3
525.995	28454.82
526.197	28475.3
526.398	28723.1
526.6	28716.96
526.801	29276.05
527.003	28751.77
527.204	28917.66
527.406	29034.39
527.607	29274.01
527.808	29345.69
528.01	29214.62
528.211	29198.23
528.412	29816.72
528.614	29577.11
528.815	29579.15
529.016	29835.15
529.218	29552.53
529.419	29677.46
529.62	29642.64
529.822	29497.24
530.023	29855.63
530.224	29947.79
530.425	29847.44
530.626	29439.89
530.828	29253.53
531.029	30197.64
531.23	29755.28
531.431	29732.75
531.632	29894.54
531.833	30080.91
532.035	29882.25
532.236	29988.75
532.437	30254.98
532.638	29890.45
532.839	30080.91
533.04	29925.26
533.241	29853.58
533.442	30187.4
533.643	30271.37
533.844	29738.9
534.045	29994.89
534.246	29888.4
534.447	30312.33
534.648	29777.81
534.849	30087.05
535.05	29884.3
535.251	29884.3
535.451	29992.84
535.652	30265.22
535.853	29906.83
536.054	30209.93
536.255	29972.36
536.456	29779.85
536.657	30121.87
536.857	29839.25
537.058	29820.81
537.259	30197.64
537.46	30046.09
537.66	29757.33
537.861	30044.04
538.062	30074.76
538.263	29792.14
538.463	29835.15
538.664	29814.67
538.865	29699.98
539.065	30121.87
539.266	30005.13
539.466	30363.53
539.667	29841.29
539.868	29904.78
540.068	29403.03
540.269	29894.54
540.469	30050.19
540.67	29775.76
540.87	29761.42
541.071	29542.29
541.271	29669.26
541.472	29958.03
541.672	29833.1
541.873	29783.95
542.073	29439.89
542.274	30132.11
542.474	29788.05
542.675	29525.91
542.875	29992.84
543.075	29396.88
543.276	29257.62
543.476	29884.3
543.676	29622.16
543.877	29638.55
544.077	29624.21
544.277	29493.14
544.478	29405.08
544.678	29382.55
544.878	29851.53
545.078	29386.64
545.279	29564.82
545.479	29222.81
545.679	29300.63
545.879	29478.8
546.079	29888.4
546.28	29497.24
546.48	29493.14
546.68	29601.68
546.88	29704.08
547.08	29624.21
547.28	29525.91
547.48	29331.35
547.68	29450.13
547.88	29271.96
548.081	29726.61
548.281	29335.45
548.481	29104.03
548.681	29677.46
548.881	29560.72
549.081	29364.12
549.28	29394.84
549.48	29233.05
549.68	29415.32
549.88	29601.68
550.08	29214.62
550.28	29669.26
550.48	29134.74
550.68	29337.49
550.88	29261.72
551.08	29474.71
551.279	29577.11
551.479	29300.63
551.679	29394.84
551.879	29196.18
552.079	29714.32
552.278	29269.91
552.478	28827.55
552.678	29183.9
552.878	29425.56
553.077	29157.27
553.277	28870.56
553.477	29175.7
553.676	29024.15
553.876	29169.56
554.076	28845.98
554.275	29276.05
554.475	28788.64
554.674	28942.24
554.874	29362.07
555.074	29159.32
555.273	29329.3
555.473	29024.15
555.672	28882.84
555.872	28981.15
556.071	29018.01
556.271	29173.66
556.47	29065.11
556.67	28438.44
556.869	28669.86
557.068	28845.98
557.268	28503.97
557.467	28819.36
557.667	28942.24
557.866	28696.48
558.065	28794.78
558.265	28692.38
558.464	28403.62
558.663	28827.55
558.863	28542.88
559.062	29378.45
559.261	28610.46
559.461	29091.74
559.66	28651.42
559.859	28610.46
560.058	28559.27
560.258	28508.07
560.457	28129.19
560.656	28852.13
560.855	28551.07
561.054	29058.97
561.253	28370.85
561.453	28422.05
561.652	28608.42
561.851	28923.8
562.05	28565.41
562.249	28442.53
562.448	28727.2
562.647	28168.1
562.846	28207.01
563.045	28358.56
563.244	28209.06
563.443	28563.36
563.642	28364.71
563.841	28274.6
564.04	28090.28
564.239	28260.26
564.438	28145.58
564.637	28518.31
564.836	28209.06
565.035	27944.87
565.234	28229.54
565.432	27856.81
565.631	27914.16
565.83	28278.69
566.029	28256.17
566.228	28188.58
566.427	28272.55
566.625	27881.39
566.824	27731.89
567.023	27695.02
567.222	27387.83
567.42	27987.88
567.619	27815.85
567.818	27938.73
568.016	27928.49
568.215	27828.14
568.414	27672.5
568.612	27905.96
568.811	27588.53
569.01	27928.49
569.208	27678.64
569.407	27678.64
569.605	27305.91
569.804	27844.52
570.002	27535.28
570.201	27617.2
570.4	27123.64
570.598	27127.74
570.797	27344.82
570.995	27494.32
571.193	27150.26
571.392	27406.26
571.59	27260.85
571.789	27289.52
571.987	27281.33
572.186	27152.31
572.384	26910.65
572.582	27283.38
572.781	27242.42
572.979	26697.66
573.177	27109.3
573.376	27148.22
573.574	26615.74
573.772	27002.81
573.971	27092.92
574.169	26568.64
574.367	26771.39
574.565	26562.5
574.763	26720.19
574.962	26499.01
575.16	26488.77
575.358	26822.59
575.556	26335.17
575.754	26873.79
575.952	26306.5
576.151	26503.1
576.349	26341.32
576.547	26228.68
576.745	26449.86
576.943	26458.05
577.141	26394.56
577.339	26116.04
577.537	26224.58
577.735	26283.97
577.933	26132.42
578.131	26079.18
578.329	25874.38
578.527	25788.36
578.725	25921.48
578.923	25907.15
579.121	25520.08
579.319	25638.86
579.516	25991.11
579.714	25853.9
579.912	25462.74
580.11	25677.77
580.308	25614.29
580.506	25653.2
580.704	25104.34
580.901	25272.28
581.099	25690.06
581.297	25143.25
581.495	25278.42
581.692	25581.52
581.89	24985.56
582.088	25405.39
582.285	24944.6
582.483	25239.51
582.681	24965.08
582.878	25149.4
583.076	25028.57
583.274	24842.2
583.471	24629.21
583.669	24557.53
583.866	24514.53
584.064	24858.59
584.262	24475.62
584.459	24606.69
584.657	24561.63
584.854	24537.05
585.052	24324.07
585.249	24477.66
585.447	24532.96
585.644	24242.15
585.841	24451.04
586.039	24344.55
586.236	24188.9
586.434	23873.51
586.631	23994.34
586.828	24438.75
587.026	24225.76
587.223	23855.08
587.42	23869.42
587.618	23801.83
587.815	23969.77
588.012	23650.28
588.21	23576.56
588.407	23697.39
588.604	23560.17
588.801	23338.99
588.999	23730.16
589.196	23478.26
589.393	23371.76
589.59	23357.42
589.787	23457.78
589.984	23707.63
590.182	23363.57
590.379	23564.27
590.576	23119.86
590.773	23195.64
590.97	22904.82
591.167	23085.05
591.364	22755.32
591.561	23107.57
591.758	22759.42
591.955	22831.1
592.152	23033.85
592.349	22681.6
592.546	22673.4
592.743	22788.09
592.94	22681.6
593.137	22523.9
593.334	22900.73
593.531	22308.86
593.727	22409.22
593.924	22353.92
594.121	22128.64
594.318	22513.66
594.515	22059.01
594.712	22470.65
594.908	22136.84
595.105	22212.61
595.302	21598.22
595.499	22005.77
595.696	21927.94
595.892	21598.22
596.089	21884.94
596.286	21776.39
596.482	21835.78
596.679	21544.97
596.876	21934.09
597.072	21477.39
597.269	21630.99
597.466	21194.77
597.662	21252.11
597.859	21743.63
598.055	21280.78
598.252	21405.71
598.448	21311.5
598.645	21180.43
598.841	21133.33
599.038	21022.74
599.234	21106.71
599.431	20987.93
599.627	21221.39
599.824	21172.24
600.02	21008.4
600.217	20830.23
600.413	20858.9
600.609	20666.39
600.806	20910.1
601.002	21030.93
601.198	20895.77
601.395	20707.35
601.591	20484.12
601.787	20672.54
601.984	20332.58
602.18	20758.55
602.376	20545.56
602.572	20340.77
602.769	20564
602.965	20277.28
603.161	20369.44
603.357	20168.74
603.553	20287.52
603.75	20047.91
603.946	20080.67
604.142	19882.02
604.338	20025.38
604.534	19773.48
604.73	19753
604.926	19947.56
605.122	20009
605.318	19767.34
605.514	19705.9
605.71	19640.36
605.906	19910.69
606.102	19716.14
606.298	19798.06
606.494	19623.98
606.69	19613.74
606.886	19718.18
607.082	19638.31
607.278	19533.87
607.474	19413.04
607.67	19505.2
607.866	19566.63
608.062	19345.45
608.257	19677.23
608.453	19232.82
608.649	19505.2
608.845	19075.12
609.041	19404.85
609.236	19628.07
609.432	19363.89
609.628	19157.04
609.824	19114.03
610.019	18942
610.215	19132.47
610.411	19275.82
610.606	19101.75
610.802	19222.58
610.998	18845.75
611.193	19245.1
611.389	18712.63
611.584	19249.2
611.78	19116.08
611.976	18886.71
612.171	18903.09
612.367	19083.31
612.562	18870.33
612.758	18649.14
612.953	18573.37
613.149	18835.51
613.344	18565.18
613.539	18886.71
613.735	18884.66
613.93	19003.44
614.126	18655.29
614.321	18659.38
614.517	18849.85
614.712	18700.34
614.907	18532.41
615.103	18808.89
615.298	18321.47
615.493	18708.54
615.688	18399.29
615.884	18843.7
616.079	18366.53
616.274	18491.45
616.47	18321.47
616.665	18591.8
616.86	18210.88
617.055	18255.93
617.25	18085.95
617.445	18788.41
617.641	17846.34
617.836	18147.39
618.031	17971.27
618.226	18231.36
618.421	18036.8
618.616	18329.66
618.811	17942.6
619.006	18208.83
619.201	18065.47
619.396	18063.43
619.591	17705.03
619.786	17903.68
619.981	17412.17
620.176	17745.99
620.371	17676.36
620.566	17457.23
620.761	17576.01
620.956	17526.86
621.151	17363.02
621.346	17406.03
621.541	17074.26
621.735	17260.62
621.93	16908.37
622.125	16934.99
622.32	16697.43
622.515	16894.04
622.709	16760.92
622.904	16586.84
623.099	16717.91
623.294	16574.55
623.488	16525.4
623.683	16441.43
623.878	16246.88
624.072	16431.19
624.267	16271.45
624.462	16158.81
624.656	15880.29
624.851	16089.18
625.046	16011.36
625.24	16095.33
625.435	15687.78
625.629	15667.3
625.824	15736.93
626.018	15616.1
626.213	15419.5
626.407	15190.13
626.602	14995.57
626.796	15278.19
626.991	15442.03
627.185	14932.08
627.38	14850.16
627.574	14962.8
627.768	14671.99
627.963	14930.03
628.157	14551.16
628.352	14854.26
628.546	14516.34
628.74	14645.37
628.935	14448.76
629.129	14338.17
629.323	14258.3
629.517	14145.66
629.712	14350.46
629.906	13914.24
630.1	13930.62
630.294	14190.72
630.489	14047.36
630.683	13873.28
630.877	13568.13
631.071	13752.45
631.265	13441.16
631.459	13525.13
631.653	13328.52
631.848	13650.05
632.042	13396.1
632.236	13510.79
632.43	13406.34
632.624	13392.01
632.818	13189.26
633.012	13219.98
633.206	13277.32
633.4	13101.2
633.594	12726.42
633.788	12990.61
633.982	12945.55
634.176	12834.96
634.369	12953.74
634.563	12523.67
634.757	12533.91
634.951	12671.12
635.145	12517.53
635.339	12343.45
635.533	12519.57
635.726	12273.82
635.92	12122.27
636.114	12179.61
636.308	12048.54
636.501	12132.51
636.695	12032.16
636.889	11796.64
637.083	11907.23
637.276	11731.11
637.47	11616.42
637.664	11712.67
637.857	11679.91
638.051	11610.28
638.244	11485.35
638.438	11407.53
638.632	11341.99
638.825	11372.71
639.019	11315.37
639.212	11028.65
639.406	11262.12
639.599	10997.93
639.793	11155.63
639.986	11102.38
640.18	11034.8
640.373	10811.57
640.567	10850.48
640.76	10690.74
640.954	10707.12
641.147	10502.33
641.34	10651.83
641.534	10621.11
641.727	10553.52
641.92	10551.48
642.114	10453.17
642.307	10475.7
642.5	10420.41
642.694	10195.13
642.887	10121.4
643.08	10285.24
643.273	10297.53
643.467	10102.97
643.66	10045.63
643.853	10004.67
644.046	9857.21
644.239	9877.69
644.432	9803.97
644.626	9912.51
644.819	9556.16
645.012	9631.94
645.205	9660.61
645.398	9720
645.591	9433.29
645.784	9388.23
645.977	9386.18
646.17	9386.18
646.363	9306.31
646.556	9097.42
646.749	9154.76
646.942	9271.5
647.135	9083.08
647.328	9222.34
647.521	9038.03
647.714	8806.61
647.907	8952.01
648.099	8689.87
648.292	8822.99
648.485	8761.55
648.678	8655.06
648.871	8579.28
649.064	8501.46
649.256	8724.69
649.449	8284.37
649.642	8425.68
649.835	8423.64
650.027	8298.71
650.22	8302.81
650.413	8354.01
650.605	8251.61
650.798	8138.97
650.991	7903.45
651.183	8370.39
651.376	8020.19
651.568	8134.87
651.761	8085.72
651.954	7944.41
652.146	7874.78
652.339	7844.06
652.531	7819.49
652.724	7706.85
652.916	7733.47
653.109	7678.18
653.301	7543.01
653.494	7747.81
653.686	7737.57
653.879	7614.69
654.071	7518.43
654.263	7502.05
654.456	7370.98
654.648	7391.46
654.84	7348.45
655.033	7368.93
655.225	7436.52
655.417	7188.71
655.61	7205.1
655.802	7131.37
655.994	7110.89
656.186	7002.35
656.379	7069.93
656.571	6906.09
656.763	6904.04
656.955	6752.49
657.148	6793.45
657.34	6912.24
657.532	6863.08
657.724	6783.21
657.916	6674.67
658.108	6865.13
658.3	6627.57
658.492	6707.44
658.684	6484.21
658.876	6672.62
659.068	6332.66
659.26	6469.87
659.452	6465.78
659.644	6650.1
659.836	6236.41
660.028	6340.85
660.22	6342.9
660.412	6277.37
660.604	6144.25
660.796	6324.47
660.988	6215.93
661.18	6025.47
661.372	6162.68
661.563	6168.82
661.755	6197.49
661.947	5961.98
662.139	5947.64
662.331	5949.69
662.522	5982.46
662.714	5925.11
662.906	5822.72
663.097	5892.35
663.289	5773.57
663.481	5650.69
663.673	5794.04
663.864	5685.5
664.056	5785.85
664.247	5693.69
664.439	5728.51
664.631	5581.06
664.822	5587.2
665.014	5689.6
665.205	5366.02
665.397	5593.34
665.588	5429.51
665.78	5374.21
665.971	5415.17
666.163	5499.14
666.354	5277.96
666.546	5392.64
666.737	5288.2
666.929	5306.63
667.12	5329.16
667.311	5237
667.503	5239.05
667.694	5275.91
667.885	5169.41
668.077	5282.05
668.268	5019.91
668.459	5251.33
668.651	5155.08
668.842	5013.77
669.033	5042.44
669.224	5021.96
669.416	5009.67
669.607	4892.94
669.798	4868.36
669.989	4851.98
670.18	4909.32
670.371	4919.56
670.563	4843.79
670.754	4849.93
670.945	4849.93
671.136	4843.79
671.327	4796.68
671.518	4956.43
671.709	4884.75
671.9	4952.33
672.091	4741.39
672.282	4690.19
672.473	4626.7
672.664	4614.41
672.855	4661.52
673.046	4612.37
673.237	4886.79
673.428	4636.94
673.619	4577.55
673.809	4614.41
674	4630.8
674.191	4710.67
674.382	4524.3
674.573	4684.05
674.764	4708.62
674.954	4589.84
675.145	4587.79
675.336	4604.18
675.527	4559.12
675.717	4567.31
675.908	4575.5
676.099	4516.11
676.289	4548.88
676.48	4378.9
676.671	4466.96
676.861	4534.54
677.052	4512.02
677.243	4393.23
677.433	4335.89
677.624	4342.04
677.814	4350.23
678.005	4571.41
678.195	4454.67
678.386	4466.96
678.576	4303.12
678.767	4407.57
678.957	4311.32
679.148	4442.39
679.338	4407.57
679.529	4434.19
679.719	4374.8
679.909	4522.26
680.1	4237.59
680.29	4434.19
680.481	4352.27
680.671	4409.62
680.861	4309.27
681.052	4407.57
681.242	4284.69
681.432	4378.9
681.622	4356.37
681.813	4450.58
682.003	4251.92
682.193	4178.2
682.383	4165.91
682.573	4227.35
682.764	4217.11
682.954	4382.99
683.144	4268.31
683.334	4256.02
683.524	4098.33
683.714	4303.12
683.904	4040.98
684.094	4229.4
684.284	4456.72
684.474	4223.25
684.664	4151.57
684.854	4184.34
685.044	4131.09
685.234	4190.49
685.424	4196.63
685.614	4161.81
685.804	4167.96
685.994	3985.69
686.184	4243.73
686.374	4092.18
686.564	4090.13
686.753	3918.11
686.943	3963.16
687.133	4026.65
687.323	4020.5
687.513	4079.9
687.702	3936.54
687.892	3914.01
688.082	4008.22
688.272	4186.39
688.461	4088.09
688.651	4131.09
688.841	3922.2
689.03	3914.01
689.22	3909.91
689.41	3965.21
689.599	3907.87
689.789	3842.33
689.979	3889.43
690.168	3916.06
690.358	3885.34
690.547	3852.57
690.737	3815.71
690.926	3895.58
691.116	3768.6
691.305	3840.28
691.495	3885.34
691.684	3694.88
691.874	3842.33
692.063	3815.71
692.252	3737.88
692.442	3823.9
692.631	3709.21
692.82	3707.16
693.01	3721.5
693.199	3711.26
693.388	3596.57
693.578	3748.12
693.767	3580.19
693.956	3852.57
694.146	3678.49
694.335	3688.73
694.524	3508.51
694.713	3713.31
694.902	3723.55
695.092	3545.38
695.281	3686.69
695.47	3522.85
695.659	3631.39
695.848	3629.34
696.037	3664.16
696.226	3633.44
696.415	3528.99
696.604	3637.53
696.793	3592.48
696.982	3596.57
697.171	3653.92
697.36	3606.81
697.549	3709.21
697.738	3524.9
697.927	3553.57
698.116	3655.97
698.305	3672.35
698.494	3555.62
698.683	3586.33
698.872	3752.22
699.061	3643.68
699.25	3612.96
699.438	3629.34
699.627	3748.12
699.816	3784.99
700.005	3635.49
700.193	3572
700.382	3705.12
700.571	3688.73
700.76	3723.55
700.948	3772.7
701.137	3600.67
701.326	3776.8
701.514	3588.38
701.703	3780.89
701.892	3653.92
702.08	3746.08
702.269	3733.79
702.457	3672.35
702.646	3737.88
702.834	3711.26
703.023	3750.17
703.212	3698.97
703.4	3815.71
703.589	3713.31
703.777	3668.25
703.965	3754.27
704.154	3778.84
704.342	3709.21
704.531	3698.97
704.719	3647.77
704.907	3770.65
705.096	3658.01
705.284	3715.36
705.472	3748.12
705.661	3703.07
705.849	3881.24
706.037	3737.88
706.226	3608.86
706.414	3780.89
706.602	3782.94
706.79	3735.84
706.979	3711.26
707.167	3780.89
707.355	3696.92
707.543	3680.54
707.731	3758.36
707.919	3815.71
708.107	3731.74
708.296	3719.45
708.484	3617.05
708.672	3932.44
708.86	3860.76
709.048	3729.69
709.236	3811.61
709.424	3920.15
709.612	3787.04
709.8	3676.45
709.988	3782.94
710.176	3739.93
710.364	3811.61
710.551	3842.33
710.739	3701.02
710.927	3840.28
711.115	3756.32
711.303	3817.76
711.491	3860.76
711.679	3731.74
711.866	3948.83
712.054	3830.04
712.242	3725.6
712.43	3866.91
712.617	3840.28
712.805	3858.71
712.993	3830.04
713.181	3709.21
713.368	3920.15
713.556	3750.17
713.744	3807.52
713.931	3881.24
714.119	3866.91
714.306	3928.35
714.494	3643.68
714.682	3830.04
714.869	3746.08
715.057	3707.16
715.244	3741.98
715.432	3750.17
715.619	3625.25
715.807	3914.01
715.994	3844.38
716.182	3748.12
716.369	3897.63
716.556	3938.59
716.744	3725.6
716.931	3760.41
717.119	3760.41
717.306	3848.47
717.493	3717.4
717.681	3805.47
717.868	3834.14
718.055	3715.36
718.242	3696.92
718.43	3889.43
718.617	3803.42
718.804	3754.27
718.991	3731.74
719.179	3750.17
719.366	3881.24
719.553	3821.85
719.74	3737.88
719.927	3836.19
720.114	3789.08
720.301	3698.97
720.488	3600.67
720.676	3715.36
720.863	3735.84
721.05	3871
721.237	3866.91
721.424	3764.51
721.611	3770.65
721.798	3731.74
721.985	3627.29
722.172	3830.04
722.358	3664.16
722.545	3758.36
722.732	3703.07
722.919	3772.7
723.106	3727.64
723.293	3817.76
723.48	3709.21
723.667	3670.3
723.853	3635.49
724.04	3754.27
724.227	3690.78
724.414	3705.12
724.6	3737.88
724.787	3885.34
724.974	3758.36
725.161	3744.03
725.347	3578.14
725.534	3707.16
725.72	3735.84
725.907	3729.69
726.094	3754.27
726.28	3660.06
726.467	3713.31
726.653	3803.42
726.84	3760.41
727.027	3934.49
727.213	3701.02
727.4	3725.6
727.586	3737.88
727.773	3899.67
727.959	3744.03
728.145	3737.88
728.332	3524.9
728.518	3565.85
728.705	3758.36
728.891	3531.04
729.077	3641.63
729.264	3567.9
729.45	3690.78
729.636	3660.06
729.823	3617.05
730.009	3664.16
730.195	3782.94
730.382	3692.83
730.568	3639.58
730.754	3770.65
730.94	3602.72
731.126	3653.92
731.313	3672.35
731.499	3629.34
731.685	3690.78
731.871	3629.34
732.057	3608.86
732.243	3602.72
732.429	3615.01
732.615	3565.85
732.801	3615.01
732.987	3690.78
733.173	3528.99
733.359	3504.42
733.545	3531.04
733.731	3500.32
733.917	3619.1
734.103	3506.46
734.289	3547.42
734.475	3494.18
734.661	3600.67
734.847	3541.28
735.033	3551.52
735.219	3623.2
735.404	3637.53
735.59	3453.22
735.776	3563.81
735.962	3584.29
736.148	3492.13
736.333	3602.72
736.519	3440.93
736.705	3316
736.89	3393.83
737.076	3328.29
737.262	3391.78
737.447	3453.22
737.633	3383.59
737.819	3416.35
738.004	3359.01
738.19	3549.47
738.375	3477.79
738.561	3475.74
738.747	3352.87
738.932	3391.78
739.118	3397.92
739.303	3277.09
739.489	3320.1
739.674	3289.38
739.859	3158.31
740.045	3256.61
740.23	3311.91
740.416	3324.19
740.601	3266.85
740.786	3340.58
740.972	3252.52
741.157	3164.45
741.342	3154.21
741.528	3127.59
741.713	3361.06
741.898	3186.98
742.084	3186.98
742.269	3287.33
742.454	3201.32
742.639	3166.5
742.824	3158.31
743.01	3166.5
743.195	3236.13
743.38	3111.21
743.565	3148.07
743.75	3189.03
743.935	3098.92
744.12	3070.25
744.305	2824.49
744.49	3103.01
744.675	2998.57
744.86	2992.42
745.045	2980.14
745.23	2885.93
745.415	2820.39
745.6	2933.03
745.785	2963.75
745.97	2887.98
746.155	2756.91
746.34	2898.22
746.525	2816.3
746.71	2865.45
746.895	2779.43
747.079	2722.09
747.264	2699.56
747.449	2799.91
747.634	2695.47
747.819	2750.76
748.003	2672.94
748.188	2677.04
748.373	2636.08
748.557	2801.96
748.742	2681.13
748.927	2740.52
749.111	2668.84
749.296	2527.53
749.481	2658.6
749.665	2591.02
749.85	2482.48
750.034	2584.88
750.219	2480.43
750.404	2484.53
750.588	2498.86
750.773	2339.12
750.957	2373.94
751.141	2464.05
751.326	2427.18
751.51	2287.92
751.695	2373.94
751.879	2373.94
752.064	2500.91
752.248	2361.65
752.432	2300.21
752.617	2423.09
752.801	2361.65
752.985	2304.31
753.17	2351.41
753.354	2292.02
753.538	2126.13
753.722	2187.57
753.907	2154.8
754.091	2126.13
754.275	2140.47
754.459	2160.95
754.643	2095.41
754.828	2117.94
755.012	2138.42
755.196	2058.55
755.38	1943.86
755.564	2171.19
755.748	1964.34
755.932	2124.08
756.116	2085.17
756.3	2027.83
756.484	1943.86
756.668	1984.82
756.852	1839.42
757.036	1986.87
757.22	1896.76
757.404	1913.14
757.588	1921.34
757.772	1845.56
757.956	1898.81
758.14	1847.61
758.323	1827.13
758.507	1794.36
758.691	1902.9
758.875	1823.03
759.059	1888.57
759.242	1767.74
759.426	1653.05
759.61	1743.16
759.794	1794.36
759.977	1823.03
760.161	1927.48
760.345	1816.89
760.528	1763.64
760.712	1739.07
760.895	1820.99
761.079	1720.64
761.263	1687.87
761.446	1599.8
761.63	1685.82
761.813	1556.8
761.997	1560.89
762.18	1698.11
762.364	1595.71
762.547	1540.41
762.731	1644.86
762.914	1665.34
763.098	1481.02
763.281	1524.03
763.464	1542.46
763.648	1513.79
763.831	1552.7
764.015	1540.41
764.198	1616.19
764.381	1485.12
764.564	1497.41
764.748	1616.19
764.931	1544.51
765.114	1493.31
765.297	1587.52
765.481	1464.64
765.664	1485.12
765.847	1460.54
766.03	1550.65
766.213	1364.29
766.397	1458.5
766.58	1464.64
766.763	1526.08
766.946	1407.3
767.129	1425.73
767.312	1429.82
767.495	1505.6
767.678	1454.4
767.861	1425.73
768.044	1304.9
768.227	1290.56
768.41	1421.63
768.593	1433.92
768.776	1286.47
768.959	1374.53
769.142	1376.58
769.324	1423.68
769.507	1329.47
769.69	1231.17
769.873	1405.25
770.056	1419.58
770.239	1372.48
770.421	1341.76
770.604	1288.51
770.787	1282.37
770.97	1286.47
771.152	1290.56
771.335	1296.71
771.518	1280.32
771.7	1331.52
771.883	1362.24
772.066	1237.31
772.248	1257.79
772.431	1257.79
772.613	1237.31
772.796	1304.9
772.978	1286.47
773.161	1315.14
773.343	1202.5
773.526	1204.55
773.708	1155.4
773.891	1192.26
774.073	1202.5
774.256	1114.44
774.438	1118.53
774.621	1077.57
774.803	1184.07
774.985	1177.92
775.168	1186.12
775.35	1040.71
775.532	1112.39
775.715	1036.61
775.897	1147.2
776.079	1028.42
776.261	1118.53
776.444	1034.57
776.626	1231.17
776.808	1126.72
776.99	1018.18
777.173	987.46
777.355	1005.89
777.537	1106.24
777.719	1055.05
777.901	1012.04
778.083	979.27
778.265	1020.23
778.447	919.88
778.629	958.79
778.811	946.5
778.993	936.26
779.175	962.89
779.357	923.98
779.539	948.55
779.721	1020.23
779.903	1081.67
780.085	919.88
780.267	864.58
780.449	934.22
780.631	936.26
780.812	913.74
780.994	833.86
781.176	911.69
781.358	817.48
781.54	969.03
781.721	946.5
781.903	962.89
782.085	829.77
782.267	971.08
782.448	854.34
782.63	794.95
782.812	852.3
782.993	815.43
783.175	821.58
783.357	764.23
783.538	739.66
783.72	768.33
783.901	659.79
784.083	723.27
784.264	717.13
784.446	753.99
784.627	706.89
784.809	784.71
784.99	760.14
785.172	776.52
785.353	723.27
785.535	776.52
785.716	690.51
785.897	688.46
786.079	731.47
786.26	739.66
786.441	657.74
786.623	528.72
786.804	686.41
786.985	670.03
787.167	641.36
787.348	631.12
787.529	608.59
787.71	688.46
787.891	639.31
788.073	584.01
788.254	547.15
788.435	731.47
788.616	616.78
788.797	604.49
788.978	559.44
789.159	684.36
789.34	586.06
789.522	543.05
789.703	557.39
789.884	637.26
790.065	577.87
790.246	663.88
790.427	477.52
790.607	680.27
790.788	598.35
790.969	493.9
791.15	549.2
791.331	502.09
791.512	577.87
791.693	528.72
791.874	516.43
792.054	651.6
792.235	510.29
792.416	526.67
792.597	530.77
792.778	483.66
792.958	438.61
793.139	520.53
793.32	491.85
793.5	477.52
793.681	600.4
793.862	526.67
794.042	557.39
794.223	418.13
794.404	444.75
794.584	393.55
794.765	459.09
794.945	454.99
795.126	469.33
795.306	504.14
795.487	444.75
795.667	487.76
795.848	469.33
796.028	385.36
796.209	469.33
796.389	440.65
796.57	401.74
796.75	512.33
796.93	489.81
797.111	424.27
797.291	381.26
797.471	385.36
797.652	452.94
797.832	313.68
798.012	395.6
798.192	321.87
798.373	448.85
798.553	465.23
798.733	465.23
798.913	330.06
799.093	373.07
799.274	383.31
799.454	391.5
799.634	426.32
799.814	405.84
799.994	420.17
800.174	313.68
800.354	360.78
800.534	309.58
800.714	422.22
800.894	348.5
801.074	287.06
801.254	336.21
801.434	424.27
801.614	364.88
801.794	303.44
801.974	1409.34
802.154	401.74
802.334	430.41
802.514	321.87
802.693	375.12
802.873	311.63
803.053	420.17
803.233	389.46
803.413	303.44
803.592	280.91
803.772	295.25
803.952	342.35
804.131	319.82
804.311	420.17
804.491	383.31
804.67	319.82
804.85	305.49
805.03	307.54
805.209	307.54
805.389	299.34
805.568	282.96
805.748	323.92
805.928	307.54
806.107	346.45
806.287	303.44
806.466	354.64
806.646	352.59
806.825	260.43
807.004	395.6
807.184	358.74
807.363	317.78
807.543	328.02
807.722	307.54
807.901	407.89
808.081	325.97
808.26	256.34
808.439	280.91
808.619	270.67
808.798	264.53
808.977	280.91
809.156	229.71
809.336	221.52
809.515	315.73
809.694	221.52
809.873	225.62
810.052	313.68
810.231	344.4
810.411	301.39
810.59	258.39
810.769	323.92
810.948	377.17
811.127	151.89
811.306	198.99
811.485	215.38
811.664	368.98
811.843	272.72
812.022	270.67
812.201	186.71
812.38	307.54
812.559	170.32
812.737	198.99
812.916	219.47
813.095	231.76
813.274	264.53
813.453	227.67
813.632	235.86
813.811	307.54
813.989	205.14
814.168	270.67
814.347	244.05
814.526	166.23
814.704	272.72
814.883	194.9
815.062	217.43
815.24	303.44
815.419	196.95
815.598	186.71
815.776	147.8
815.955	235.86
816.133	125.27
816.312	203.09
816.49	242
816.669	190.8
816.847	237.91
817.026	225.62
817.204	162.13
817.383	270.67
817.561	178.51
817.74	242
817.918	221.52
818.097	207.19
818.275	98.64
818.453	223.57
818.632	217.43
818.81	133.46
818.988	209.23
819.167	135.51
819.345	121.17
819.523	141.65
819.701	149.84
819.879	242
820.058	225.62
820.236	184.66
820.414	139.6
820.592	172.37
820.77	201.04
820.948	151.89
821.127	213.33
821.305	201.04
821.483	143.7
821.661	233.81
821.839	119.12
822.017	106.84
822.195	184.66
822.373	223.57
822.551	149.84
822.729	227.67
822.907	135.51
823.085	233.81
823.262	186.71
823.44	196.95
823.618	121.17
823.796	141.65
823.974	67.92
824.152	151.89
824.329	80.21
824.507	219.47
824.685	215.38
824.863	160.08
825.04	246.1
825.218	123.22
825.396	190.8
825.574	110.93
825.751	147.8
825.929	104.79
826.107	102.74
826.284	155.99
826.462	135.51
826.639	112.98
826.817	143.7
826.994	108.88
827.172	110.93
827.349	209.23
827.527	147.8
827.704	98.64
827.882	266.58
828.059	108.88
828.237	88.4
828.414	155.99
828.591	74.07
828.769	29.01
828.946	55.64
829.124	149.84
829.301	151.89
829.478	149.84
829.655	137.56
829.833	123.22
830.01	16.73
830.187	145.75
830.364	94.55
830.542	72.02
830.719	192.85
830.896	178.51
831.073	158.03
831.25	135.51
831.427	219.47
831.604	72.02
831.782	139.6
831.959	104.79
832.136	135.51
832.313	80.21
832.49	106.84
832.667	84.31
832.844	104.79
833.021	139.6
833.198	106.84
833.374	86.36
833.551	133.46
833.728	12.63
833.905	137.56
834.082	86.36
834.259	176.47
834.436	96.6
834.612	14.68
834.789	164.18
834.966	69.97
835.143	78.16
835.319	26.96
835.496	61.78
835.673	158.03
835.85	119.12
836.026	43.35
836.203	147.8
836.38	127.32
836.556	45.4
836.733	78.16
836.909	153.94
837.086	164.18
837.262	65.88
837.439	94.55
837.616	65.88
837.792	160.08
837.968	24.92
838.145	94.55
838.321	57.68
838.498	112.98
838.674	182.61
838.851	57.68
839.027	43.35
839.203	90.45
839.38	135.51
839.556	22.87
839.732	14.68
839.909	135.51
840.085	164.18
840.261	88.4
840.437	53.59
840.614	88.4
840.79	100.69
840.966	33.11
841.142	129.36
841.318	51.54
841.494	88.4
841.671	168.27
841.847	55.64
842.023	100.69
842.199	61.78
842.375	86.36
842.551	33.11
842.727	37.2
842.903	92.5
843.079	55.64
843.255	188.75
843.431	59.73
843.607	133.46
843.783	-28.33
843.959	141.65
844.134	98.64
844.31	96.6
844.486	49.49
844.662	14.68
844.838	90.45
845.013	86.36
845.189	80.21
845.365	59.73
845.541	115.03
845.716	59.73
845.892	92.5
846.068	96.6
846.244	35.16
846.419	76.12
846.595	-22.19
846.77	37.2
846.946	100.69
847.122	20.82
847.297	65.88
847.473	172.37
847.648	74.07
847.824	86.36
847.999	45.4
848.175	67.92
848.35	55.64
848.526	84.31
848.701	119.12
848.876	84.31
849.052	149.84
849.227	92.5
849.403	-20.14
849.578	51.54
849.753	29.01
849.929	96.6
850.104	49.49
850.279	-9.9
850.454	45.4
850.63	104.79
850.805	57.68
850.98	35.16
851.155	12.63
851.33	37.2
851.505	-5.8
851.681	127.32
851.856	88.4
852.031	29.01
852.206	67.92
852.381	29.01
852.556	78.16
852.731	78.16
852.906	112.98
853.081	123.22
853.256	108.88
853.431	45.4
853.606	59.73
853.781	45.4
853.956	-13.99
854.131	123.22
854.305	20.82
854.48	80.21
854.655	117.08
854.83	2.39
855.005	16.73
855.18	69.97
855.354	-13.99
855.529	96.6
855.704	-24.23
855.879	98.64
856.053	24.92
856.228	41.3
856.403	22.87
856.577	82.26
856.752	100.69
856.926	16.73
857.101	94.55
857.276	6.49
857.45	-18.09
857.625	55.64
857.799	98.64
857.974	74.07
858.148	-32.43
858.323	55.64
858.497	8.53
858.672	72.02
858.846	18.77
859.02	76.12
859.195	43.35
859.369	10.58
859.543	26.96
859.718	55.64
859.892	61.78
860.066	22.87
860.241	61.78
860.415	61.78
860.589	39.25
860.763	-26.28
860.938	41.3
861.112	47.44
861.286	-95.91
861.46	29.01
861.634	59.73
861.808	12.63
861.982	-34.47
862.157	-7.85
862.331	-73.39
862.505	-44.71
862.679	51.54
862.853	24.92
863.027	4.44
863.201	98.64
863.375	10.58
863.549	35.16
863.722	-22.19
863.896	106.84
864.07	22.87
864.244	-5.8
864.418	2.39
864.592	96.6
864.766	72.02
864.939	2.39
865.113	-69.29
865.287	47.44
865.461	-89.77
865.634	45.4
865.808	39.25
865.982	29.01
866.156	-24.23
866.329	-32.43
866.503	18.77
866.676	57.68
866.85	18.77
867.024	12.63
867.197	88.4
867.371	-20.14
867.544	37.2
867.718	-48.81
867.891	35.16
868.065	-3.75
868.238	12.63
868.412	57.68
868.585	-20.14
868.759	4.44
868.932	24.92
869.105	57.68
869.279	78.16
869.452	10.58
869.625	37.2
869.799	35.16
869.972	-32.43
870.145	-38.57
870.319	43.35
870.492	2.39
870.665	-9.9
870.838	2.39
871.011	-24.23
871.185	-18.09
871.358	-38.57
871.531	53.59
871.704	72.02
871.877	8.53
872.05	-26.28
872.223	24.92
872.396	49.49
872.569	51.54
872.742	2.39
872.915	49.49
873.088	6.49
873.261	-22.19
873.434	102.74
873.607	53.59
873.78	100.69
873.953	-16.04
874.126	-11.95
874.299	76.12
874.471	-44.71
874.644	35.16
874.817	92.5
874.99	94.55
875.163	20.82
875.335	45.4
875.508	78.16
875.681	41.3
875.853	39.25
876.026	8.53
876.199	29.01
876.371	104.79
876.544	-3.75
876.717	-9.9
876.889	0.34
877.062	65.88
877.234	-44.71
877.407	-57
877.579	49.49
877.752	115.03
877.924	69.97
878.097	82.26
878.269	24.92
878.442	45.4
878.614	65.88
878.786	37.2
878.959	59.73
879.131	65.88
879.303	-87.72
879.476	31.06
879.648	-3.75
879.82	31.06
879.993	37.2
880.165	47.44
880.337	-16.04
880.509	-26.28
880.681	-28.33
880.854	10.58
881.026	24.92
881.198	33.11
881.37	-26.28
881.542	-7.85
881.714	-24.23
881.886	51.54
882.058	-28.33
882.23	53.59
882.402	10.58
882.574	12.63
882.746	43.35
882.918	78.16
883.09	45.4
883.262	12.63
883.434	20.82
883.606	-48.81
883.778	-28.33
883.95	53.59
884.122	2.39
884.293	63.83
884.465	-1.71
884.637	2.39
884.809	-7.85
884.98	55.64
885.152	-7.85
885.324	41.3
885.496	-30.38
885.667	-20.14
885.839	-3.75
886.011	82.26
886.182	16.73
886.354	10.58
886.525	115.03
886.697	45.4
886.869	6.49
887.04	20.82
887.212	72.02
887.383	57.68
887.555	-18.09
887.726	-26.28
887.897	-42.67
888.069	41.3
888.24	4.44
888.412	37.2
888.583	-5.8
888.754	-11.95
888.926	-57
889.097	51.54
889.268	-13.99
889.44	74.07
889.611	26.96
889.782	-7.85
889.953	10.58
890.125	2.39
890.296	-77.48
890.467	-1.71
890.638	-85.67
890.809	49.49
890.98	-83.63
891.151	-48.81
891.323	104.79
891.494	35.16
891.665	-34.47
891.836	-5.8
892.007	16.73
892.178	55.64
892.349	47.44
892.52	-73.39
892.691	-24.23
892.862	-36.52
893.032	-42.67
893.203	-22.19
893.374	69.97
893.545	115.03
893.716	-22.19
893.887	22.87
894.057	14.68
894.228	-75.43
894.399	-20.14
894.57	53.59
894.74	-5.8
894.911	65.88
895.082	41.3
895.253	-48.81
895.423	12.63
895.594	35.16
895.764	104.79
895.935	-11.95
896.106	59.73
896.276	-36.52
896.447	10.58
896.617	-89.77
896.788	-52.91
896.958	-20.14
897.129	43.35
897.299	14.68
897.47	80.21
897.64	67.92
897.81	-59.05
897.981	-50.86
898.151	-69.29
898.322	26.96
898.492	18.77
898.662	-36.52
898.832	-20.14
899.003	-3.75
899.173	10.58
899.343	-16.04
899.513	-67.24
