Data from USB4F104151__48__12-12-14-406.txt Node

Date: Fri Mar 14 12:12:14 EDT 2025
User: louis
Spectrometer: USB4F10415
Trigger mode: 4
Integration Time (sec): 5.000000E-2
Scans to average: 1
Electric dark correction enabled: true
Nonlinearity correction enabled: false
Boxcar width: 0
XAxis mode: Wavelengths
Number of Pixels in Spectrum: 3648
>>>>>Begin Spectral Data<<<<<
178.204	-231.08
178.424	-231.08
178.644	-231.08
178.864	-239.27
179.084	-257.7
179.304	-65.19
179.524	-9.9
179.744	51.54
179.964	-24.23
180.184	4.44
180.404	74.07
180.624	-34.47
180.844	2.39
181.064	-9.9
181.283	53.59
181.503	-46.76
181.723	4.44
181.943	-61.1
182.163	106.84
182.383	-40.62
182.602	51.54
182.822	119.12
183.042	12.63
183.262	-13.99
183.482	41.3
183.701	-54.95
183.921	18.77
184.141	31.06
184.361	121.17
184.58	22.87
184.8	4.44
185.02	0.34
185.239	100.69
185.459	-42.67
185.679	2.39
185.898	-89.77
186.118	51.54
186.338	57.68
186.557	16.73
186.777	-65.19
186.997	57.68
187.216	4.44
187.436	47.44
187.655	53.59
187.875	59.73
188.095	14.68
188.314	74.07
188.534	16.73
188.753	8.53
188.973	133.46
189.192	100.69
189.412	20.82
189.631	-9.9
189.851	74.07
190.07	-3.75
190.29	29.01
190.509	-11.95
190.729	-97.96
190.948	69.97
191.168	188.75
191.387	51.54
191.607	57.68
191.826	33.11
192.045	0.34
192.265	18.77
192.484	-44.71
192.704	33.11
192.923	-67.24
193.142	178.51
193.362	33.11
193.581	33.11
193.8	88.4
194.02	45.4
194.239	-9.9
194.458	76.12
194.678	-5.8
194.897	63.83
195.116	10.58
195.335	76.12
195.555	35.16
195.774	39.25
195.993	43.35
196.212	35.16
196.432	6.49
196.651	31.06
196.87	-42.67
197.089	94.55
197.308	69.97
197.528	49.49
197.747	-9.9
197.966	8.53
198.185	14.68
198.404	16.73
198.623	84.31
198.842	12.63
199.062	47.44
199.281	155.99
199.5	-16.04
199.719	-1.71
199.938	63.83
200.157	67.92
200.376	31.06
200.595	65.88
200.814	8.53
201.033	-36.52
201.252	33.11
201.471	-30.38
201.69	82.26
201.909	16.73
202.128	110.93
202.347	-9.9
202.566	2.39
202.785	-61.1
203.004	2.39
203.223	149.84
203.442	12.63
203.661	22.87
203.879	26.96
204.098	55.64
204.317	-63.15
204.536	106.84
204.755	2.39
204.974	74.07
205.193	76.12
205.411	112.98
205.63	96.6
205.849	78.16
206.068	158.03
206.287	35.16
206.505	53.59
206.724	0.34
206.943	-46.76
207.162	-48.81
207.381	41.3
207.599	43.35
207.818	6.49
208.037	-30.38
208.255	45.4
208.474	-22.19
208.693	16.73
208.911	102.74
209.13	-5.8
209.349	-13.99
209.567	47.44
209.786	121.17
210.005	82.26
210.223	53.59
210.442	-3.75
210.661	102.74
210.879	22.87
211.098	-24.23
211.316	37.2
211.535	51.54
211.753	86.36
211.972	53.59
212.191	104.79
212.409	65.88
212.628	57.68
212.846	-24.23
213.065	29.01
213.283	80.21
213.502	72.02
213.72	4.44
213.938	10.58
214.157	-1.71
214.375	53.59
214.594	-7.85
214.812	94.55
215.031	41.3
215.249	6.49
215.467	98.64
215.686	53.59
215.904	31.06
216.122	12.63
216.341	45.4
216.559	108.88
216.778	41.3
216.996	74.07
217.214	8.53
217.432	6.49
217.651	0.34
217.869	49.49
218.087	16.73
218.306	67.92
218.524	8.53
218.742	-3.75
218.96	41.3
219.179	2.39
219.397	84.31
219.615	90.45
219.833	92.5
220.051	10.58
220.27	-42.67
220.488	84.31
220.706	-13.99
220.924	-34.47
221.142	45.4
221.36	37.2
221.578	108.88
221.796	14.68
222.015	88.4
222.233	37.2
222.451	139.6
222.669	-22.19
222.887	94.55
223.105	16.73
223.323	31.06
223.541	-48.81
223.759	57.68
223.977	22.87
224.195	172.37
224.413	14.68
224.631	47.44
224.849	31.06
225.067	110.93
225.285	4.44
225.503	6.49
225.721	-50.86
225.939	14.68
226.157	16.73
226.375	129.36
226.592	-95.91
226.81	14.68
227.028	49.49
227.246	135.51
227.464	24.92
227.682	69.97
227.9	90.45
228.117	10.58
228.335	45.4
228.553	-46.76
228.771	-38.57
228.989	82.26
229.206	6.49
229.424	-20.14
229.642	37.2
229.86	59.73
230.077	102.74
230.295	14.68
230.513	72.02
230.731	-3.75
230.948	84.31
231.166	78.16
231.384	-5.8
231.601	24.92
231.819	78.16
232.037	6.49
232.254	-95.91
232.472	41.3
232.689	-40.62
232.907	24.92
233.125	10.58
233.342	31.06
233.56	88.4
233.777	14.68
233.995	61.78
234.213	98.64
234.43	-5.8
234.648	8.53
234.865	20.82
235.083	31.06
235.3	35.16
235.518	98.64
235.735	117.08
235.953	55.64
236.17	55.64
236.388	-91.82
236.605	10.58
236.822	74.07
237.04	94.55
237.257	20.82
237.475	0.34
237.692	47.44
237.909	86.36
238.127	20.82
238.344	47.44
238.562	76.12
238.779	16.73
238.996	6.49
239.214	59.73
239.431	125.27
239.648	-3.75
239.865	72.02
240.083	90.45
240.3	-16.04
240.517	74.07
240.735	26.96
240.952	131.41
241.169	45.4
241.386	47.44
241.603	16.73
241.821	-22.19
242.038	57.68
242.255	84.31
242.472	-30.38
242.689	47.44
242.907	129.36
243.124	0.34
243.341	84.31
243.558	10.58
243.775	45.4
243.992	2.39
244.209	49.49
244.426	131.41
244.643	4.44
244.86	-20.14
245.078	65.88
245.295	55.64
245.512	47.44
245.729	57.68
245.946	119.12
246.163	69.97
246.38	0.34
246.597	65.88
246.814	88.4
247.031	8.53
247.248	14.68
247.464	102.74
247.681	-30.38
247.898	-11.95
248.115	143.7
248.332	-30.38
248.549	86.36
248.766	127.32
248.983	65.88
249.2	14.68
249.417	-11.95
249.633	0.34
249.85	61.78
250.067	-42.67
250.284	14.68
250.501	-3.75
250.717	65.88
250.934	-11.95
251.151	35.16
251.368	6.49
251.585	98.64
251.801	-24.23
252.018	-20.14
252.235	31.06
252.451	-30.38
252.668	-5.8
252.885	127.32
253.102	43.35
253.318	35.16
253.535	55.64
253.752	-7.85
253.968	-48.81
254.185	-79.53
254.401	37.2
254.618	39.25
254.835	57.68
255.051	141.65
255.268	94.55
255.484	-65.19
255.701	37.2
255.917	24.92
256.134	6.49
256.351	29.01
256.567	43.35
256.784	53.59
257	-16.04
257.217	41.3
257.433	72.02
257.65	2.39
257.866	41.3
258.082	6.49
258.299	2.39
258.515	-20.14
258.732	-7.85
258.948	-36.52
259.165	4.44
259.381	8.53
259.597	-9.9
259.814	-67.24
260.03	78.16
260.246	72.02
260.463	78.16
260.679	106.84
260.895	8.53
261.112	57.68
261.328	2.39
261.544	8.53
261.761	84.31
261.977	33.11
262.193	-50.86
262.409	98.64
262.626	-44.71
262.842	-22.19
263.058	-38.57
263.274	47.44
263.49	80.21
263.707	141.65
263.923	29.01
264.139	-9.9
264.355	-9.9
264.571	61.78
264.787	102.74
265.004	65.88
265.22	-57
265.436	57.68
265.652	55.64
265.868	72.02
266.084	16.73
266.3	-75.43
266.516	-3.75
266.732	51.54
266.948	84.31
267.164	96.6
267.38	43.35
267.596	55.64
267.812	115.03
268.028	-24.23
268.244	0.34
268.46	24.92
268.676	-18.09
268.892	74.07
269.108	-69.29
269.324	-7.85
269.54	-79.53
269.756	63.83
269.972	-11.95
270.188	55.64
270.403	-11.95
270.619	26.96
270.835	94.55
271.051	16.73
271.267	57.68
271.483	2.39
271.698	145.75
271.914	55.64
272.13	-26.28
272.346	20.82
272.562	63.83
272.777	33.11
272.993	2.39
273.209	57.68
273.425	14.68
273.64	14.68
273.856	74.07
274.072	0.34
274.287	4.44
274.503	37.2
274.719	59.73
274.934	-9.9
275.15	-1.71
275.366	33.11
275.581	12.63
275.797	82.26
276.012	53.59
276.228	39.25
276.444	69.97
276.659	86.36
276.875	-3.75
277.09	53.59
277.306	69.97
277.521	76.12
277.737	31.06
277.952	98.64
278.168	14.68
278.383	49.49
278.599	31.06
278.814	2.39
279.03	65.88
279.245	76.12
279.461	33.11
279.676	145.75
279.892	-54.95
280.107	2.39
280.322	-5.8
280.538	55.64
280.753	-42.67
280.969	31.06
281.184	49.49
281.399	96.6
281.615	104.79
281.83	55.64
282.045	-83.63
282.26	-59.05
282.476	57.68
282.691	129.36
282.906	41.3
283.122	80.21
283.337	-40.62
283.552	57.68
283.767	45.4
283.983	31.06
284.198	100.69
284.413	0.34
284.628	-20.14
284.843	6.49
285.058	24.92
285.274	6.49
285.489	-46.76
285.704	33.11
285.919	37.2
286.134	49.49
286.349	31.06
286.564	-54.95
286.779	74.07
286.995	-26.28
287.21	-3.75
287.425	24.92
287.64	12.63
287.855	65.88
288.07	-36.52
288.285	43.35
288.5	94.55
288.715	94.55
288.93	24.92
289.145	0.34
289.36	67.92
289.575	-1.71
289.79	94.55
290.004	67.92
290.219	51.54
290.434	33.11
290.649	39.25
290.864	94.55
291.079	-28.33
291.294	41.3
291.509	76.12
291.724	90.45
291.938	-5.8
292.153	55.64
292.368	24.92
292.583	4.44
292.798	51.54
293.012	12.63
293.227	31.06
293.442	-46.76
293.657	63.83
293.871	67.92
294.086	69.97
294.301	76.12
294.516	84.31
294.73	14.68
294.945	-13.99
295.16	47.44
295.374	145.75
295.589	84.31
295.804	14.68
296.018	90.45
296.233	139.6
296.447	39.25
296.662	31.06
296.877	8.53
297.091	102.74
297.306	-52.91
297.52	12.63
297.735	39.25
297.949	29.01
298.164	2.39
298.378	35.16
298.593	18.77
298.807	2.39
299.022	49.49
299.236	12.63
299.451	-9.9
299.665	-26.28
299.88	43.35
300.094	72.02
300.309	63.83
300.523	26.96
300.737	20.82
300.952	24.92
301.166	63.83
301.381	-28.33
301.595	76.12
301.809	78.16
302.024	67.92
302.238	37.2
302.452	78.16
302.667	35.16
302.881	98.64
303.095	33.11
303.309	53.59
303.524	-28.33
303.738	4.44
303.952	12.63
304.166	10.58
304.381	-26.28
304.595	102.74
304.809	24.92
305.023	37.2
305.237	-18.09
305.452	82.26
305.666	72.02
305.88	45.4
306.094	16.73
306.308	41.3
306.522	98.64
306.736	22.87
306.95	106.84
307.164	24.92
307.379	-7.85
307.593	104.79
307.807	94.55
308.021	80.21
308.235	63.83
308.449	-11.95
308.663	-11.95
308.877	119.12
309.091	14.68
309.305	47.44
309.519	-57
309.733	-7.85
309.947	18.77
310.161	-18.09
310.374	96.6
310.588	72.02
310.802	-30.38
311.016	51.54
311.23	-3.75
311.444	24.92
311.658	29.01
311.872	135.51
312.085	84.31
312.299	123.22
312.513	133.46
312.727	-16.04
312.941	82.26
313.154	55.64
313.368	53.59
313.582	51.54
313.796	33.11
314.009	76.12
314.223	119.12
314.437	16.73
314.651	74.07
314.864	10.58
315.078	53.59
315.292	10.58
315.505	51.54
315.719	16.73
315.933	82.26
316.146	0.34
316.36	37.2
316.573	137.56
316.787	41.3
317.001	33.11
317.214	-13.99
317.428	84.31
317.641	-28.33
317.855	22.87
318.068	49.49
318.282	-11.95
318.495	98.64
318.709	78.16
318.922	69.97
319.136	72.02
319.349	100.69
319.563	45.4
319.776	-18.09
319.99	-83.63
320.203	67.92
320.417	100.69
320.63	76.12
320.843	112.98
321.057	-24.23
321.27	100.69
321.483	65.88
321.697	18.77
321.91	-13.99
322.124	-22.19
322.337	18.77
322.55	-42.67
322.763	55.64
322.977	16.73
323.19	20.82
323.403	84.31
323.617	24.92
323.83	57.68
324.043	90.45
324.256	18.77
324.469	-54.95
324.683	125.27
324.896	43.35
325.109	-20.14
325.322	-32.43
325.535	74.07
325.748	92.5
325.962	2.39
326.175	57.68
326.388	14.68
326.601	72.02
326.814	-3.75
327.027	76.12
327.24	127.32
327.453	-30.38
327.666	-3.75
327.879	94.55
328.092	65.88
328.305	45.4
328.518	31.06
328.731	-22.19
328.944	-5.8
329.157	4.44
329.37	-9.9
329.583	74.07
329.796	98.64
330.009	41.3
330.222	158.03
330.435	90.45
330.648	53.59
330.861	-28.33
331.073	45.4
331.286	104.79
331.499	47.44
331.712	-5.8
331.925	0.34
332.138	-7.85
332.35	82.26
332.563	31.06
332.776	117.08
332.989	-13.99
333.202	59.73
333.414	59.73
333.627	-13.99
333.84	39.25
334.053	69.97
334.265	41.3
334.478	33.11
334.691	49.49
334.903	59.73
335.116	20.82
335.329	-11.95
335.541	74.07
335.754	47.44
335.966	26.96
336.179	-46.76
336.392	49.49
336.604	80.21
336.817	84.31
337.029	39.25
337.242	-3.75
337.454	108.88
337.667	69.97
337.88	94.55
338.092	106.84
338.305	90.45
338.517	16.73
338.729	82.26
338.942	12.63
339.154	-16.04
339.367	-48.81
339.579	14.68
339.792	0.34
340.004	65.88
340.217	63.83
340.429	12.63
340.641	6.49
340.854	-30.38
341.066	-1.71
341.278	121.17
341.491	67.92
341.703	59.73
341.915	24.92
342.128	92.5
342.34	-26.28
342.552	14.68
342.764	26.96
342.977	49.49
343.189	63.83
343.401	65.88
343.613	18.77
343.826	18.77
344.038	-59.05
344.25	53.59
344.462	0.34
344.674	-9.9
344.886	4.44
345.099	55.64
345.311	69.97
345.523	-5.8
345.735	-91.82
345.947	104.79
346.159	39.25
346.371	88.4
346.583	35.16
346.795	137.56
347.007	35.16
347.219	74.07
347.431	-1.71
347.643	67.92
347.855	43.35
348.067	90.45
348.279	10.58
348.491	59.73
348.703	61.78
348.915	39.25
349.127	51.54
349.339	47.44
349.551	-22.19
349.763	72.02
349.975	65.88
350.187	90.45
350.399	80.21
350.61	98.64
350.822	37.2
351.034	53.59
351.246	115.03
351.458	80.21
351.669	24.92
351.881	100.69
352.093	16.73
352.305	117.08
352.517	57.68
352.728	100.69
352.94	16.73
353.152	61.78
353.363	-59.05
353.575	61.78
353.787	158.03
353.999	29.01
354.21	127.32
354.422	53.59
354.633	69.97
354.845	14.68
355.057	35.16
355.268	88.4
355.48	67.92
355.692	-34.47
355.903	100.69
356.115	-57
356.326	-22.19
356.538	131.41
356.749	215.38
356.961	129.36
357.172	59.73
357.384	-9.9
357.595	106.84
357.807	59.73
358.018	8.53
358.23	4.44
358.441	65.88
358.653	26.96
358.864	-34.47
359.075	29.01
359.287	86.36
359.498	162.13
359.709	49.49
359.921	41.3
360.132	-5.8
360.344	45.4
360.555	65.88
360.766	84.31
360.977	33.11
361.189	63.83
361.4	61.78
361.611	117.08
361.823	108.88
362.034	61.78
362.245	6.49
362.456	100.69
362.667	72.02
362.879	0.34
363.09	96.6
363.301	2.39
363.512	55.64
363.723	26.96
363.935	16.73
364.146	112.98
364.357	121.17
364.568	84.31
364.779	41.3
364.99	43.35
365.201	41.3
365.412	33.11
365.623	59.73
365.834	129.36
366.045	10.58
366.256	49.49
366.467	-5.8
366.678	69.97
366.889	39.25
367.1	39.25
367.311	51.54
367.522	16.73
367.733	125.27
367.944	86.36
368.155	72.02
368.366	76.12
368.577	35.16
368.788	108.88
368.999	49.49
369.209	51.54
369.42	100.69
369.631	164.18
369.842	86.36
370.053	31.06
370.264	53.59
370.474	-1.71
370.685	49.49
370.896	74.07
371.107	137.56
371.317	69.97
371.528	53.59
371.739	59.73
371.95	92.5
372.16	104.79
372.371	47.44
372.582	24.92
372.792	69.97
373.003	-16.04
373.214	33.11
373.424	47.44
373.635	63.83
373.846	88.4
374.056	29.01
374.267	104.79
374.477	76.12
374.688	51.54
374.898	-7.85
375.109	76.12
375.319	51.54
375.53	86.36
375.74	162.13
375.951	-1.71
376.161	8.53
376.372	69.97
376.582	45.4
376.793	112.98
377.003	4.44
377.214	-13.99
377.424	61.78
377.635	0.34
377.845	6.49
378.055	102.74
378.266	4.44
378.476	96.6
378.686	26.96
378.897	16.73
379.107	137.56
379.317	41.3
379.528	-5.8
379.738	76.12
379.948	-44.71
380.158	76.12
380.369	20.82
380.579	94.55
380.789	49.49
380.999	88.4
381.21	123.22
381.42	115.03
381.63	-1.71
381.84	72.02
382.05	84.31
382.261	108.88
382.471	104.79
382.681	31.06
382.891	86.36
383.101	86.36
383.311	59.73
383.521	14.68
383.731	119.12
383.941	59.73
384.151	45.4
384.361	-34.47
384.571	129.36
384.781	106.84
384.991	135.51
385.201	198.99
385.411	76.12
385.621	119.12
385.831	88.4
386.041	96.6
386.251	20.82
386.461	100.69
386.671	24.92
386.881	51.54
387.091	74.07
387.301	123.22
387.511	35.16
387.72	119.12
387.93	26.96
388.14	-54.95
388.35	78.16
388.56	115.03
388.769	123.22
388.979	14.68
389.189	-32.43
389.399	63.83
389.609	57.68
389.818	94.55
390.028	47.44
390.238	82.26
390.447	14.68
390.657	69.97
390.867	100.69
391.076	14.68
391.286	59.73
391.496	33.11
391.705	112.98
391.915	151.89
392.125	100.69
392.334	108.88
392.544	172.37
392.753	18.77
392.963	-1.71
393.172	153.94
393.382	22.87
393.591	158.03
393.801	88.4
394.01	115.03
394.22	119.12
394.429	67.92
394.639	100.69
394.848	112.98
395.058	137.56
395.267	31.06
395.477	139.6
395.686	139.6
395.895	233.81
396.105	239.95
396.314	84.31
396.524	160.08
396.733	155.99
396.942	127.32
397.152	117.08
397.361	194.9
397.57	121.17
397.78	104.79
397.989	131.41
398.198	137.56
398.407	67.92
398.617	84.31
398.826	153.94
399.035	147.8
399.244	100.69
399.453	117.08
399.663	180.56
399.872	192.85
400.081	96.6
400.29	127.32
400.499	112.98
400.708	164.18
400.917	166.23
401.127	90.45
401.336	133.46
401.545	280.91
401.754	211.28
401.963	100.69
402.172	176.47
402.381	53.59
402.59	145.75
402.799	190.8
403.008	203.09
403.217	186.71
403.426	221.52
403.635	158.03
403.844	98.64
404.053	293.2
404.262	127.32
404.471	231.76
404.68	153.94
404.888	158.03
405.097	158.03
405.306	233.81
405.515	258.39
405.724	164.18
405.933	272.72
406.142	192.85
406.35	248.15
406.559	233.81
406.768	233.81
406.977	321.87
407.185	307.54
407.394	289.1
407.603	178.51
407.812	321.87
408.02	342.35
408.229	307.54
408.438	346.45
408.646	233.81
408.855	276.82
409.064	358.74
409.272	379.22
409.481	379.22
409.69	401.74
409.898	424.27
410.107	461.13
410.315	475.47
410.524	409.94
410.733	528.72
410.941	547.15
411.15	461.13
411.358	571.72
411.567	635.21
411.775	674.12
411.984	543.05
412.192	633.16
412.401	553.29
412.609	713.03
412.818	776.52
413.026	725.32
413.234	854.34
413.443	764.23
413.651	782.67
413.86	858.44
414.068	973.13
414.276	964.93
414.485	837.96
414.693	1016.13
414.901	1087.81
415.11	969.03
415.318	964.93
415.526	1110.34
415.734	1110.34
415.943	1151.3
416.151	1247.55
416.359	1196.36
416.567	1255.75
416.776	1364.29
416.984	1413.44
417.192	1429.82
417.4	1407.3
417.608	1399.1
417.817	1538.37
418.025	1624.38
418.233	1698.11
418.441	1585.47
418.649	1755.45
418.857	1878.33
419.065	1945.91
419.273	1863.99
419.481	1898.81
419.689	2144.56
419.897	2142.52
420.105	2195.76
420.313	2316.59
420.521	2455.86
420.729	2359.6
420.937	2533.68
421.145	2615.6
421.353	2713.9
421.561	2906.41
421.769	2924.84
421.977	2922.79
422.185	2955.56
422.393	3164.45
422.601	3365.15
422.809	3307.81
423.017	3299.62
423.224	3531.04
423.432	3639.58
423.64	3660.06
423.848	4043.03
424.056	3834.14
424.263	4102.42
424.471	4219.16
424.679	4253.97
424.887	4495.63
425.094	4485.39
425.302	4759.82
425.51	4819.21
425.718	4946.19
425.925	5064.97
426.133	5275.91
426.341	5501.19
426.548	5677.31
426.756	5724.41
426.964	5781.76
427.171	6091
427.379	6097.14
427.586	6445.3
427.794	6680.82
428.001	6969.58
428.209	7088.36
428.417	6998.25
428.624	7360.74
428.832	7577.83
429.039	7549.15
429.247	7577.83
429.454	8202.46
429.662	8593.62
429.869	8136.92
430.076	8786.13
430.284	8726.74
430.491	8827.09
430.699	9347.27
430.906	9435.33
431.114	9349.32
431.321	9711.81
431.528	10078.4
431.736	10703.03
431.943	11067.56
432.15	10993.84
432.358	11161.77
432.565	11581.6
432.772	11489.45
432.979	12228.76
433.187	12351.64
433.394	12374.17
433.601	13164.68
433.808	13260.94
434.016	12875.92
434.223	13764.74
434.43	14696.57
434.637	14205.05
434.844	15153.26
435.052	15372.39
435.259	15304.81
435.466	15341.68
435.673	15319.15
435.88	16193.63
436.087	16988.24
436.294	17209.42
436.501	16527.45
436.708	17066.06
436.915	17641.54
437.122	18495.55
437.329	18237.5
437.537	18855.99
437.743	19380.27
437.95	19009.59
438.157	20156.45
438.364	20547.61
438.571	20611.1
438.778	20631.58
438.985	22659.07
439.192	21508.11
439.399	22648.83
439.606	22005.77
439.813	23255.03
440.02	24440.8
440.227	24133.61
440.433	23896.04
440.64	24586.21
440.847	24463.33
441.054	25001.94
441.261	26597.31
441.467	26537.92
441.674	26724.29
441.881	27977.64
442.088	27559.86
442.294	27277.24
442.501	28258.21
442.708	28637.09
442.914	30005.13
443.121	31491.96
443.328	30162.83
443.534	32384.87
443.741	31704.95
443.948	30904.19
444.154	33179.48
444.361	33183.58
444.568	33281.88
444.774	33290.07
444.981	33529.69
445.187	34711.36
445.394	35987.25
445.6	35841.84
445.807	38774.53
446.013	36886.31
446.22	37900.05
446.426	39608.06
446.633	39595.77
446.839	40716.01
447.046	39112.45
447.252	41602.78
447.459	40929
447.665	40978.15
447.871	42858.18
448.078	44443.31
448.284	42129.11
448.491	43443.9
448.697	45301.41
448.903	46327.44
449.11	45993.62
449.316	45399.71
449.522	45962.9
449.728	47304.32
449.935	47478.4
450.141	47574.66
450.347	48627.31
450.553	47054.47
450.76	47502.98
450.966	48590.45
451.172	48500.34
451.378	49735.26
451.584	48834.16
451.791	50079.32
451.997	49616.48
452.203	50488.91
452.409	50687.57
452.615	50329.17
452.821	48246.39
453.027	47681.15
453.233	50230.87
453.44	48395.89
453.646	48623.22
453.852	48565.87
454.058	49739.36
454.264	48449.14
454.47	49172.07
454.676	48096.89
454.882	49575.52
455.088	45223.59
455.294	46055.06
455.5	46218.9
455.705	46859.91
455.911	45055.65
456.117	44390.06
456.323	43632.32
456.529	41799.38
456.735	43028.16
456.941	42039
457.147	41258.72
457.352	39931.64
457.558	39622.39
457.764	39825.14
457.97	38909.7
458.176	38225.68
458.381	38209.29
458.587	36271.92
458.793	36007.73
458.999	34017.1
459.204	36497.19
459.41	35417.91
459.616	33271.64
459.821	33396.57
460.027	33105.76
460.233	32202.6
460.438	30871.42
460.644	31131.51
460.85	29581.2
461.055	29112.22
461.261	29056.92
461.466	26738.62
461.672	25890.76
461.878	28016.55
462.083	25763.79
462.289	25513.94
462.494	25380.82
462.7	24088.55
462.905	23500.78
463.111	24242.15
463.316	24297.44
463.522	23547.89
463.727	23748.59
463.932	23711.72
464.138	23402.48
464.343	23701.48
464.549	22501.37
464.754	23627.76
464.959	23730.16
465.165	23447.54
465.37	22249.47
465.575	21426.19
465.781	22349.82
465.986	22306.82
466.191	21700.62
466.397	21331.98
466.602	20281.38
466.807	20799.51
467.012	20813.85
467.218	21051.41
467.423	20592.67
467.628	20584.48
467.833	21624.84
468.038	20834.33
468.244	20107.3
468.449	20783.13
468.654	20283.42
468.859	20168.74
469.064	20084.77
469.269	19202.1
469.474	19109.94
469.679	19730.47
469.885	19003.44
470.09	19324.97
470.295	19245.1
470.5	18622.52
470.705	18995.25
470.91	18300.99
471.115	18454.59
471.32	18360.38
471.525	18548.79
471.73	17600.58
471.935	17887.3
472.139	17260.62
472.344	17088.59
472.549	17244.24
472.754	16898.13
472.959	16789.59
473.164	16324.7
473.369	16179.29
473.574	16568.41
473.778	16478.3
473.983	16341.08
474.188	16023.65
474.393	15534.18
474.598	15603.82
474.802	15339.63
475.007	15296.62
475.212	15458.41
475.417	14700.66
475.621	14825.59
475.826	14758
476.031	14487.67
476.235	14258.3
476.44	14465.14
476.645	14057.6
476.849	14135.42
477.054	13815.94
477.259	13811.84
477.463	13828.23
477.668	13168.78
477.872	13334.67
478.077	13211.79
478.282	12900.5
478.486	12855.44
478.691	12890.26
478.895	12779.67
479.1	13056.14
479.304	12791.95
479.509	12413.08
479.713	12542.1
479.918	12066.97
480.122	12394.65
480.326	12363.93
480.531	12140.7
480.735	12230.81
480.94	12073.12
481.144	12308.63
481.348	11722.91
481.553	11901.09
481.757	11495.59
481.961	11864.22
482.166	11792.55
482.37	11958.43
482.574	11440.29
482.778	11464.87
482.983	11671.72
483.187	11485.35
483.391	11919.52
483.595	11739.3
483.8	11579.56
484.004	11546.79
484.208	11829.41
484.412	11573.41
484.616	11761.83
484.821	11684
485.025	11131.05
485.229	11665.57
485.433	11403.43
485.637	11600.04
485.841	11307.18
486.045	11374.76
486.249	11423.91
486.453	11387.05
486.657	11329.7
486.861	11536.55
487.065	11274.41
487.269	11497.64
487.473	11100.33
487.677	11499.69
487.881	11624.61
488.085	11419.82
488.289	11606.18
488.493	11329.7
488.697	11370.66
488.901	11647.14
489.105	11270.31
489.309	11509.93
489.512	11483.3
489.716	11575.46
489.92	11466.92
490.124	11446.44
490.328	11774.11
490.531	11667.62
490.735	11849.89
490.939	11804.83
491.143	11548.84
491.346	11739.3
491.55	11767.97
491.754	11970.72
491.958	12044.45
492.161	11810.98
492.365	11954.33
492.569	11569.32
492.772	12130.46
492.976	12253.34
493.18	12249.24
493.383	12230.81
493.587	12269.72
493.79	12406.94
493.994	12173.47
494.197	12312.73
494.401	12527.77
494.605	12435.61
494.808	12837.01
495.012	12697.75
495.215	12767.38
495.419	12912.78
495.622	12802.19
495.825	13258.89
496.029	13076.62
496.232	13643.91
496.436	13340.81
496.639	13668.48
496.843	13377.67
497.046	13557.89
497.249	13992.06
497.453	13957.25
497.656	14069.89
497.859	14016.64
498.063	14334.07
498.266	14628.98
498.469	14348.41
498.673	14415.99
498.876	14747.76
499.079	14993.52
499.282	15067.25
499.485	15597.67
499.689	15528.04
499.892	15677.54
500.095	15571.05
500.298	16015.46
500.501	15800.42
500.705	16410.71
500.908	16402.52
501.111	16509.02
501.314	16830.55
501.517	16961.62
501.72	17064.02
501.923	16973.91
502.126	17403.98
502.329	17338.44
502.532	17807.43
502.735	17569.87
502.938	18042.95
503.141	18163.78
503.344	18552.89
503.547	18499.64
503.75	18548.79
503.953	19128.37
504.156	19363.89
504.359	19556.39
504.562	19349.55
504.765	19707.94
504.968	20291.62
505.17	20056.1
505.373	20484.12
505.576	20572.19
505.779	20887.57
505.982	20830.23
506.185	21319.7
506.387	21180.43
506.59	21399.57
506.793	21876.74
506.996	21676.04
507.198	22333.44
507.401	22315.01
507.604	22460.41
507.807	22810.62
508.009	23031.8
508.212	23160.82
508.415	23285.75
508.617	23568.37
508.82	23982.06
509.022	23640.04
509.225	24244.2
509.428	24670.17
509.63	24745.95
509.833	24791
510.035	25253.84
510.238	25167.83
510.44	25511.89
510.643	25587.66
510.845	26230.73
511.048	26038.22
511.25	26423.23
511.453	26232.77
511.655	27115.45
511.858	26884.03
512.06	27180.98
512.262	27346.87
512.465	27559.86
512.667	28094.38
512.87	28043.18
513.072	28178.34
513.274	28700.58
513.477	28778.4
513.679	29030.3
513.881	29110.17
514.084	29786
514.286	29542.29
514.488	29687.7
514.69	30521.22
514.893	30627.71
515.095	30357.38
515.297	31006.59
515.499	30953.34
515.701	31231.86
515.904	31592.31
516.106	32159.59
516.308	32145.26
516.51	32503.65
516.712	32456.55
516.914	33081.18
517.116	33283.93
517.318	33087.32
517.52	33230.68
517.722	33150.81
517.925	34010.96
518.127	34234.19
518.329	34404.17
518.531	33986.38
518.733	34770.75
518.935	34776.9
519.136	34961.22
519.338	35387.19
519.54	35518.26
519.742	36146.99
519.944	35565.37
520.146	36433.71
520.348	36521.77
520.55	36523.82
520.752	36491.05
520.954	37386.01
521.155	37199.65
521.357	37541.66
521.559	37564.18
521.761	38426.38
521.963	37885.72
522.164	38209.29
522.366	38330.12
522.568	38731.53
522.77	38639.37
522.971	39476.99
523.173	38911.75
523.375	39278.33
523.576	38944.52
523.778	39309.05
523.98	39569.15
524.181	39311.1
524.383	39540.47
524.584	40122.1
524.786	40101.62
524.988	39888.63
525.189	40406.76
525.391	40742.63
525.592	40535.79
525.794	40744.68
525.995	40662.76
526.197	41150.18
526.398	40943.33
526.6	41015.01
526.801	41139.94
527.003	41383.65
527.204	41053.92
527.406	41250.53
527.607	41610.97
527.808	41641.69
528.01	41545.44
528.211	41629.4
528.412	42131.15
528.614	42045.14
528.815	41776.86
529.016	42530.51
529.218	41955.03
529.419	42036.95
529.62	42165.97
529.822	41967.32
530.023	42141.39
530.224	42026.71
530.425	42006.23
530.626	41903.83
530.828	42057.43
531.029	42530.51
531.23	42168.02
531.431	42055.38
531.632	42538.7
531.833	42548.94
532.035	42280.66
532.236	42170.07
532.437	42471.12
532.638	41897.69
532.839	42845.9
533.04	42677.96
533.241	42092.24
533.442	42686.15
533.643	42071.76
533.844	42589.9
534.045	42391.25
534.246	41729.75
534.447	42229.46
534.648	42213.07
534.849	42634.95
535.05	42139.35
535.251	42147.54
535.451	41748.18
535.652	42286.8
535.853	42194.64
536.054	42231.5
536.255	42192.59
536.456	42067.67
536.657	42624.71
536.857	41899.73
537.058	41406.17
537.259	42079.96
537.46	42211.03
537.66	41899.73
537.861	41955.03
538.062	41397.98
538.263	41787.1
538.463	41490.14
538.664	41623.26
538.865	41686.75
539.065	42260.18
539.266	41658.07
539.466	42061.52
539.667	41238.24
539.868	42305.23
540.068	41635.55
540.269	41668.31
540.469	42215.12
540.67	41524.96
540.87	41785.05
541.071	41635.55
541.271	42100.43
541.472	41963.22
541.672	41342.69
541.873	41309.92
542.073	41191.14
542.274	41764.57
542.474	41465.56
542.675	41236.19
542.875	41828.06
543.075	41416.41
543.276	40969.96
543.476	41877.21
543.676	41348.83
543.877	41514.72
544.077	41606.87
544.277	40789.73
544.478	41328.35
544.678	41326.3
544.878	41619.16
545.078	40972
545.279	40998.63
545.479	40857.32
545.679	40967.91
545.879	40982.24
546.079	41385.69
546.28	40935.14
546.48	40783.59
546.68	41201.38
546.88	40701.67
547.08	40935.14
547.28	40754.92
547.48	40052.47
547.68	40974.05
547.88	40345.33
548.081	40769.26
548.281	40554.22
548.481	40908.52
548.681	40711.91
548.881	40804.07
549.081	40885.99
549.28	40382.19
549.48	40687.34
549.68	40308.46
549.88	40867.56
550.08	40107.76
550.28	40922.85
550.48	40292.08
550.68	41135.84
550.88	40576.75
551.08	40701.67
551.279	40625.9
551.479	40134.38
551.679	40648.43
551.879	40441.58
552.079	40472.3
552.278	40333.04
552.478	40382.19
552.678	40806.12
552.878	40386.29
553.077	40353.52
553.277	39739.13
553.477	40652.52
553.676	40089.33
553.876	40302.32
554.076	40097.52
554.275	40363.76
554.475	40011.51
554.674	39968.5
554.874	40230.64
555.074	40181.49
555.273	40345.33
555.473	40513.26
555.672	40136.43
555.872	39812.85
556.071	40292.08
556.271	40212.21
556.47	39902.96
556.67	39843.57
556.869	39962.36
557.068	40152.82
557.268	39943.92
557.467	40173.3
557.667	39782.13
557.866	39673.59
558.065	39706.36
558.265	39180.03
558.464	39798.52
558.663	40118
558.863	39352.06
559.062	39870.2
559.261	39313.15
559.461	39890.68
559.66	39051.01
559.859	39452.41
560.058	39487.23
560.258	39929.59
560.457	39100.16
560.656	39599.87
560.855	39345.92
561.054	39517.95
561.253	39337.73
561.453	39397.12
561.652	39370.49
561.851	39296.77
562.05	39259.9
562.249	39223.04
562.448	39415.55
562.647	39380.73
562.846	38946.56
563.045	39085.82
563.244	38745.86
563.443	39509.75
563.642	38569.74
563.841	38786.82
564.04	38858.5
564.239	39098.11
564.438	38848.26
564.637	39102.21
564.836	39014.15
565.035	38604.55
565.234	39143.17
565.432	38590.22
565.631	38657.8
565.83	39008
566.029	38539.02
566.228	38657.8
566.427	38469.39
566.625	38326.03
566.824	38135.57
567.023	38835.97
567.222	38010.64
567.42	38596.36
567.619	38442.76
567.818	38457.1
568.016	38268.69
568.215	38919.94
568.414	38123.28
568.612	38868.74
568.811	37832.47
569.01	38172.43
569.208	37250.84
569.407	37943.06
569.605	37781.27
569.804	38588.17
570.002	37902.1
570.201	37904.15
570.4	37547.8
570.598	37613.34
570.797	37670.68
570.995	37988.11
571.193	37005.09
571.392	37918.48
571.59	37496.6
571.789	37584.66
571.987	37203.74
572.186	37967.63
572.384	37418.78
572.582	37416.73
572.781	37570.33
572.979	36583.21
573.177	37332.76
573.376	37523.22
573.574	36779.81
573.772	37218.08
573.971	36968.23
574.169	36683.56
574.367	36575.02
574.565	37345.05
574.763	36765.48
574.962	36599.59
575.16	36523.82
575.358	36491.05
575.556	36556.58
575.754	37154.59
575.952	36699.94
576.151	36448.04
576.349	36042.54
576.547	36470.57
576.745	36554.54
576.943	36239.15
577.141	36187.95
577.339	36493.1
577.537	36265.77
577.735	36632.36
577.933	36011.82
578.131	36067.12
578.329	36050.74
578.527	35991.34
578.725	36183.85
578.923	36058.93
579.121	35712.82
579.319	35497.78
579.516	36013.87
579.714	35837.75
579.912	35721.01
580.11	35784.5
580.308	35526.46
580.506	35292.99
580.704	35020.61
580.901	35116.86
581.099	35858.23
581.297	35059.52
581.495	34836.29
581.692	35407.67
581.89	35096.38
582.088	35077.95
582.285	34981.7
582.483	35266.36
582.681	34805.57
582.878	34801.47
583.076	34563.91
583.274	34801.47
583.471	34463.56
583.669	34385.74
583.866	34379.59
584.064	34711.36
584.262	34455.37
584.459	34750.28
584.657	34129.74
584.854	34604.87
585.052	33605.46
585.249	33949.52
585.447	34203.47
585.644	33918.8
585.841	34080.59
586.039	34176.84
586.236	33757.01
586.434	33429.34
586.631	33664.85
586.828	33949.52
587.026	33621.84
587.223	33486.68
587.42	33541.97
587.618	33623.89
587.815	33486.68
588.012	33458.01
588.21	33199.96
588.407	33584.98
588.604	33478.49
588.801	33097.56
588.999	33081.18
589.196	33126.24
589.393	33304.41
589.59	33128.28
589.787	33032.03
589.984	33003.36
590.182	32790.37
590.379	33265.5
590.576	32882.53
590.773	32896.86
590.97	32477.03
591.167	32708.45
591.364	32530.28
591.561	32710.5
591.758	32372.58
591.955	32397.16
592.152	32579.43
592.349	32274.28
592.546	32440.17
592.743	32104.3
592.94	32290.66
593.137	32249.71
593.334	31872.88
593.531	31682.42
593.727	32018.28
593.924	31770.48
594.121	31917.93
594.318	31850.35
594.515	31207.29
594.712	32128.88
594.908	31295.35
595.105	31807.34
595.302	31420.28
595.499	31772.53
595.696	31324.02
595.892	31567.73
596.089	31610.74
596.286	31713.14
596.482	31682.42
596.679	31235.96
596.876	31324.02
597.072	31293.3
597.269	31348.6
597.466	31151.99
597.662	31000.44
597.859	31293.3
598.055	31113.08
598.252	31154.04
598.448	30988.16
598.645	31235.96
598.841	30850.94
599.038	30961.53
599.234	31176.57
599.431	30402.44
599.627	30574.47
599.824	30910.33
600.02	30683.01
600.217	31002.49
600.413	30607.23
600.609	30771.07
600.806	30470.02
601.002	30998.4
601.198	30926.72
601.395	30496.64
601.591	30381.96
601.787	30566.27
601.984	30779.26
602.18	30855.04
602.376	30451.59
602.572	30293.9
602.769	30545.8
602.965	30230.41
603.161	30240.65
603.357	30377.86
603.553	30222.22
603.75	30128.01
603.946	30289.8
604.142	30277.51
604.338	30023.56
604.534	30406.53
604.73	29458.32
604.926	29882.25
605.122	30578.56
605.318	30082.95
605.514	30177.16
605.71	29816.72
605.906	30181.26
606.102	30001.04
606.298	30197.64
606.494	29955.98
606.69	30068.62
606.886	30097.29
607.082	29646.74
607.278	30162.83
607.474	29929.36
607.67	29943.69
607.866	29697.94
608.062	30588.8
608.257	29855.63
608.453	29968.27
608.649	30283.66
608.845	29822.86
609.041	30162.83
609.236	30160.78
609.432	30136.2
609.628	30408.58
609.824	30338.95
610.019	29826.96
610.215	30191.5
610.411	30189.45
610.606	30035.85
610.802	30275.46
610.998	30578.56
611.193	30435.2
611.389	29910.92
611.584	30152.59
611.78	30011.28
611.976	30246.79
612.171	30777.22
612.367	30265.22
612.562	30504.84
612.758	30168.97
612.953	30128.01
613.149	30678.91
613.344	29994.89
613.539	30574.47
613.735	30486.4
613.93	30625.67
614.126	30424.97
614.321	30754.69
614.517	30343.05
614.712	30666.63
614.907	30500.74
615.103	31008.64
615.298	30504.84
615.493	31035.26
615.688	30549.89
615.884	31598.45
616.079	30715.78
616.274	31020.92
616.47	30752.64
616.665	30926.72
616.86	30797.7
617.055	30713.73
617.25	30875.52
617.445	31233.91
617.641	30533.51
617.836	31117.18
618.031	30848.89
618.226	31229.82
618.421	30775.17
618.616	31309.69
618.811	30760.83
619.006	31213.43
619.201	30271.37
619.396	31070.08
619.591	30402.44
619.786	30611.33
619.981	30453.64
620.176	31057.79
620.371	30439.3
620.566	30646.15
620.761	30441.35
620.956	30709.63
621.151	30177.16
621.346	30572.42
621.541	30068.62
621.735	30240.65
621.93	30027.66
622.125	30398.34
622.32	29845.39
622.515	29726.61
622.709	29869.97
622.904	30017.42
623.099	29552.53
623.294	29833.1
623.488	29443.99
623.683	29575.06
623.878	29214.62
624.072	29546.39
624.267	29147.03
624.462	29007.77
624.656	28919.71
624.851	28872.6
625.046	28837.79
625.24	29155.22
625.435	28569.51
625.629	28610.46
625.824	28792.73
626.018	28477.35
626.213	28305.32
626.407	28612.51
626.602	27957.16
626.796	28225.45
626.991	27926.44
627.185	28102.57
627.38	27674.54
627.574	27574.19
627.768	27647.92
627.963	27879.34
628.157	27344.82
628.352	27658.16
628.546	26920.89
628.74	27539.38
628.935	26892.22
629.129	27185.08
629.323	26884.03
629.517	26912.7
629.712	26712
629.906	26843.07
630.1	26484.67
630.294	26558.4
630.489	26533.82
630.683	26453.95
630.877	26058.7
631.071	26128.33
631.265	26271.68
631.459	26025.93
631.653	25788.36
631.848	25612.24
632.042	25796.56
632.236	25888.71
632.43	25659.34
632.624	25888.71
632.818	25290.71
633.012	25079.77
633.206	25546.7
633.4	25253.84
633.594	24748
633.788	24915.93
633.982	25069.53
634.176	24836.06
634.369	24979.42
634.563	24547.29
634.757	24590.3
634.951	24639.45
635.145	24631.26
635.339	24492
635.533	24211.43
635.726	24268.77
635.92	23654.38
636.114	23926.76
636.308	23902.18
636.501	23742.44
636.695	23662.57
636.889	23734.25
637.083	23353.33
637.276	23119.86
637.47	23261.17
637.664	23064.57
637.857	23119.86
638.051	23291.89
638.244	22820.86
638.438	23058.42
638.632	22700.03
638.825	22665.21
639.019	22628.35
639.212	22362.11
639.406	22403.07
639.599	22181.89
639.793	22392.83
639.986	21706.76
640.18	22220.8
640.373	22036.49
640.567	21567.5
640.76	21680.14
640.954	21565.45
641.147	21387.28
641.34	21633.04
641.534	21372.94
641.727	21028.88
641.92	21321.74
642.114	20946.97
642.307	20996.12
642.5	20869.14
642.694	20568.09
642.887	20426.78
643.08	20938.77
643.273	20224.03
643.467	20361.25
643.66	20375.58
643.853	20383.77
644.046	19757.1
644.239	20273.18
644.432	19900.45
644.626	19888.17
644.819	19599.4
645.012	19556.39
645.205	19482.67
645.398	19472.43
645.591	19304.49
645.784	19154.99
645.977	19253.3
646.17	18886.71
646.363	18616.38
646.556	18645.05
646.749	18640.95
646.942	18915.38
647.135	18262.08
647.328	18595.9
647.521	18522.17
647.714	18030.66
647.907	18104.39
648.099	18131.01
648.292	17979.46
648.485	17893.44
648.678	17340.49
648.871	17469.51
649.064	17438.8
649.256	17709.13
649.449	17283.15
649.642	16947.28
649.835	17172.56
650.027	16844.88
650.22	16947.28
650.413	16887.89
650.605	16857.17
650.798	16715.86
650.991	16316.51
651.183	16498.78
651.376	16429.15
651.568	16568.41
651.761	16205.92
651.954	16447.58
652.146	15966.31
652.339	16103.52
652.531	15980.64
652.724	15560.81
652.916	15612.01
653.109	15618.15
653.301	15624.29
653.494	15612.01
653.686	15040.62
653.879	15339.63
654.071	15226.99
654.263	15100.01
654.456	14997.62
654.648	14942.32
654.84	14655.61
655.033	14561.4
655.225	14579.83
655.417	14555.26
655.61	14600.31
655.802	14618.74
655.994	14243.96
656.186	14360.7
656.379	14016.64
656.571	13889.67
656.763	13822.08
656.955	13830.27
657.148	13809.79
657.34	13828.23
657.532	13301.9
657.724	13424.78
657.916	13467.78
658.108	13324.43
658.3	13080.72
658.492	13170.83
658.684	12841.11
658.876	12748.95
659.068	12910.74
659.26	12417.18
659.452	12689.56
659.644	12748.95
659.836	12408.98
660.028	12425.37
660.22	12163.23
660.412	12245.15
660.604	12056.73
660.796	12017.82
660.988	12093.6
661.18	11866.27
661.372	11651.24
661.563	11858.08
661.755	11604.13
661.947	11841.7
662.139	11438.25
662.331	11380.9
662.522	11346.09
662.714	11126.96
662.906	11075.76
663.097	11192.49
663.289	10959.02
663.481	10692.79
663.673	10952.88
663.864	10725.55
664.056	10557.62
664.247	10526.9
664.439	10539.19
664.631	10508.47
664.822	10504.37
665.014	10424.5
665.205	10442.93
665.397	10002.62
665.588	10270.9
665.78	10078.4
665.971	10045.63
666.163	9873.6
666.354	9742.53
666.546	9662.66
666.737	9543.88
666.929	9660.61
667.12	9644.23
667.311	9556.16
667.503	9533.64
667.694	9500.87
667.885	9392.33
668.077	9298.12
668.268	9214.15
668.459	9222.34
668.651	9334.98
668.842	9040.08
669.033	8919.25
669.224	9070.79
669.416	9029.84
669.607	8900.81
669.798	8829.13
669.989	8687.82
670.18	8892.62
670.371	8663.25
670.563	8542.42
670.754	8822.99
670.945	8560.85
671.136	8526.04
671.327	8429.78
671.518	8532.18
671.709	8435.92
671.9	8454.36
672.091	8380.63
672.282	8284.37
672.473	8239.32
672.664	8247.51
672.855	8079.58
673.046	8061.15
673.237	8235.22
673.428	8046.81
673.619	7905.5
673.809	7848.16
674	7897.31
674.191	7952.6
674.382	7903.45
674.573	7858.4
674.764	7756
674.954	7876.83
675.145	7643.36
675.336	7610.59
675.527	7397.6
675.717	7788.77
675.908	7475.43
676.099	7352.55
676.289	7430.37
676.48	7452.9
676.671	7405.8
676.861	7530.72
677.052	7241.96
677.243	7237.86
677.433	7262.44
677.624	7454.95
677.814	7305.45
678.005	7241.96
678.195	7172.33
678.386	7416.04
678.576	7069.93
678.767	7327.97
678.957	7192.81
679.148	7260.39
679.338	7026.92
679.529	6945
679.719	7092.46
679.909	7139.56
680.1	6971.63
680.29	7002.35
680.481	6916.33
680.671	7086.31
680.861	6740.21
681.052	6971.63
681.242	6877.42
681.432	7000.3
681.622	6746.35
681.813	6729.97
682.003	7002.35
682.193	6521.07
682.383	6670.58
682.573	6762.73
682.764	6537.46
682.954	6779.12
683.144	6600.94
683.334	6732.01
683.524	6646
683.714	6594.8
683.904	6686.96
684.094	6611.18
684.284	6521.07
684.474	6615.28
684.664	6670.58
684.854	6547.7
685.044	6609.14
685.234	6568.18
685.424	6564.08
685.614	6279.41
685.804	6449.39
685.994	6453.49
686.184	6471.92
686.374	6494.45
686.564	6314.23
686.753	6512.88
686.943	6347
687.133	6447.35
687.323	6480.11
687.513	6435.06
687.702	6408.44
687.892	6428.92
688.082	6371.57
688.272	6363.38
688.461	6355.19
688.651	6519.03
688.841	6256.89
689.03	6205.69
689.22	6168.82
689.41	6197.49
689.599	6240.5
689.789	6328.56
689.979	6285.56
690.168	6103.29
690.358	6303.99
690.547	6377.72
690.737	6207.73
690.926	6269.17
691.116	5970.17
691.305	6303.99
691.495	6029.56
691.684	6027.51
691.874	6074.62
692.063	6125.82
692.252	6052.09
692.442	6201.59
692.631	6125.82
692.82	5968.12
693.01	5927.16
693.199	6162.68
693.388	5898.49
693.578	6086.9
693.767	6031.61
693.956	5826.81
694.146	5912.83
694.335	6002.94
694.524	5929.21
694.713	6050.04
694.902	5966.07
695.092	5796.09
695.281	5927.16
695.47	5865.72
695.659	5810.43
695.848	5861.63
696.037	5855.48
696.226	6078.71
696.415	5738.75
696.604	5966.07
696.793	5804.28
696.982	5814.52
697.171	5806.33
697.36	5816.57
697.549	5955.83
697.738	5787.9
697.927	5839.1
698.116	5697.79
698.305	6027.51
698.494	5693.69
698.683	5759.23
698.872	5830.91
699.061	5691.65
699.25	5677.31
699.438	5812.48
699.627	5761.28
699.816	5830.91
700.005	5800.19
700.193	5701.89
700.382	5654.78
700.571	5687.55
700.76	5933.31
700.948	5595.39
701.137	5769.47
701.326	5617.92
701.514	5806.33
701.703	5540.1
701.892	5579.01
702.08	5638.4
702.269	5607.68
702.457	5538.05
702.646	5650.69
702.834	5638.4
703.023	5531.9
703.212	5628.16
703.4	5628.16
703.589	5423.36
703.777	5527.81
703.965	5540.1
704.154	5503.23
704.342	5433.6
704.531	5333.25
704.719	5421.31
704.907	5630.21
705.096	5497.09
705.284	5372.16
705.472	5622.02
705.661	5370.12
705.849	5619.97
706.037	5353.73
706.226	5464.32
706.414	5398.79
706.602	5370.12
706.79	5374.21
706.979	5251.33
707.167	5335.3
707.355	5191.94
707.543	5454.08
707.731	5267.72
707.919	5146.89
708.107	5271.81
708.296	5286.15
708.484	5126.41
708.672	5259.53
708.86	5185.8
709.048	5157.13
709.236	5198.09
709.424	5220.61
709.612	5232.9
709.8	5204.23
709.988	5148.93
710.176	5345.54
710.364	5132.55
710.551	5226.76
710.739	5073.16
710.927	4927.75
711.115	5071.11
711.303	5138.69
711.491	5083.4
711.679	4942.09
711.866	4854.03
712.054	5044.49
712.242	4933.9
712.43	4995.34
712.617	4890.89
712.805	4888.84
712.993	5024.01
713.181	4837.64
713.368	4868.36
713.556	4847.88
713.744	4831.5
713.931	4983.05
714.119	4823.31
714.306	4833.55
714.494	4825.36
714.682	4829.45
714.869	4978.95
715.057	4872.46
715.244	4675.85
715.432	4692.24
715.619	4729.1
715.807	4772.11
715.994	4753.68
716.182	4778.25
716.369	4798.73
716.556	4696.33
716.744	4643.09
716.931	4548.88
717.119	4682
717.306	4692.24
717.493	4598.03
717.681	4671.76
717.868	4661.52
718.055	4665.61
718.242	4548.88
718.43	4643.09
718.617	4419.86
718.804	4534.54
718.991	4495.63
719.179	4610.32
719.366	4430.1
719.553	4460.82
719.74	4442.39
719.927	4452.63
720.114	4323.6
720.301	4313.36
720.488	4266.26
720.676	4399.38
720.863	4460.82
721.05	4522.26
721.237	4409.62
721.424	4337.94
721.611	4456.72
721.798	4356.37
721.985	4049.18
722.172	4311.32
722.358	4294.93
722.545	4299.03
722.732	4344.08
722.919	4215.06
723.106	4276.5
723.293	4133.14
723.48	4139.29
723.667	4188.44
723.853	4036.89
724.04	4147.48
724.227	4081.94
724.414	4163.86
724.6	4106.52
724.787	3975.45
724.974	4305.17
725.161	4122.9
725.347	3987.74
725.534	4000.02
725.72	4061.46
725.907	4036.89
726.094	3932.44
726.28	3832.09
726.467	3940.63
726.653	3815.71
726.84	4036.89
727.027	4129.05
727.213	3905.82
727.4	3957.02
727.586	4000.02
727.773	3864.86
727.959	3926.3
728.145	3944.73
728.332	3868.95
728.518	3762.46
728.705	3719.45
728.891	3889.43
729.077	3729.69
729.264	3606.81
729.45	3774.75
729.636	3868.95
729.823	3645.73
730.009	3764.51
730.195	3701.02
730.382	3727.64
730.568	3739.93
730.754	3602.72
730.94	3770.65
731.126	3680.54
731.313	3701.02
731.499	3580.19
731.685	3733.79
731.871	3635.49
732.057	3490.08
732.243	3623.2
732.429	3586.33
732.615	3598.62
732.801	3658.01
732.987	3586.33
733.173	3467.55
733.359	3479.84
733.545	3387.68
733.731	3516.7
733.917	3424.55
734.103	3553.57
734.289	3539.23
734.475	3375.39
734.661	3549.47
734.847	3426.59
735.033	3434.78
735.219	3434.78
735.404	3350.82
735.59	3324.19
735.776	3297.57
735.962	3432.74
736.148	3459.36
736.333	3334.43
736.519	3381.54
736.705	3330.34
736.89	3217.7
737.076	3340.58
737.262	3209.51
737.447	3242.28
737.633	3264.8
737.819	3385.63
738.004	3248.42
738.19	3207.46
738.375	3217.7
738.561	3201.32
738.747	3123.49
738.932	3037.48
739.118	3121.45
739.303	3248.42
739.489	3162.41
739.674	2984.23
739.859	2990.38
740.045	3008.81
740.23	2986.28
740.416	2945.32
740.601	3064.1
740.786	3047.72
740.972	3035.43
741.157	2947.37
741.342	2875.69
741.528	2945.32
741.713	2887.98
741.898	2849.07
742.084	2924.84
742.269	2933.03
742.454	2836.78
742.639	2814.25
742.824	2713.9
743.01	2900.27
743.195	2820.39
743.38	2722.09
743.565	2842.92
743.75	2750.76
743.935	2709.8
744.12	2826.54
744.305	2746.67
744.49	2744.62
744.675	2605.36
744.86	2713.9
745.045	2603.31
745.23	2576.69
745.415	2543.92
745.6	2742.57
745.785	2486.58
745.97	2763.05
746.155	2607.41
746.34	2697.52
746.525	2568.49
746.71	2582.83
746.895	2513.2
747.079	2443.57
747.264	2509.1
747.449	2523.44
747.634	2521.39
747.819	2449.71
748.003	2513.2
748.188	2345.27
748.373	2462
748.557	2347.31
748.742	2269.49
748.927	2351.41
749.111	2365.75
749.296	2289.97
749.481	2240.82
749.665	2287.92
749.85	2175.28
750.034	2373.94
750.219	2158.9
750.404	2310.45
750.588	2210.1
750.773	2169.14
750.957	2234.68
751.141	2111.8
751.326	2091.32
751.51	2128.18
751.695	2115.89
751.879	2097.46
752.064	2070.84
752.248	2144.56
752.432	2132.28
752.617	2009.4
752.801	2115.89
752.985	2085.17
753.17	2134.32
753.354	2052.41
753.538	1958.2
753.722	2085.17
753.907	1907
754.091	1968.44
754.275	1954.1
754.459	1968.44
754.643	1900.86
754.828	1980.73
755.012	1857.85
755.196	1872.18
755.38	1900.86
755.564	1835.32
755.748	1802.55
755.932	1851.71
756.116	1917.24
756.3	1855.8
756.484	1616.19
756.668	1798.46
756.852	1704.25
757.036	1743.16
757.22	1792.31
757.404	1777.98
757.588	1734.97
757.772	1743.16
757.956	1765.69
758.14	1853.75
758.323	1673.53
758.507	1786.17
758.691	1628.48
758.875	1657.15
759.059	1767.74
759.242	1544.51
759.426	1612.09
759.61	1610.04
759.794	1603.9
759.977	1573.18
760.161	1753.4
760.345	1538.37
760.528	1640.76
760.712	1683.77
760.895	1575.23
761.079	1524.03
761.263	1483.07
761.446	1511.74
761.63	1509.69
761.813	1550.65
761.997	1425.73
762.18	1562.94
762.364	1575.23
762.547	1405.25
762.731	1517.89
762.914	1425.73
763.098	1466.69
763.281	1356.1
763.464	1452.35
763.648	1487.17
763.831	1425.73
764.015	1454.4
764.198	1423.68
764.381	1362.24
764.564	1440.06
764.748	1329.47
764.931	1364.29
765.114	1466.69
765.297	1388.86
765.481	1325.38
765.664	1450.3
765.847	1397.06
766.03	1376.58
766.213	1302.85
766.397	1411.39
766.58	1251.65
766.763	1370.43
766.946	1249.6
767.129	1319.23
767.312	1313.09
767.495	1319.23
767.678	1212.74
767.861	1308.99
768.044	1298.75
768.227	1333.57
768.41	1249.6
768.593	1253.7
768.776	1319.23
768.959	1239.36
769.142	1298.75
769.324	1294.66
769.507	1216.83
769.69	1196.36
769.873	1214.79
770.056	1337.66
770.239	1188.16
770.421	1286.47
770.604	1263.94
770.787	1331.52
770.97	1263.94
771.152	1220.93
771.335	1243.46
771.518	1114.44
771.7	1302.85
771.883	1259.84
772.066	1071.43
772.248	1120.58
772.431	1255.75
772.613	1136.96
772.796	1184.07
772.978	1249.6
773.161	1210.69
773.343	1198.4
773.526	1235.27
773.708	1155.4
773.891	1042.76
774.073	1110.34
774.256	1159.49
774.438	1155.4
774.621	1165.64
774.803	1118.53
774.985	1108.29
775.168	1165.64
775.35	1036.61
775.532	1100.1
775.715	1100.1
775.897	1055.05
776.079	1151.3
776.261	1069.38
776.444	1057.09
776.626	977.22
776.808	1081.67
776.99	1057.09
777.173	989.51
777.355	971.08
777.537	995.65
777.719	923.98
777.901	1012.04
778.083	975.17
778.265	911.69
778.447	936.26
778.629	876.87
778.811	960.84
778.993	944.45
779.175	989.51
779.357	852.3
779.539	868.68
779.721	921.93
779.903	909.64
780.085	905.54
780.267	897.35
780.449	919.88
780.631	878.92
780.812	1026.37
780.994	880.97
781.176	840.01
781.358	809.29
781.54	854.34
781.721	801.1
781.903	837.96
782.085	848.2
782.267	893.26
782.448	784.71
782.63	833.86
782.812	885.06
782.993	782.67
783.175	801.1
783.357	702.79
783.538	831.82
783.72	776.52
783.901	667.98
784.083	807.24
784.264	766.28
784.446	706.89
784.627	643.4
784.809	667.98
784.99	653.64
785.172	645.45
785.353	717.13
785.535	692.55
785.716	680.27
785.897	700.75
786.079	655.69
786.26	678.22
786.441	674.12
786.623	649.55
786.804	696.65
786.985	659.79
787.167	717.13
787.348	631.12
787.529	618.83
787.71	772.43
787.891	659.79
788.073	627.02
788.254	620.88
788.435	680.27
788.616	637.26
788.797	508.24
788.978	614.73
789.159	665.93
789.34	670.03
789.522	608.59
789.703	532.81
789.884	692.55
790.065	575.82
790.246	581.96
790.427	551.24
790.607	643.4
790.788	629.07
790.969	553.29
791.15	504.14
791.331	450.89
791.512	532.81
791.693	469.33
791.874	559.44
792.054	592.2
792.235	563.53
792.416	436.56
792.597	432.46
792.778	473.42
792.958	541.01
793.139	512.33
793.32	473.42
793.5	422.22
793.681	528.72
793.862	416.08
794.042	526.67
794.223	407.89
794.404	430.41
794.584	399.7
794.765	428.37
794.945	407.89
795.126	467.28
795.306	483.66
795.487	407.89
795.667	422.22
795.848	457.04
796.028	414.03
796.209	471.37
796.389	477.52
796.57	407.89
796.75	485.71
796.93	477.52
797.111	362.83
797.291	389.46
797.471	479.57
797.652	405.84
797.832	381.26
798.012	434.51
798.192	338.26
798.373	295.25
798.553	387.41
798.733	401.74
798.913	282.96
799.093	397.65
799.274	432.46
799.454	317.78
799.634	430.41
799.814	381.26
799.994	391.5
800.174	407.89
800.354	373.07
800.534	278.87
800.714	465.23
800.894	303.44
801.074	295.25
801.254	325.97
801.434	401.74
801.614	385.36
801.794	364.88
801.974	1216.83
802.154	311.63
802.334	407.89
802.514	239.95
802.693	350.54
802.873	303.44
803.053	381.26
803.233	416.08
803.413	317.78
803.592	350.54
803.772	313.68
803.952	319.82
804.131	282.96
804.311	295.25
804.491	407.89
804.67	313.68
804.85	336.21
805.03	389.46
805.209	295.25
805.389	268.63
805.568	317.78
805.748	196.95
805.928	270.67
806.107	276.82
806.287	311.63
806.466	260.43
806.646	350.54
806.825	285.01
807.004	276.82
807.184	233.81
807.363	262.48
807.543	282.96
807.722	287.06
807.901	348.5
808.081	285.01
808.26	170.32
808.439	276.82
808.619	262.48
808.798	244.05
808.977	207.19
809.156	274.77
809.336	291.15
809.515	346.45
809.694	254.29
809.873	170.32
810.052	215.38
810.231	354.64
810.411	192.85
810.59	307.54
810.769	239.95
810.948	301.39
811.127	203.09
811.306	145.75
811.485	282.96
811.664	260.43
811.843	211.28
812.022	201.04
812.201	166.23
812.38	182.61
812.559	256.34
812.737	174.42
812.916	141.65
813.095	186.71
813.274	252.24
813.453	260.43
813.632	147.8
813.811	295.25
813.989	178.51
814.168	221.52
814.347	223.57
814.526	186.71
814.704	297.3
814.883	268.63
815.062	137.56
815.24	252.24
815.419	137.56
815.598	215.38
815.776	188.75
815.955	125.27
816.133	139.6
816.312	172.37
816.49	125.27
816.669	129.36
816.847	137.56
817.026	237.91
817.204	125.27
817.383	160.08
817.561	158.03
817.74	123.22
817.918	258.39
818.097	242
818.275	76.12
818.453	170.32
818.632	125.27
818.81	178.51
818.988	112.98
819.167	164.18
819.345	207.19
819.523	168.27
819.701	174.42
819.879	129.36
820.058	194.9
820.236	194.9
820.414	166.23
820.592	162.13
820.77	100.69
820.948	190.8
821.127	112.98
821.305	123.22
821.483	117.08
821.661	207.19
821.839	209.23
822.017	211.28
822.195	102.74
822.373	110.93
822.551	141.65
822.729	213.33
822.907	100.69
823.085	135.51
823.262	98.64
823.44	139.6
823.618	92.5
823.796	162.13
823.974	174.42
824.152	106.84
824.329	76.12
824.507	158.03
824.685	129.36
824.863	121.17
825.04	188.75
825.218	141.65
825.396	192.85
825.574	164.18
825.751	155.99
825.929	145.75
826.107	121.17
826.284	207.19
826.462	106.84
826.639	186.71
826.817	39.25
826.994	90.45
827.172	88.4
827.349	186.71
827.527	155.99
827.704	137.56
827.882	164.18
828.059	94.55
828.237	84.31
828.414	121.17
828.591	14.68
828.769	115.03
828.946	119.12
829.124	151.89
829.301	198.99
829.478	110.93
829.655	37.2
829.833	-3.75
830.01	59.73
830.187	76.12
830.364	47.44
830.542	51.54
830.719	147.8
830.896	133.46
831.073	104.79
831.25	164.18
831.427	117.08
831.604	76.12
831.782	121.17
831.959	145.75
832.136	61.78
832.313	117.08
832.49	98.64
832.667	115.03
832.844	51.54
833.021	115.03
833.198	104.79
833.374	182.61
833.551	110.93
833.728	39.25
833.905	106.84
834.082	51.54
834.259	63.83
834.436	174.42
834.612	53.59
834.789	125.27
834.966	84.31
835.143	129.36
835.319	72.02
835.496	129.36
835.673	149.84
835.85	74.07
836.026	98.64
836.203	41.3
836.38	86.36
836.556	49.49
836.733	86.36
836.909	145.75
837.086	2.39
837.262	69.97
837.439	72.02
837.616	98.64
837.792	155.99
837.968	8.53
838.145	29.01
838.321	51.54
838.498	115.03
838.674	106.84
838.851	59.73
839.027	57.68
839.203	106.84
839.38	127.32
839.556	72.02
839.732	106.84
839.909	41.3
840.085	117.08
840.261	31.06
840.437	43.35
840.614	12.63
840.79	96.6
840.966	65.88
841.142	39.25
841.318	47.44
841.494	106.84
841.671	76.12
841.847	14.68
842.023	0.34
842.199	55.64
842.375	72.02
842.551	43.35
842.727	55.64
842.903	129.36
843.079	72.02
843.255	127.32
843.431	41.3
843.607	184.66
843.783	-13.99
843.959	72.02
844.134	10.58
844.31	121.17
844.486	10.58
844.662	33.11
844.838	22.87
845.013	100.69
845.189	135.51
845.365	78.16
845.541	78.16
845.716	88.4
845.892	129.36
846.068	59.73
846.244	-18.09
846.419	96.6
846.595	55.64
846.77	53.59
846.946	84.31
847.122	65.88
847.297	41.3
847.473	151.89
847.648	51.54
847.824	41.3
847.999	20.82
848.175	-44.71
848.35	-26.28
848.526	94.55
848.701	49.49
848.876	74.07
849.052	96.6
849.227	26.96
849.403	20.82
849.578	-16.04
849.753	26.96
849.929	74.07
850.104	-16.04
850.279	94.55
850.454	24.92
850.63	59.73
850.805	16.73
850.98	8.53
851.155	43.35
851.33	86.36
851.505	-30.38
851.681	104.79
851.856	-40.62
852.031	29.01
852.206	74.07
852.381	4.44
852.556	57.68
852.731	117.08
852.906	88.4
853.081	78.16
853.256	147.8
853.431	8.53
853.606	-59.05
853.781	57.68
853.956	-38.57
854.131	24.92
854.305	29.01
854.48	24.92
854.655	-1.71
854.83	6.49
855.005	24.92
855.18	33.11
855.354	-5.8
855.529	55.64
855.704	51.54
855.879	33.11
856.053	-30.38
856.228	69.97
856.403	-3.75
856.577	43.35
856.752	-32.43
856.926	94.55
857.101	45.4
857.276	-24.23
857.45	0.34
857.625	110.93
857.799	76.12
857.974	22.87
858.148	-38.57
858.323	-18.09
858.497	24.92
858.672	39.25
858.846	-24.23
859.02	-54.95
859.195	2.39
859.369	-18.09
859.543	45.4
859.718	16.73
859.892	-16.04
860.066	24.92
860.241	-32.43
860.415	-11.95
860.589	-5.8
860.763	4.44
860.938	-9.9
861.112	61.78
861.286	-54.95
861.46	98.64
861.634	-9.9
861.808	96.6
861.982	2.39
862.157	-44.71
862.331	-50.86
862.505	39.25
862.679	33.11
862.853	51.54
863.027	-26.28
863.201	90.45
863.375	16.73
863.549	2.39
863.722	-69.29
863.896	16.73
864.07	-61.1
864.244	-13.99
864.418	67.92
864.592	96.6
864.766	39.25
864.939	14.68
865.113	2.39
865.287	72.02
865.461	-77.48
865.634	51.54
865.808	-9.9
865.982	61.78
866.156	-28.33
866.329	-1.71
866.503	-9.9
866.676	65.88
866.85	-26.28
867.024	0.34
867.197	55.64
867.371	-61.1
867.544	-24.23
867.718	-1.71
867.891	41.3
868.065	-24.23
868.238	-22.19
868.412	24.92
868.585	45.4
868.759	-128.68
868.932	-46.76
869.105	-5.8
869.279	-42.67
869.452	-63.15
869.625	39.25
869.799	10.58
869.972	-102.06
870.145	39.25
870.319	92.5
870.492	-3.75
870.665	-11.95
870.838	-71.34
871.011	-44.71
871.185	39.25
871.358	-28.33
871.531	-24.23
871.704	-52.91
871.877	33.11
872.05	-16.04
872.223	-16.04
872.396	35.16
872.569	26.96
872.742	-52.91
872.915	33.11
873.088	-83.63
873.261	-16.04
873.434	26.96
873.607	-38.57
873.78	59.73
873.953	-18.09
874.126	-61.1
874.299	6.49
874.471	14.68
874.644	-20.14
874.817	47.44
874.99	127.32
875.163	35.16
875.335	-11.95
875.508	-38.57
875.681	80.21
875.853	-44.71
876.026	-9.9
876.199	-3.75
876.371	-40.62
876.544	2.39
876.717	45.4
876.889	-22.19
877.062	35.16
877.234	41.3
877.407	-79.53
877.579	-40.62
877.752	20.82
877.924	90.45
878.097	41.3
878.269	-32.43
878.442	10.58
878.614	-5.8
878.786	6.49
878.959	-30.38
879.131	37.2
879.303	-87.72
879.476	-40.62
879.648	-7.85
879.82	31.06
879.993	-28.33
880.165	-30.38
880.337	-65.19
880.509	-63.15
880.681	-22.19
880.854	-34.47
881.026	14.68
881.198	96.6
881.37	2.39
881.542	24.92
881.714	-54.95
881.886	0.34
882.058	-9.9
882.23	-16.04
882.402	2.39
882.574	-11.95
882.746	-28.33
882.918	33.11
883.09	-26.28
883.262	24.92
883.434	-32.43
883.606	-122.54
883.778	-11.95
883.95	74.07
884.122	-54.95
884.293	-71.34
884.465	-34.47
884.637	72.02
884.809	-1.71
884.98	-42.67
885.152	26.96
885.324	-11.95
885.496	-18.09
885.667	24.92
885.839	-44.71
886.011	41.3
886.182	-11.95
886.354	88.4
886.525	2.39
886.697	41.3
886.869	-77.48
887.04	-9.9
887.212	88.4
887.383	74.07
887.555	26.96
887.726	-46.76
887.897	-61.1
888.069	-18.09
888.24	-11.95
888.412	-7.85
888.583	-42.67
888.754	-28.33
888.926	-89.77
889.097	-87.72
889.268	-110.25
889.44	20.82
889.611	-61.1
889.782	-22.19
889.953	-28.33
890.125	0.34
890.296	-95.91
890.467	-3.75
890.638	-44.71
890.809	-7.85
890.98	-85.67
891.151	-22.19
891.323	63.83
891.494	57.68
891.665	12.63
891.836	31.06
892.007	47.44
892.178	-44.71
892.349	-22.19
892.52	-61.1
892.691	-32.43
892.862	-11.95
893.032	-54.95
893.203	0.34
893.374	-95.91
893.545	72.02
893.716	-79.53
893.887	16.73
894.057	8.53
894.228	-5.8
894.399	-95.91
894.57	86.36
894.74	35.16
894.911	-3.75
895.082	16.73
895.253	-48.81
895.423	-18.09
895.594	-34.47
895.764	-16.04
895.935	-16.04
896.106	82.26
896.276	0.34
896.447	-36.52
896.617	33.11
896.788	-126.63
896.958	-42.67
897.129	-32.43
897.299	-100.01
897.47	84.31
897.64	112.98
897.81	10.58
897.981	4.44
898.151	-65.19
898.322	43.35
898.492	0.34
898.662	16.73
898.832	-30.38
899.003	-11.95
899.173	-30.38
899.343	-26.28
899.513	-61.1
