Data from USB4F104151__23__12-11-42-148.txt Node

Date: Fri Mar 14 12:11:42 EDT 2025
User: louis
Spectrometer: USB4F10415
Trigger mode: 4
Integration Time (sec): 5.000000E-2
Scans to average: 1
Electric dark correction enabled: true
Nonlinearity correction enabled: false
Boxcar width: 0
XAxis mode: Wavelengths
Number of Pixels in Spectrum: 3648
>>>>>Begin Spectral Data<<<<<
178.204	-231.93
178.424	-231.93
178.644	-231.93
178.864	-203.26
179.084	-172.54
179.304	77.31
179.524	-14.85
179.744	-61.95
179.964	-0.51
180.184	-27.14
180.404	30.21
180.624	-14.85
180.844	-33.28
181.064	-20.99
181.283	30.21
181.503	-23.04
181.723	58.88
181.943	-61.95
182.163	128.51
182.383	3.58
182.602	50.69
182.822	93.69
183.042	38.4
183.262	7.68
183.482	44.54
183.701	-20.99
183.921	15.87
184.141	-43.52
184.361	65.02
184.58	30.21
184.8	69.12
185.02	105.98
185.239	71.17
185.459	60.93
185.679	103.93
185.898	24.06
186.118	95.74
186.338	7.68
186.557	112.13
186.777	-10.75
186.997	-8.7
187.216	-12.8
187.436	95.74
187.655	93.69
187.875	97.79
188.095	52.74
188.314	130.56
188.534	105.98
188.753	54.78
188.973	36.35
189.192	77.31
189.412	60.93
189.631	99.84
189.851	81.41
190.07	56.83
190.29	-43.52
190.509	-43.52
190.729	7.68
190.948	110.08
191.168	202.24
191.387	79.36
191.607	1.54
191.826	30.21
192.045	3.58
192.265	50.69
192.484	95.74
192.704	75.26
192.923	-78.33
193.142	110.08
193.362	44.54
193.581	101.89
193.8	103.93
194.02	83.45
194.239	71.17
194.458	52.74
194.678	69.12
194.897	46.59
195.116	-37.38
195.335	19.97
195.555	38.4
195.774	38.4
195.993	46.59
196.212	-0.51
196.432	67.07
196.651	5.63
196.87	9.73
197.089	189.95
197.308	69.12
197.528	130.56
197.747	22.02
197.966	42.5
198.185	146.94
198.404	30.21
198.623	83.45
198.842	73.21
199.062	93.69
199.281	93.69
199.5	28.16
199.719	69.12
199.938	9.73
200.157	93.69
200.376	81.41
200.595	93.69
200.814	73.21
201.033	46.59
201.252	83.45
201.471	11.78
201.69	95.74
201.909	95.74
202.128	67.07
202.347	32.26
202.566	46.59
202.785	-8.7
203.004	-23.04
203.223	177.66
203.442	34.3
203.661	7.68
203.879	89.6
204.098	95.74
204.317	-45.57
204.536	112.13
204.755	77.31
204.974	50.69
205.193	85.5
205.411	116.22
205.63	-12.8
205.849	120.32
206.068	85.5
206.287	22.02
206.505	52.74
206.724	87.55
206.943	-10.75
207.162	15.87
207.381	67.07
207.599	-0.51
207.818	48.64
208.037	-27.14
208.255	17.92
208.474	87.55
208.693	91.65
208.911	103.93
209.13	48.64
209.349	89.6
209.567	42.5
209.786	144.89
210.005	28.16
210.223	5.63
210.442	28.16
210.661	9.73
210.879	28.16
211.098	138.75
211.316	54.78
211.535	36.35
211.753	17.92
211.972	38.4
212.191	17.92
212.409	56.83
212.628	22.02
212.846	75.26
213.065	65.02
213.283	91.65
213.502	17.92
213.72	-20.99
213.938	44.54
214.157	24.06
214.375	73.21
214.594	5.63
214.812	58.88
215.031	65.02
215.249	-2.56
215.467	48.64
215.686	83.45
215.904	-0.51
216.122	-84.48
216.341	120.32
216.559	30.21
216.778	81.41
216.996	32.26
217.214	-37.38
217.432	28.16
217.651	-23.04
217.869	-47.62
218.087	-23.04
218.306	58.88
218.524	120.32
218.742	-53.76
218.96	87.55
219.179	48.64
219.397	1.54
219.615	194.05
219.833	67.07
220.051	36.35
220.27	97.79
220.488	112.13
220.706	73.21
220.924	65.02
221.142	40.45
221.36	71.17
221.578	48.64
221.796	50.69
222.015	-35.33
222.233	56.83
222.451	52.74
222.669	5.63
222.887	30.21
223.105	40.45
223.323	32.26
223.541	-64
223.759	67.07
223.977	89.6
224.195	69.12
224.413	73.21
224.631	73.21
224.849	-10.75
225.067	132.61
225.285	24.06
225.503	-2.56
225.721	-41.47
225.939	71.17
226.157	46.59
226.375	163.33
226.592	105.98
226.81	-18.94
227.028	95.74
227.246	126.46
227.464	93.69
227.682	75.26
227.9	48.64
228.117	103.93
228.335	38.4
228.553	48.64
228.771	13.82
228.989	87.55
229.206	60.93
229.424	-4.61
229.642	81.41
229.86	58.88
230.077	65.02
230.295	13.82
230.513	54.78
230.731	58.88
230.948	58.88
231.166	136.7
231.384	-14.85
231.601	36.35
231.819	81.41
232.037	32.26
232.254	81.41
232.472	48.64
232.689	7.68
232.907	93.69
233.125	5.63
233.342	30.21
233.56	5.63
233.777	50.69
233.995	77.31
234.213	97.79
234.43	65.02
234.648	128.51
234.865	48.64
235.083	26.11
235.3	46.59
235.518	17.92
235.735	79.36
235.953	46.59
236.17	-12.8
236.388	75.26
236.605	28.16
236.822	62.98
237.04	44.54
237.257	36.35
237.475	-33.28
237.692	32.26
237.909	38.4
238.127	38.4
238.344	46.59
238.562	85.5
238.779	48.64
238.996	-4.61
239.214	62.98
239.431	89.6
239.648	46.59
239.865	99.84
240.083	101.89
240.3	-2.56
240.517	-49.66
240.735	-6.66
240.952	24.06
241.169	101.89
241.386	-2.56
241.603	85.5
241.821	-4.61
242.038	112.13
242.255	69.12
242.472	28.16
242.689	79.36
242.907	38.4
243.124	3.58
243.341	32.26
243.558	40.45
243.775	17.92
243.992	30.21
244.209	56.83
244.426	44.54
244.643	56.83
244.86	54.78
245.078	67.07
245.295	60.93
245.512	54.78
245.729	-6.66
245.946	130.56
246.163	112.13
246.38	46.59
246.597	-39.42
246.814	58.88
247.031	40.45
247.248	138.75
247.464	110.08
247.681	-14.85
247.898	48.64
248.115	85.5
248.332	-49.66
248.549	85.5
248.766	118.27
248.983	130.56
249.2	-31.23
249.417	36.35
249.633	58.88
249.85	42.5
250.067	40.45
250.284	17.92
250.501	103.93
250.717	124.41
250.934	3.58
251.151	-31.23
251.368	7.68
251.585	91.65
251.801	101.89
252.018	50.69
252.235	-2.56
252.451	52.74
252.668	-47.62
252.885	56.83
253.102	60.93
253.318	19.97
253.535	26.11
253.752	7.68
253.968	30.21
254.185	65.02
254.401	11.78
254.618	46.59
254.835	15.87
255.051	165.37
255.268	40.45
255.484	40.45
255.701	28.16
255.917	140.8
256.134	44.54
256.351	81.41
256.567	7.68
256.784	-8.7
257	22.02
257.217	-0.51
257.433	114.17
257.65	11.78
257.866	105.98
258.082	-29.18
258.299	15.87
258.515	46.59
258.732	28.16
258.948	-61.95
259.165	-8.7
259.381	1.54
259.597	44.54
259.814	28.16
260.03	-23.04
260.246	26.11
260.463	44.54
260.679	108.03
260.895	44.54
261.112	73.21
261.328	116.22
261.544	-10.75
261.761	79.36
261.977	11.78
262.193	-61.95
262.409	136.7
262.626	71.17
262.842	81.41
263.058	7.68
263.274	77.31
263.49	5.63
263.707	67.07
263.923	24.06
264.139	-29.18
264.355	30.21
264.571	167.42
264.787	126.46
265.004	62.98
265.22	36.35
265.436	32.26
265.652	40.45
265.868	26.11
266.084	7.68
266.3	95.74
266.516	-20.99
266.732	87.55
266.948	52.74
267.164	26.11
267.38	71.17
267.596	71.17
267.812	42.5
268.028	28.16
268.244	44.54
268.46	38.4
268.676	67.07
268.892	105.98
269.108	44.54
269.324	15.87
269.54	17.92
269.756	69.12
269.972	-37.38
270.188	11.78
270.403	5.63
270.619	13.82
270.835	97.79
271.051	-53.76
271.267	-12.8
271.483	7.68
271.698	48.64
271.914	56.83
272.13	38.4
272.346	13.82
272.562	38.4
272.777	114.17
272.993	38.4
273.209	40.45
273.425	17.92
273.64	-33.28
273.856	118.27
274.072	-23.04
274.287	32.26
274.503	114.17
274.719	124.41
274.934	48.64
275.15	-39.42
275.366	56.83
275.581	-33.28
275.797	62.98
276.012	15.87
276.228	24.06
276.444	95.74
276.659	108.03
276.875	42.5
277.09	40.45
277.306	19.97
277.521	67.07
277.737	77.31
277.952	83.45
278.168	60.93
278.383	13.82
278.599	91.65
278.814	46.59
279.03	24.06
279.245	48.64
279.461	32.26
279.676	83.45
279.892	69.12
280.107	26.11
280.322	15.87
280.538	89.6
280.753	-27.14
280.969	-10.75
281.184	11.78
281.399	87.55
281.615	46.59
281.83	75.26
282.045	1.54
282.26	38.4
282.476	93.69
282.691	91.65
282.906	44.54
283.122	62.98
283.337	-23.04
283.552	114.17
283.767	46.59
283.983	75.26
284.198	-0.51
284.413	124.41
284.628	-43.52
284.843	40.45
285.058	118.27
285.274	85.5
285.489	-10.75
285.704	-0.51
285.919	5.63
286.134	44.54
286.349	50.69
286.564	56.83
286.779	46.59
286.995	54.78
287.21	28.16
287.425	50.69
287.64	24.06
287.855	-6.66
288.07	32.26
288.285	75.26
288.5	58.88
288.715	77.31
288.93	26.11
289.145	-2.56
289.36	24.06
289.575	-18.94
289.79	38.4
290.004	-6.66
290.219	-37.38
290.434	24.06
290.649	54.78
290.864	-70.14
291.079	46.59
291.294	44.54
291.509	73.21
291.724	-35.33
291.938	9.73
292.153	22.02
292.368	71.17
292.583	58.88
292.798	62.98
293.012	83.45
293.227	30.21
293.442	9.73
293.657	62.98
293.871	87.55
294.086	65.02
294.301	50.69
294.516	22.02
294.73	56.83
294.945	11.78
295.16	32.26
295.374	81.41
295.589	77.31
295.804	15.87
296.018	50.69
296.233	81.41
296.447	42.5
296.662	30.21
296.877	60.93
297.091	108.03
297.306	79.36
297.52	38.4
297.735	108.03
297.949	124.41
298.164	110.08
298.378	75.26
298.593	62.98
298.807	-0.51
299.022	-2.56
299.236	44.54
299.451	50.69
299.665	32.26
299.88	28.16
300.094	42.5
300.309	22.02
300.523	1.54
300.737	40.45
300.952	7.68
301.166	15.87
301.381	44.54
301.595	56.83
301.809	17.92
302.024	28.16
302.238	28.16
302.452	101.89
302.667	-8.7
302.881	85.5
303.095	110.08
303.309	67.07
303.524	-33.28
303.738	50.69
303.952	36.35
304.166	75.26
304.381	-82.43
304.595	75.26
304.809	97.79
305.023	101.89
305.237	44.54
305.452	48.64
305.666	103.93
305.88	130.56
306.094	126.46
306.308	73.21
306.522	91.65
306.736	34.3
306.95	15.87
307.164	15.87
307.379	105.98
307.593	116.22
307.807	65.02
308.021	42.5
308.235	83.45
308.449	-55.81
308.663	93.69
308.877	56.83
309.091	-2.56
309.305	105.98
309.519	-25.09
309.733	95.74
309.947	-20.99
310.161	56.83
310.374	132.61
310.588	120.32
310.802	17.92
311.016	62.98
311.23	132.61
311.444	36.35
311.658	42.5
311.872	116.22
312.085	69.12
312.299	118.27
312.513	110.08
312.727	38.4
312.941	15.87
313.154	48.64
313.368	15.87
313.582	30.21
313.796	38.4
314.009	-10.75
314.223	52.74
314.437	54.78
314.651	101.89
314.864	60.93
315.078	-4.61
315.292	-82.43
315.505	44.54
315.719	44.54
315.933	-29.18
316.146	40.45
316.36	17.92
316.573	73.21
316.787	83.45
317.001	99.84
317.214	-66.05
317.428	26.11
317.641	5.63
317.855	-10.75
318.068	65.02
318.282	91.65
318.495	85.5
318.709	105.98
318.922	46.59
319.136	60.93
319.349	103.93
319.563	42.5
319.776	89.6
319.99	17.92
320.203	144.89
320.417	52.74
320.63	48.64
320.843	169.47
321.057	65.02
321.27	97.79
321.483	-10.75
321.697	11.78
321.91	87.55
322.124	-23.04
322.337	-10.75
322.55	-0.51
322.763	81.41
322.977	24.06
323.19	-4.61
323.403	54.78
323.617	83.45
323.83	87.55
324.043	-47.62
324.256	-18.94
324.469	13.82
324.683	87.55
324.896	-2.56
325.109	-23.04
325.322	-14.85
325.535	17.92
325.748	13.82
325.962	67.07
326.175	101.89
326.388	128.51
326.601	81.41
326.814	48.64
327.027	54.78
327.24	81.41
327.453	-12.8
327.666	52.74
327.879	52.74
328.092	128.51
328.305	-27.14
328.518	46.59
328.731	77.31
328.944	19.97
329.157	85.5
329.37	77.31
329.583	124.41
329.796	30.21
330.009	30.21
330.222	128.51
330.435	5.63
330.648	58.88
330.861	-16.9
331.073	75.26
331.286	-4.61
331.499	26.11
331.712	42.5
331.925	101.89
332.138	71.17
332.35	93.69
332.563	-66.05
332.776	128.51
332.989	-35.33
333.202	103.93
333.414	81.41
333.627	126.46
333.84	24.06
334.053	122.37
334.265	-6.66
334.478	62.98
334.691	34.3
334.903	65.02
335.116	-64
335.329	48.64
335.541	110.08
335.754	101.89
335.966	46.59
336.179	46.59
336.392	40.45
336.604	7.68
336.817	99.84
337.029	71.17
337.242	54.78
337.454	46.59
337.667	26.11
337.88	99.84
338.092	38.4
338.305	77.31
338.517	-18.94
338.729	138.75
338.942	163.33
339.154	-4.61
339.367	11.78
339.579	54.78
339.792	-4.61
340.004	120.32
340.217	5.63
340.429	83.45
340.641	60.93
340.854	-41.47
341.066	28.16
341.278	75.26
341.491	3.58
341.703	52.74
341.915	-23.04
342.128	75.26
342.34	30.21
342.552	9.73
342.764	-18.94
342.977	65.02
343.189	75.26
343.401	13.82
343.613	15.87
343.826	118.27
344.038	7.68
344.25	62.98
344.462	9.73
344.674	5.63
344.886	54.78
345.099	65.02
345.311	11.78
345.523	9.73
345.735	-4.61
345.947	62.98
346.159	77.31
346.371	65.02
346.583	58.88
346.795	153.09
347.007	44.54
347.219	128.51
347.431	38.4
347.643	60.93
347.855	9.73
348.067	151.04
348.279	1.54
348.491	67.07
348.703	9.73
348.915	-59.9
349.127	50.69
349.339	13.82
349.551	-43.52
349.763	91.65
349.975	116.22
350.187	112.13
350.399	60.93
350.61	69.12
350.822	-47.62
351.034	48.64
351.246	46.59
351.458	34.3
351.669	93.69
351.881	144.89
352.093	103.93
352.305	62.98
352.517	110.08
352.728	32.26
352.94	48.64
353.152	153.09
353.363	-31.23
353.575	120.32
353.787	77.31
353.999	54.78
354.21	144.89
354.422	54.78
354.633	-29.18
354.845	19.97
355.057	13.82
355.268	81.41
355.48	79.36
355.692	-8.7
355.903	-27.14
356.115	44.54
356.326	-72.19
356.538	95.74
356.749	95.74
356.961	83.45
357.172	32.26
357.384	48.64
357.595	128.51
357.807	-27.14
358.018	48.64
358.23	36.35
358.441	175.61
358.653	26.11
358.864	85.5
359.075	17.92
359.287	52.74
359.498	75.26
359.709	54.78
359.921	67.07
360.132	105.98
360.344	24.06
360.555	-16.9
360.766	50.69
360.977	-6.66
361.189	138.75
361.4	40.45
361.611	138.75
361.823	93.69
362.034	26.11
362.245	24.06
362.456	26.11
362.667	81.41
362.879	17.92
363.09	46.59
363.301	65.02
363.512	62.98
363.723	38.4
363.935	5.63
364.146	79.36
364.357	85.5
364.568	-0.51
364.779	-33.28
364.99	3.58
365.201	50.69
365.412	101.89
365.623	34.3
365.834	97.79
366.045	46.59
366.256	50.69
366.467	75.26
366.678	44.54
366.889	58.88
367.1	101.89
367.311	58.88
367.522	58.88
367.733	62.98
367.944	42.5
368.155	52.74
368.366	34.3
368.577	32.26
368.788	105.98
368.999	116.22
369.209	19.97
369.42	171.52
369.631	153.09
369.842	26.11
370.053	17.92
370.264	71.17
370.474	-2.56
370.685	11.78
370.896	95.74
371.107	153.09
371.317	103.93
371.528	77.31
371.739	83.45
371.95	85.5
372.16	128.51
372.371	-27.14
372.582	40.45
372.792	103.93
373.003	69.12
373.214	79.36
373.424	73.21
373.635	15.87
373.846	81.41
374.056	40.45
374.267	91.65
374.477	50.69
374.688	75.26
374.898	114.17
375.109	130.56
375.319	148.99
375.53	138.75
375.74	40.45
375.951	73.21
376.161	58.88
376.372	79.36
376.582	5.63
376.793	114.17
377.003	75.26
377.214	50.69
377.424	56.83
377.635	26.11
377.845	22.02
378.055	192
378.266	-0.51
378.476	19.97
378.686	77.31
378.897	75.26
379.107	85.5
379.317	112.13
379.528	-6.66
379.738	-0.51
379.948	38.4
380.158	22.02
380.369	40.45
380.579	71.17
380.789	110.08
380.999	132.61
381.21	110.08
381.42	112.13
381.63	9.73
381.84	163.33
382.05	112.13
382.261	52.74
382.471	132.61
382.681	65.02
382.891	181.76
383.101	87.55
383.311	-2.56
383.521	87.55
383.731	128.51
383.941	105.98
384.151	30.21
384.361	52.74
384.571	87.55
384.781	48.64
384.991	116.22
385.201	130.56
385.411	99.84
385.621	83.45
385.831	134.65
386.041	52.74
386.251	52.74
386.461	67.07
386.671	38.4
386.881	87.55
387.091	40.45
387.301	89.6
387.511	50.69
387.72	108.03
387.93	122.37
388.14	11.78
388.35	42.5
388.56	128.51
388.769	81.41
388.979	87.55
389.189	81.41
389.399	75.26
389.609	93.69
389.818	75.26
390.028	73.21
390.238	71.17
390.447	-31.23
390.657	79.36
390.867	1.54
391.076	71.17
391.286	132.61
391.496	93.69
391.705	77.31
391.915	110.08
392.125	62.98
392.334	-6.66
392.544	99.84
392.753	114.17
392.963	73.21
393.172	44.54
393.382	124.41
393.591	189.95
393.801	71.17
394.01	136.7
394.22	81.41
394.429	112.13
394.639	42.5
394.848	118.27
395.058	105.98
395.267	91.65
395.477	75.26
395.686	65.02
395.895	157.18
396.105	130.56
396.314	116.22
396.524	101.89
396.733	40.45
396.942	83.45
397.152	120.32
397.361	177.66
397.57	103.93
397.78	32.26
397.989	161.28
398.198	206.33
398.407	110.08
398.617	34.3
398.826	58.88
399.035	40.45
399.244	126.46
399.453	79.36
399.663	130.56
399.872	103.93
400.081	132.61
400.29	169.47
400.499	83.45
400.708	151.04
400.917	112.13
401.127	77.31
401.336	155.13
401.545	122.37
401.754	163.33
401.963	146.94
402.172	169.47
402.381	28.16
402.59	89.6
402.799	87.55
403.008	71.17
403.217	151.04
403.426	99.84
403.635	79.36
403.844	128.51
404.053	210.43
404.262	112.13
404.471	214.52
404.68	153.09
404.888	161.28
405.097	101.89
405.306	130.56
405.515	146.94
405.724	159.23
405.933	200.19
406.142	210.43
406.35	130.56
406.559	181.76
406.768	157.18
406.977	218.62
407.185	175.61
407.394	245.24
407.603	212.48
407.812	173.57
408.02	302.59
408.229	228.86
408.438	282.11
408.646	226.81
408.855	265.72
409.064	325.12
409.272	230.91
409.481	323.07
409.69	290.3
409.898	239.1
410.107	310.78
410.315	314.88
410.524	271.87
410.733	314.88
410.941	280.06
411.15	341.5
411.358	361.98
411.567	421.37
411.775	411.13
411.984	321.02
412.192	458.23
412.401	435.71
412.609	493.05
412.818	503.29
413.026	517.62
413.234	527.86
413.443	534.01
413.651	482.81
413.86	579.06
414.068	671.22
414.276	699.89
414.485	593.4
414.693	716.28
414.901	703.99
415.11	663.03
415.318	648.69
415.526	837.11
415.734	828.92
415.943	851.44
416.151	804.34
416.359	785.91
416.567	900.59
416.776	894.45
416.984	1009.14
417.192	998.9
417.4	957.94
417.608	988.66
417.817	916.98
418.025	1076.72
418.233	1240.56
418.441	1111.54
418.649	1215.98
418.857	1265.13
419.065	1302
419.273	1195.5
419.481	1388.01
419.689	1381.87
419.897	1451.5
420.105	1492.46
420.313	1586.66
420.521	1568.23
420.729	1590.76
420.937	1582.57
421.145	1684.97
421.353	1754.6
421.561	1926.63
421.769	1875.43
421.977	1938.91
422.185	2092.51
422.393	2143.71
422.601	2307.55
422.809	2158.05
423.017	2244.06
423.224	2432.47
423.432	2502.11
423.64	2407.9
423.848	2665.94
424.056	2680.28
424.263	2778.58
424.471	2825.68
424.679	2874.84
424.887	2901.46
425.094	3128.78
425.302	3130.83
425.51	3315.15
425.718	3372.49
425.925	3302.86
426.133	3565
426.341	3728.84
426.548	3859.91
426.756	3909.06
426.964	3900.87
427.171	4099.52
427.379	4206.02
427.586	4316.61
427.794	4412.86
428.001	4650.43
428.209	4867.51
428.417	4631.99
428.624	5168.56
428.832	5223.86
429.039	5103.03
429.247	5125.55
429.454	5647.79
429.662	6088.1
429.869	5764.52
430.076	5942.69
430.284	5791.14
430.491	6127.01
430.699	6403.49
430.906	6262.18
431.114	6473.12
431.321	6628.76
431.528	6774.17
431.736	7060.88
431.943	7505.29
432.15	7642.51
432.358	7333.26
432.565	7931.27
432.772	7984.52
432.979	8279.43
433.187	8295.81
433.394	8543.61
433.601	9033.08
433.808	9078.13
434.016	9090.42
434.223	9395.57
434.43	10026.34
434.637	9667.95
434.844	10444.13
435.052	10534.24
435.259	10386.79
435.466	10431.84
435.673	10450.27
435.88	11070.81
436.087	11580.75
436.294	11785.55
436.501	11464.02
436.708	11797.84
436.915	12266.82
437.122	12703.04
437.329	12528.96
437.537	13043
437.743	13083.96
437.95	13251.89
438.157	13847.85
438.364	14198.06
438.571	14173.48
438.778	14529.83
438.985	15697.17
439.192	15113.5
439.399	15365.4
439.606	15023.39
439.813	15914.25
440.02	17011.96
440.227	16598.27
440.433	16635.14
440.64	16891.13
440.847	16964.86
441.054	17437.94
441.261	18517.22
441.467	18287.85
441.674	18746.59
441.881	19244.25
442.088	19322.07
442.294	19047.65
442.501	19416.28
442.708	19797.2
442.914	20733.12
443.121	21884.08
443.328	21028.03
443.534	22658.21
443.741	21812.4
443.948	21445.82
444.154	23475.35
444.361	23026.85
444.568	23076
444.774	23221.41
444.981	23364.76
445.187	24269.97
445.394	24984.71
445.6	24802.44
445.807	27049.06
446.013	26096.75
446.22	26616.94
446.426	27333.73
446.633	27618.39
446.839	28648.52
447.046	27661.4
447.252	29029.45
447.459	29277.25
447.665	29267.01
447.871	30587.95
448.078	31788.06
448.284	29893.69
448.491	30776.36
448.697	31958.04
448.903	32390.16
449.11	32441.36
449.316	32113.69
449.522	32482.32
449.728	33676.29
449.935	33905.66
450.141	33840.12
450.347	34503.67
450.553	33045.51
450.76	33756.16
450.966	35011.56
451.172	34759.66
451.378	35355.62
451.584	34980.84
451.791	35767.26
451.997	35619.81
452.203	36393.94
452.409	36029.4
452.615	35816.41
452.821	34710.51
453.027	34370.55
453.233	35898.33
453.44	34311.16
453.646	34839.53
453.852	34862.06
454.058	35214.31
454.264	34790.38
454.47	35410.92
454.676	34206.71
454.882	35353.57
455.088	32535.57
455.294	33045.51
455.5	33330.18
455.705	33625.09
455.911	32494.61
456.117	31982.62
456.323	31317.03
456.529	29525.05
456.735	30659.63
456.941	30352.43
457.147	29946.94
457.352	28746.83
457.558	28456.01
457.764	28648.52
457.97	28271.7
458.176	27425.89
458.381	27432.03
458.587	25926.77
458.793	26143.86
458.999	24573.07
459.204	26070.13
459.41	25302.14
459.616	23778.45
459.821	23764.12
460.027	24040.59
460.233	23549.08
460.438	22027.44
460.644	22373.55
460.85	21445.82
461.055	20903.11
461.261	21148.86
461.466	19309.79
461.672	18885.86
461.878	20022.48
462.083	18582.76
462.289	18380.01
462.494	18265.32
462.7	17517.81
462.905	17104.12
463.111	17802.48
463.316	17698.03
463.522	17229.05
463.727	17356.02
463.932	17313.02
464.138	16803.07
464.343	16958.72
464.549	16762.11
464.754	17167.61
464.959	16966.91
465.165	16973.05
465.37	16127.24
465.575	15815.95
465.781	16108.81
465.986	16561.41
466.191	15815.95
466.397	15588.63
466.602	14761.25
466.807	15297.81
467.012	15318.29
467.218	15416.6
467.423	15068.44
467.628	15170.84
467.833	15836.43
468.038	15320.34
468.244	14685.47
468.449	14966.04
468.654	14794.01
468.859	14701.86
469.064	14796.06
469.269	13913.39
469.474	14345.51
469.679	14562.59
469.885	13913.39
470.09	14290.21
470.295	14241.06
470.5	13673.78
470.705	13763.89
470.91	13688.11
471.115	13518.13
471.32	13479.22
471.525	13559.09
471.73	13241.65
471.935	13133.11
472.139	12997.95
472.344	12891.45
472.549	12709.18
472.754	12778.81
472.959	12406.08
473.164	12217.67
473.369	12055.88
473.574	12586.3
473.778	12291.4
473.983	12162.37
474.188	12078.41
474.393	11629.9
474.598	11832.65
474.802	11554.13
475.007	11363.67
475.212	11421.01
475.417	10808.67
475.621	10929.5
475.826	10943.83
476.031	10964.31
476.235	10659.17
476.44	10849.63
476.645	10421.6
476.849	10483.04
477.054	10358.11
477.259	10259.81
477.463	10413.41
477.668	9870.7
477.872	10251.62
478.077	10003.82
478.282	9715.05
478.486	9502.06
478.691	9485.68
478.895	9612.65
479.1	9385.33
479.304	9502.06
479.509	9301.36
479.713	9442.67
479.918	9174.39
480.122	9211.25
480.326	8977.78
480.531	9014.65
480.735	9000.31
480.94	8994.17
481.144	9219.44
481.348	8910.2
481.553	9059.7
481.757	8768.89
481.961	8924.54
482.166	8897.91
482.37	9026.93
482.574	8957.3
482.778	8736.12
482.983	8969.59
483.187	8838.52
483.391	8951.16
483.595	8729.98
483.8	8791.42
484.004	8791.42
484.208	9020.79
484.412	8738.17
484.616	8879.48
484.821	8834.43
485.025	8510.85
485.229	8633.72
485.433	8828.28
485.637	8676.73
485.841	8660.35
486.045	8787.32
486.249	8598.91
486.453	8613.24
486.657	8734.07
486.861	8754.55
487.065	8512.89
487.269	8885.62
487.473	8379.78
487.677	8981.88
487.881	8936.82
488.085	8881.53
488.289	8856.95
488.493	8623.48
488.697	8803.71
488.901	8906.1
489.105	8807.8
489.309	9020.79
489.512	8945.02
489.716	8836.47
489.92	8942.97
490.124	8947.06
490.328	8953.21
490.531	8922.49
490.735	8969.59
490.939	8945.02
491.143	9180.53
491.346	8967.54
491.55	9190.77
491.754	9115
491.958	8967.54
492.161	9291.12
492.365	9201.01
492.569	9213.3
492.772	9350.51
492.976	9325.94
493.18	9438.58
493.383	9370.99
493.587	9678.19
493.79	9676.14
493.994	9360.75
494.197	9620.85
494.401	10020.2
494.605	9733.48
494.808	9860.46
495.012	9956.71
495.215	10016.1
495.419	9952.62
495.622	10063.21
495.825	9956.71
496.029	10333.54
496.232	10431.84
496.436	10188.13
496.639	10659.17
496.843	10532.19
497.046	10607.97
497.249	10876.25
497.453	10945.88
497.656	10763.61
497.859	11232.6
498.063	11267.41
498.266	11382.1
498.469	11148.63
498.673	11322.71
498.876	11658.57
499.079	11760.97
499.282	11513.17
499.485	11853.13
499.689	12006.73
499.892	12174.66
500.095	12090.7
500.298	12715.33
500.501	12401.99
500.705	12594.5
500.908	12533.06
501.111	12889.4
501.314	13071.67
501.517	12950.84
501.72	13339.96
501.923	13329.72
502.126	13813.04
502.329	13780.27
502.532	13843.76
502.735	13966.63
502.938	14116.14
503.141	14157.1
503.344	14357.8
503.547	14515.49
503.75	14615.84
503.953	14974.24
504.156	15140.12
504.359	15029.53
504.562	15111.45
504.765	15779.09
504.968	15768.85
505.17	16110.86
505.373	15842.57
505.576	16053.52
505.779	16405.77
505.982	16583.94
506.185	16680.19
506.387	16821.5
506.59	16827.65
506.793	17210.62
506.996	17302.78
507.198	17849.58
507.401	17536.24
507.604	17581.3
507.807	18250.99
508.009	17992.94
508.212	18339.05
508.415	18605.28
508.617	18826.46
508.82	18554.08
509.022	18515.17
509.225	19090.65
509.428	19391.7
509.63	19498.2
509.833	19672.28
510.035	20100.3
510.238	19821.78
510.44	20192.46
510.643	20470.98
510.845	20585.67
511.048	20438.22
511.25	20690.12
511.453	20731.08
511.655	21744.82
511.858	21222.59
512.06	21650.61
512.262	21839.03
512.465	21667
512.667	22025.39
512.87	22281.39
513.072	22422.7
513.274	22971.55
513.477	22914.21
513.679	23067.81
513.881	23323.8
514.084	23549.08
514.286	23491.74
514.488	23454.87
514.69	24372.36
514.893	24245.39
515.095	24339.6
515.297	24706.18
515.499	24777.86
515.701	25111.68
515.904	25255.04
516.106	25341.05
516.308	25685.11
516.51	25681.02
516.712	25920.63
516.914	26303.6
517.116	26248.3
517.318	26272.88
517.52	26563.69
517.722	26549.35
517.925	26690.66
518.127	27632.73
518.329	27260
518.531	27190.37
518.733	27886.68
518.935	28169.3
519.136	28161.11
519.338	28431.44
519.54	28478.54
519.742	28734.54
519.944	28628.04
520.146	29342.78
520.348	29258.82
520.55	29058.12
520.752	29101.12
520.954	29920.31
521.155	29541.44
521.357	30051.38
521.559	30262.32
521.761	30393.39
521.963	30362.67
522.164	30710.83
522.366	30745.64
522.568	31034.41
522.77	30800.94
522.971	31564.83
523.173	31274.02
523.375	31771.68
523.576	31288.35
523.778	31673.37
523.98	31900.7
524.181	32027.67
524.383	32220.18
524.584	32226.32
524.786	32390.16
524.988	32142.36
525.189	32928.78
525.391	32678.93
525.592	32881.67
525.794	32568.34
525.995	32916.49
526.197	32558.1
526.398	32730.12
526.6	33348.61
526.801	33225.73
527.003	33254.4
527.204	33487.87
527.406	33987.58
527.607	33461.25
527.808	33661.95
528.01	33463.3
528.211	33649.66
528.412	34178.04
528.614	34051.06
528.815	34010.11
529.016	34190.33
529.218	33995.77
529.419	33940.47
529.62	34169.85
529.822	33936.38
530.023	34339.83
530.224	33965.05
530.425	34184.18
530.626	33952.76
530.828	33641.47
531.029	34382.84
531.23	34239.48
531.431	34298.87
531.632	34171.89
531.833	34354.16
532.035	34374.64
532.236	34595.82
532.437	34614.26
532.638	33942.52
532.839	34421.75
533.04	34395.12
533.241	33985.53
533.442	34745.33
533.643	34532.34
533.844	33883.13
534.045	34669.55
534.246	34137.08
534.447	34276.34
534.648	33954.81
534.849	34341.88
535.05	34225.14
535.251	34532.34
535.451	34042.87
535.652	34280.44
535.853	34341.88
536.054	34128.89
536.255	34321.4
536.456	34096.12
536.657	34530.29
536.857	34364.4
537.058	33965.05
537.259	34356.21
537.46	34096.12
537.66	34104.31
537.861	34358.26
538.062	34059.26
538.263	33848.32
538.463	34235.38
538.664	33924.09
538.865	34202.61
539.065	34442.23
539.266	33487.87
539.466	34112.5
539.667	33895.42
539.868	34470.9
540.068	33960.95
540.269	34110.46
540.469	34194.42
540.67	33686.53
540.87	33723.39
541.071	33725.44
541.271	34036.73
541.472	33711.1
541.672	33530.88
541.873	33577.98
542.073	33319.94
542.274	34237.43
542.474	33575.94
542.675	33680.38
542.875	33960.95
543.075	33739.77
543.276	33252.36
543.476	33856.51
543.676	33428.48
543.877	33319.94
544.077	33289.22
544.277	34044.92
544.478	33336.32
544.678	34370.55
544.878	33590.27
545.078	33602.56
545.279	33401.86
545.479	33330.18
545.679	33784.83
545.879	33377.28
546.079	33451.01
546.28	33221.64
546.48	33326.08
546.68	33231.88
546.88	33547.26
547.08	33573.89
547.28	33491.97
547.48	33121.29
547.68	33639.42
547.88	33123.33
548.081	33434.63
548.281	33387.52
548.481	33215.49
548.681	33252.36
548.881	33035.27
549.081	33088.52
549.28	33092.62
549.48	33444.87
549.68	33639.42
549.88	33526.78
550.08	32861.19
550.28	33182.73
550.48	33397.76
550.68	33172.49
550.88	33135.62
551.08	33166.34
551.279	33014.79
551.479	33057.8
551.679	33231.88
551.879	32820.24
552.079	33178.63
552.278	32988.17
552.478	32840.71
552.678	33006.6
552.878	33129.48
553.077	32961.55
553.277	32789.52
553.477	33283.08
553.676	32928.78
553.876	33045.51
554.076	32656.4
554.275	32683.02
554.475	32306.2
554.674	33125.38
554.874	32693.26
555.074	32654.35
555.273	32924.68
555.473	32922.63
555.672	32531.47
555.872	33109
556.071	32914.44
556.271	32826.38
556.47	32842.76
556.67	32304.15
556.869	32611.34
557.068	32699.41
557.268	32594.96
557.467	32429.07
557.667	32719.88
557.866	32453.65
558.065	32353.3
558.265	32490.51
558.464	32115.73
558.663	32834.57
558.863	32168.98
559.062	32300.05
559.261	32146.45
559.461	32633.87
559.66	32142.36
559.859	32312.34
560.058	32224.28
560.258	32406.55
560.457	32123.93
560.656	32478.22
560.855	31970.33
561.054	32324.63
561.253	31968.28
561.453	32222.23
561.652	32228.37
561.851	32324.63
562.05	31863.83
562.249	32017.43
562.448	32019.48
562.647	32091.16
562.846	32013.34
563.045	31855.64
563.244	31644.7
563.443	32095.25
563.642	31251.49
563.841	31700
564.04	31861.79
564.239	32275.48
564.438	31439.9
564.637	31867.93
564.836	31837.21
565.035	31583.26
565.234	31620.13
565.432	31622.17
565.631	31663.13
565.83	31618.08
566.029	31509.54
566.228	31220.77
566.427	31480.86
566.625	31112.23
566.824	31169.57
567.023	31331.36
567.222	30817.32
567.42	31484.96
567.619	31400.99
567.818	31237.16
568.016	30966.82
568.215	31599.65
568.414	31028.26
568.612	31626.27
568.811	31274.02
569.01	31255.59
569.208	30598.19
569.407	31466.53
569.605	30702.64
569.804	31118.37
570.002	30542.89
570.201	31022.12
570.4	30684.2
570.598	30827.56
570.797	30377.01
570.995	30815.27
571.193	30536.75
571.392	30778.41
571.59	30465.07
571.789	30612.52
571.987	30440.5
572.186	30340.15
572.384	30090.29
572.582	30252.08
572.781	30268.47
572.979	29840.44
573.177	30204.98
573.376	30475.31
573.574	29854.78
573.772	30239.79
573.971	29832.25
574.169	29666.36
574.367	30049.33
574.565	30061.62
574.763	29602.88
574.962	30102.58
575.16	29529.15
575.358	29854.78
575.556	29637.69
575.754	29895.74
575.952	29492.29
576.151	29709.37
576.349	29682.75
576.547	29113.41
576.745	29555.77
576.943	29557.82
577.141	29172.8
577.339	29393.98
577.537	29391.94
577.735	29023.3
577.933	29051.97
578.131	29310.02
578.329	28914.76
578.527	28963.91
578.725	29152.32
578.923	29330.5
579.121	29004.87
579.319	28843.08
579.516	29056.07
579.714	29125.7
579.912	28951.62
580.11	28288.08
580.308	28617.8
580.506	28746.83
580.704	28038.23
580.901	28296.27
581.099	28361.81
581.297	28263.5
581.495	28333.14
581.692	28611.66
581.89	27851.86
582.088	28167.25
582.285	27993.17
582.483	28091.48
582.681	28157.01
582.878	27958.36
583.076	27569.24
583.274	28232.79
583.471	27716.7
583.669	27407.45
583.866	27593.82
584.064	27675.74
584.262	27462.75
584.459	27503.71
584.657	27573.34
584.854	27913.3
585.052	26983.52
585.249	27636.83
585.447	27366.49
585.644	26735.72
585.841	27276.38
586.039	27360.35
586.236	27153.51
586.434	26848.36
586.631	27190.37
586.828	27069.54
587.026	26842.21
587.223	26649.71
587.42	26764.39
587.618	26772.58
587.815	26651.75
588.012	26289.26
588.21	26641.51
588.407	26502.25
588.604	26221.68
588.801	26293.36
588.999	26150
589.196	25932.92
589.393	25853.05
589.59	25992.31
589.787	25793.65
589.984	25689.21
590.182	25676.92
590.379	26002.55
590.576	25502.84
590.773	25795.7
590.97	25508.99
591.167	25382.01
591.364	25162.88
591.561	25353.34
591.758	25379.96
591.955	25066.63
592.152	25388.16
592.349	25316.48
592.546	25085.06
592.743	25365.63
592.94	24624.26
593.137	25060.48
593.334	25238.65
593.531	24622.22
593.727	25158.78
593.924	24738.95
594.121	24593.54
594.318	24722.57
594.515	24304.78
594.712	24616.07
594.908	24472.71
595.105	24341.64
595.302	24190.09
595.499	24290.45
595.696	24009.87
595.892	24042.64
596.089	24259.73
596.286	24171.66
596.482	24071.31
596.679	23989.39
596.876	24007.83
597.072	23991.44
597.269	23917.72
597.466	23878.8
597.662	23485.59
597.859	23448.73
598.055	23604.38
598.252	23553.18
598.448	23561.37
598.645	23723.16
598.841	23293.08
599.038	23317.66
599.234	23245.98
599.431	23243.93
599.627	23022.75
599.824	23340.19
600.02	23030.94
600.217	23250.08
600.413	22647.97
600.609	22893.73
600.806	22635.69
601.002	22938.79
601.198	22621.35
601.395	22611.11
601.591	22506.66
601.787	22781.09
601.984	22293.68
602.18	22588.58
602.376	22391.98
602.572	22148.27
602.769	22289.58
602.965	21970.1
603.161	22187.18
603.357	21945.52
603.553	22004.91
603.75	21892.27
603.946	21732.53
604.142	22176.94
604.338	21767.35
604.534	21800.12
604.73	21798.07
604.926	21406.91
605.122	21609.65
605.318	21472.44
605.514	21482.68
605.71	21451.96
605.906	21189.82
606.102	21290.17
606.298	21300.41
606.494	21394.62
606.69	21169.34
606.886	21277.88
607.082	20831.43
607.278	21271.74
607.474	20741.32
607.67	21077.18
607.866	20634.82
608.062	21134.53
608.257	20956.35
608.453	20796.61
608.649	20874.43
608.845	20436.17
609.041	20669.64
609.236	20583.62
609.432	20628.68
609.628	20526.28
609.824	20489.42
610.019	20360.39
610.215	20360.39
610.411	20241.61
610.606	20264.14
610.802	20245.71
610.998	20118.73
611.193	20364.49
611.389	20348.11
611.584	20223.18
611.78	20034.77
611.976	20262.09
612.171	20462.79
612.367	19985.62
612.562	19934.42
612.758	19760.34
612.953	19453.14
613.149	20075.73
613.344	19596.5
613.539	20159.69
613.735	20106.45
613.93	19889.36
614.126	19553.49
614.321	19985.62
614.517	19893.46
614.712	19567.83
614.907	19524.82
615.103	19666.13
615.298	19506.39
615.493	19858.64
615.688	19133.66
615.884	19530.97
616.079	19252.44
616.274	19453.14
616.47	19100.89
616.665	19436.76
616.86	19057.89
617.055	19256.54
617.25	19064.03
617.445	18984.16
617.641	18742.5
617.836	18914.53
618.031	18676.96
618.226	18857.18
618.421	18789.6
618.616	19100.89
618.811	18730.21
619.006	18920.67
619.201	18523.37
619.396	18773.22
619.591	18124.01
619.786	18498.79
619.981	18242.79
620.176	18396.39
620.371	18154.73
620.566	17915.12
620.761	17657.07
620.956	18433.25
621.151	17818.86
621.346	17986.8
621.541	17624.31
621.735	17958.13
621.93	17370.36
622.125	17448.18
622.32	17212.67
622.515	17202.43
622.709	17204.47
622.904	16991.48
623.099	17005.82
623.294	16991.48
623.488	16882.94
623.683	16868.61
623.878	16373
624.072	16807.17
624.267	16602.37
624.462	16542.98
624.656	16157.96
624.851	16499.97
625.046	16090.38
625.24	16395.53
625.435	16117
625.629	16024.84
625.824	15973.64
626.018	15811.85
626.213	15586.58
626.407	15684.88
626.602	15586.58
626.796	15605.01
626.991	15244.57
627.185	15349.01
627.38	15226.14
627.574	15205.66
627.768	15031.58
627.963	14837.02
628.157	14882.08
628.352	14951.71
628.546	14662.94
628.74	14759.2
628.935	14769.44
629.129	14658.85
629.323	14564.64
629.517	14484.77
629.712	14529.83
629.906	14298.41
630.1	14325.03
630.294	14357.8
630.489	14163.24
630.683	14089.51
630.877	13767.98
631.071	13991.21
631.265	13860.14
631.459	13790.51
631.653	13751.6
631.848	13901.1
632.042	13354.29
632.236	13585.71
632.43	13395.25
632.624	13428.02
632.818	13317.43
633.012	13184.31
633.206	13073.72
633.4	13100.34
633.594	12930.36
633.788	12977.47
633.982	12965.18
634.176	12897.6
634.369	12690.75
634.563	12692.8
634.757	12574.02
634.951	12703.04
635.145	12662.08
635.339	12498.24
635.533	12469.57
635.726	12438.85
635.92	12266.82
636.114	12467.52
636.308	12141.89
636.501	12055.88
636.695	12016.97
636.889	11873.61
637.083	11879.75
637.276	11705.68
637.47	11689.29
637.664	11640.14
637.857	11740.49
638.051	11674.96
638.244	11529.55
638.438	11453.78
638.632	11396.43
638.825	11392.34
639.019	11318.61
639.212	11169.11
639.406	11355.47
639.599	11021.66
639.793	10863.96
639.986	10956.12
640.18	11042.14
640.373	10958.17
640.567	10775.9
640.76	10841.43
640.954	10700.12
641.147	10390.88
641.34	10685.79
641.534	10489.18
641.727	10485.09
641.92	10548.58
642.114	10397.03
642.307	10315.11
642.5	10003.82
642.694	9946.47
642.887	9919.85
643.08	10186.08
643.273	10048.87
643.467	10016.1
643.66	9997.67
643.853	9948.52
644.046	9721.2
644.239	9690.48
644.432	9665.9
644.626	9688.43
644.819	9491.82
645.012	9641.32
645.205	9545.07
645.398	9610.61
645.591	9287.03
645.784	9403.76
645.977	9289.07
646.17	9528.69
646.363	9248.11
646.556	8914.3
646.749	9141.62
646.942	9024.89
647.135	8947.06
647.328	9037.17
647.521	8797.56
647.714	8797.56
647.907	8906.1
648.099	8854.9
648.292	8732.03
648.485	8768.89
648.678	8596.86
648.871	8553.85
649.064	8598.91
649.256	8568.19
649.449	8437.12
649.642	8330.62
649.835	8144.26
650.027	8465.79
650.22	8279.43
650.413	8105.35
650.605	8217.99
650.798	8136.07
650.991	8115.59
651.183	8072.58
651.376	7916.94
651.568	8050.05
651.761	7933.32
651.954	7939.46
652.146	7902.6
652.339	7796.11
652.531	7789.96
652.724	7693.71
652.916	7640.46
653.109	7490.96
653.301	7699.85
653.494	7634.32
653.686	7585.16
653.879	7644.56
654.071	7566.73
654.263	7347.6
654.456	7402.9
654.648	7386.51
654.84	7271.83
655.033	7400.85
655.225	7267.73
655.417	7269.78
655.61	7275.92
655.802	7280.02
655.994	7183.76
656.186	7214.48
656.379	7067.03
656.571	6956.44
656.763	7097.75
656.955	7034.26
657.148	6966.68
657.34	6895
657.532	6716.83
657.724	6714.78
657.916	6776.22
658.108	6698.39
658.3	6634.91
658.492	6759.83
658.684	6507.93
658.876	6581.66
659.068	6692.25
659.26	6567.32
659.452	6446.49
659.644	6501.79
659.836	6579.61
660.028	6561.18
660.22	6409.63
660.412	6409.63
660.604	6372.77
660.796	6292.9
660.988	6182.31
661.18	6116.77
661.372	6122.91
661.563	6100.39
661.755	6071.72
661.947	6247.84
662.139	6034.85
662.331	6002.08
662.522	6180.26
662.714	5914.02
662.906	5981.6
663.097	5914.02
663.289	5733.8
663.481	5903.78
663.673	5916.07
663.864	5948.84
664.056	5868.97
664.247	5881.25
664.439	5625.26
664.631	5735.85
664.822	5684.65
665.014	5692.84
665.205	5723.56
665.397	5760.42
665.588	5627.31
665.78	5633.45
665.971	5617.07
666.163	5533.1
666.354	5524.91
666.546	5387.69
666.737	5565.87
666.929	5305.78
667.12	5432.75
667.311	5348.78
667.503	5414.32
667.694	5113.27
667.885	5572.01
668.077	5344.69
668.268	5240.24
668.459	5342.64
668.651	5256.62
668.842	5150.13
669.033	5293.49
669.224	5203.38
669.416	5209.52
669.607	5135.79
669.798	5168.56
669.989	5252.53
670.18	5105.07
670.371	5201.33
670.563	5117.36
670.754	4990.39
670.945	4980.15
671.136	5098.93
671.327	5123.51
671.518	4998.58
671.709	4912.57
671.9	5041.59
672.091	5090.74
672.282	5166.51
672.473	4965.81
672.664	5014.96
672.855	4945.33
673.046	5012.92
673.237	5088.69
673.428	4871.61
673.619	4885.94
673.809	4738.49
674	4765.11
674.191	4990.39
674.382	5125.55
674.573	4738.49
674.764	4775.35
674.954	4959.67
675.145	4783.54
675.336	4701.62
675.527	4873.65
675.717	4787.64
675.908	4750.78
676.099	4695.48
676.289	4799.93
676.48	4699.58
676.671	4793.78
676.861	4910.52
677.052	4660.66
677.243	4681.14
677.433	4545.98
677.624	4726.2
677.814	4662.71
678.005	4695.48
678.195	4826.55
678.386	4609.47
678.576	4666.81
678.767	4761.02
678.957	4763.06
679.148	4548.03
679.338	4732.34
679.529	4654.52
679.719	4699.58
679.909	4617.66
680.1	4730.3
680.29	4584.89
680.481	4644.28
680.671	4668.86
680.861	4611.51
681.052	4642.23
681.242	4505.02
681.432	4656.57
681.622	4591.03
681.813	4634.04
682.003	4785.59
682.193	4595.13
682.383	4718.01
682.573	4478.4
682.764	4527.55
682.954	4640.19
683.144	4584.89
683.334	4537.79
683.524	4570.55
683.714	4576.7
683.904	4652.47
684.094	4574.65
684.284	4580.79
684.474	4505.02
684.664	4539.83
684.854	4486.59
685.044	4511.16
685.234	4537.79
685.424	4627.9
685.614	4449.72
685.804	4416.96
685.994	4486.59
686.184	4515.26
686.374	4437.44
686.564	4388.29
686.753	4445.63
686.943	4433.34
687.133	4416.96
687.323	4267.45
687.513	4289.98
687.702	4367.81
687.892	4287.93
688.082	4228.54
688.272	4294.08
688.461	4314.56
688.651	4296.13
688.841	4160.96
689.03	4353.47
689.22	4048.32
689.41	4308.41
689.599	4017.6
689.789	4124.1
689.979	4134.34
690.168	4101.57
690.358	4025.79
690.547	4048.32
690.737	4054.47
690.926	4120
691.116	3941.83
691.305	4208.06
691.495	4124.1
691.684	3818.95
691.874	4234.69
692.063	3939.78
692.252	3962.31
692.442	3941.83
692.631	3827.14
692.82	3782.09
693.01	3827.14
693.199	3843.53
693.388	3710.41
693.578	3763.65
693.767	3712.46
693.956	3796.42
694.146	3685.83
694.335	3775.94
694.524	3753.41
694.713	3747.27
694.902	3741.13
695.092	3751.37
695.281	3818.95
695.47	3792.33
695.659	3765.7
695.848	3798.47
696.037	3675.59
696.226	3780.04
696.415	3634.63
696.604	3800.52
696.793	3782.09
696.982	3777.99
697.171	3751.37
697.36	3745.22
697.549	3734.98
697.738	3440.08
697.927	3565
698.116	3671.5
698.305	3798.47
698.494	3562.95
698.683	3581.39
698.872	3767.75
699.061	3708.36
699.25	3665.35
699.438	3636.68
699.627	3675.59
699.816	3743.17
700.005	3562.95
700.193	3673.54
700.382	3796.42
700.571	3532.23
700.76	3597.77
700.948	3804.61
701.137	3653.06
701.326	3724.74
701.514	3743.17
701.703	3714.5
701.892	3640.78
702.08	3724.74
702.269	3575.24
702.457	3685.83
702.646	3730.89
702.834	3651.02
703.023	3782.09
703.212	3614.15
703.4	3739.08
703.589	3825.09
703.777	3784.13
703.965	3780.04
704.154	3716.55
704.342	3603.91
704.531	3859.91
704.719	3919.3
704.907	3841.48
705.096	3521.99
705.284	3894.72
705.472	3759.56
705.661	3849.67
705.849	3763.65
706.037	3786.18
706.226	3833.29
706.414	3868.1
706.602	3792.33
706.79	3773.89
706.979	3800.52
707.167	3728.84
707.355	3765.7
707.543	3761.61
707.731	3886.53
707.919	3835.33
708.107	3812.81
708.296	3739.08
708.484	3675.59
708.672	3761.61
708.86	3831.24
709.048	3904.96
709.236	3816.9
709.424	3976.64
709.612	3882.44
709.8	3634.63
709.988	3732.94
710.176	3767.75
710.364	3802.57
710.551	3988.93
710.739	3982.79
710.927	4009.41
711.115	3864.01
711.303	3960.26
711.491	3931.59
711.679	3878.34
711.866	3829.19
712.054	3952.07
712.242	3802.57
712.43	3988.93
712.617	3843.53
712.805	4093.38
712.993	3882.44
713.181	3876.29
713.368	3851.72
713.556	4029.89
713.744	3866.05
713.931	4031.94
714.119	3888.58
714.306	4009.41
714.494	3980.74
714.682	4011.46
714.869	3825.09
715.057	4038.08
715.244	3974.6
715.432	3937.73
715.619	4015.55
715.807	3982.79
715.994	4074.95
716.182	4091.33
716.369	4076.99
716.556	4033.99
716.744	4044.23
716.931	3902.92
717.119	3974.6
717.306	4056.51
717.493	3894.72
717.681	4210.11
717.868	3990.98
718.055	3982.79
718.242	4089.28
718.43	4066.75
718.617	4255.17
718.804	3997.12
718.991	3999.17
719.179	4074.95
719.366	4087.23
719.553	4101.57
719.74	4050.37
719.927	4097.47
720.114	4009.41
720.301	4068.8
720.488	4302.27
720.676	4163.01
720.863	4152.77
721.05	4347.33
721.237	4214.21
721.424	4072.9
721.611	4117.95
721.798	4091.33
721.985	4093.38
722.172	4048.32
722.358	4136.38
722.545	4038.08
722.732	4097.47
722.919	4255.17
723.106	4283.84
723.293	4154.82
723.48	4122.05
723.667	4089.28
723.853	4187.58
724.04	4251.07
724.227	4210.11
724.414	4156.86
724.6	4218.3
724.787	4089.28
724.974	4228.54
725.161	4214.21
725.347	4113.86
725.534	4242.88
725.72	4234.69
725.907	4234.69
726.094	4259.26
726.28	4140.48
726.467	4177.34
726.653	4267.45
726.84	4289.98
727.027	4388.29
727.213	4165.06
727.4	4052.42
727.586	4187.58
727.773	4220.35
727.959	4212.16
728.145	4308.41
728.332	4111.81
728.518	4316.61
728.705	4195.78
728.891	4308.41
729.077	4163.01
729.264	4201.92
729.45	4308.41
729.636	4273.6
729.823	4076.99
730.009	4226.5
730.195	4103.62
730.382	4283.84
730.568	4158.91
730.754	4289.98
730.94	4222.4
731.126	4281.79
731.313	4206.02
731.499	4259.26
731.685	4353.47
731.871	4228.54
732.057	4146.62
732.243	4363.71
732.429	4265.41
732.615	4226.5
732.801	4246.98
732.987	4136.38
733.173	4271.55
733.359	4115.91
733.545	4076.99
733.731	4214.21
733.917	4146.62
734.103	4269.5
734.289	4253.12
734.475	4122.05
734.661	4175.3
734.847	4130.24
735.033	4142.53
735.219	4148.67
735.404	4074.95
735.59	4101.57
735.776	4054.47
735.962	4224.45
736.148	4197.82
736.333	4107.71
736.519	4076.99
736.705	4128.19
736.89	4165.06
737.076	3997.12
737.262	4136.38
737.447	4087.23
737.633	4111.81
737.819	4060.61
738.004	4062.66
738.19	4058.56
738.375	4095.43
738.561	4054.47
738.747	4136.38
738.932	3954.12
739.118	4093.38
739.303	4128.19
739.489	4165.06
739.674	3888.58
739.859	4064.71
740.045	3913.16
740.23	4150.72
740.416	3913.16
740.601	3896.77
740.786	3845.57
740.972	3866.05
741.157	3945.92
741.342	3839.43
741.528	3800.52
741.713	3894.72
741.898	3814.85
742.084	3747.27
742.269	3786.18
742.454	3823.05
742.639	3974.6
742.824	3700.17
743.01	3806.66
743.195	3829.19
743.38	3741.13
743.565	3667.4
743.75	3669.45
743.935	3597.77
744.12	3716.55
744.305	3597.77
744.49	3642.82
744.675	3581.39
744.86	3470.8
745.045	3644.87
745.23	3530.19
745.415	3472.84
745.6	3579.34
745.785	3450.32
745.97	3569.1
746.155	3534.28
746.34	3517.9
746.525	3442.12
746.71	3532.23
746.895	3368.4
747.079	3249.61
747.264	3397.07
747.449	3339.73
747.634	3300.81
747.819	3390.92
748.003	3210.7
748.188	3210.7
748.373	3290.57
748.557	3349.96
748.742	3227.09
748.927	3194.32
749.111	3147.22
749.296	3153.36
749.481	3214.8
749.665	3120.59
749.85	3132.88
750.034	3030.48
750.219	3145.17
750.404	3098.06
750.588	3003.86
750.773	2883.03
750.957	2999.76
751.141	2989.52
751.326	2921.94
751.51	2819.54
751.695	2899.41
751.879	2790.87
752.064	3020.24
752.248	2874.84
752.432	2940.37
752.617	2743.77
752.801	2821.59
752.985	2776.53
753.17	2758.1
753.354	2702.81
753.538	2735.57
753.722	2708.95
753.907	2637.27
754.091	2635.22
754.275	2569.69
754.459	2700.76
754.643	2518.49
754.828	2610.65
755.012	2530.78
755.196	2483.67
755.38	2436.57
755.564	2561.5
755.748	2467.29
755.932	2575.83
756.116	2510.3
756.3	2475.48
756.484	2373.08
756.668	2412
756.852	2381.28
757.036	2268.64
757.22	2373.08
757.404	2416.09
757.588	2323.93
757.772	2381.28
757.956	2358.75
758.14	2323.93
758.323	2246.11
758.507	2254.3
758.691	2250.21
758.875	2274.78
759.059	2399.71
759.242	2192.86
759.426	2209.25
759.61	2145.76
759.794	2045.41
759.977	2186.72
760.161	2174.43
760.345	2180.57
760.528	1990.11
760.712	2188.77
760.895	2041.31
761.079	2035.17
761.263	2002.4
761.446	2012.64
761.63	2031.07
761.813	2000.35
761.997	2106.85
762.18	2078.18
762.364	2047.46
762.547	1781.22
762.731	1975.78
762.914	1912.29
763.098	2039.26
763.281	1877.48
763.464	1830.37
763.648	1934.82
763.831	1822.18
764.015	1875.43
764.198	1895.91
764.381	1879.52
764.564	1816.04
764.748	1854.95
764.931	1721.83
765.114	1826.28
765.297	1850.85
765.481	1803.75
765.664	1785.32
765.847	1707.49
766.03	1844.71
766.213	1807.84
766.397	1717.73
766.58	1734.12
766.763	1697.25
766.946	1770.98
767.129	1715.69
767.312	1734.12
767.495	1699.3
767.678	1641.96
767.861	1723.88
768.044	1711.59
768.227	1699.3
768.41	1707.49
768.593	1676.77
768.776	1658.34
768.959	1582.57
769.142	1687.01
769.324	1676.77
769.507	1627.62
769.69	1658.34
769.873	1568.23
770.056	1650.15
770.239	1644.01
770.421	1553.9
770.604	1695.21
770.787	1615.34
770.97	1625.58
771.152	1533.42
771.335	1613.29
771.518	1562.09
771.7	1639.91
771.883	1582.57
772.066	1496.55
772.248	1594.86
772.431	1531.37
772.613	1578.47
772.796	1467.88
772.978	1545.7
773.161	1541.61
773.343	1385.96
773.526	1478.12
773.708	1431.02
773.891	1482.22
774.073	1398.25
774.256	1390.06
774.438	1441.26
774.621	1326.57
774.803	1445.35
774.985	1345
775.168	1330.67
775.35	1371.63
775.532	1279.47
775.715	1340.91
775.897	1345
776.079	1232.37
776.261	1349.1
776.444	1279.47
776.626	1277.42
776.808	1281.52
776.99	1232.37
777.173	1238.51
777.355	1197.55
777.537	1207.79
777.719	1189.36
777.901	1299.95
778.083	1097.2
778.265	1170.93
778.447	1283.56
778.629	1179.12
778.811	1160.69
778.993	1195.5
779.175	1213.93
779.357	1172.97
779.539	1164.78
779.721	1099.25
779.903	1064.43
780.085	1111.54
780.267	1068.53
780.449	1146.35
780.631	1070.58
780.812	1156.59
780.994	1080.82
781.176	1037.81
781.358	996.85
781.54	994.8
781.721	1033.71
781.903	1095.15
782.085	990.7
782.267	1080.82
782.448	947.7
782.63	1086.96
782.812	919.03
782.993	986.61
783.175	953.84
783.357	933.36
783.538	1031.66
783.72	943.6
783.901	888.31
784.083	968.18
784.264	1002.99
784.446	777.72
784.627	810.48
784.809	886.26
784.99	906.74
785.172	974.32
785.353	876.02
785.535	884.21
785.716	783.86
785.897	814.58
786.079	810.48
786.26	790
786.441	845.3
786.623	726.52
786.804	775.67
786.985	806.39
787.167	853.49
787.348	804.34
787.529	712.18
787.71	867.83
787.891	646.65
788.073	636.41
788.254	685.56
788.435	830.96
788.616	818.68
788.797	652.79
788.978	744.95
789.159	761.33
789.34	699.89
789.522	671.22
789.703	753.14
789.884	783.86
790.065	693.75
790.246	738.8
790.427	673.27
790.607	744.95
790.788	722.42
790.969	720.37
791.15	650.74
791.331	634.36
791.512	677.37
791.693	617.97
791.874	591.35
792.054	695.8
792.235	581.11
792.416	587.26
792.597	560.63
792.778	603.64
792.958	587.26
793.139	642.55
793.32	634.36
793.5	452.09
793.681	648.69
793.862	706.04
794.042	581.11
794.223	554.49
794.404	478.71
794.584	538.1
794.765	583.16
794.945	585.21
795.126	613.88
795.306	556.54
795.487	521.72
795.667	550.39
795.848	550.39
796.028	521.72
796.209	546.3
796.389	624.12
796.57	542.2
796.75	548.34
796.93	550.39
797.111	433.66
797.291	546.3
797.471	550.39
797.652	484.86
797.832	462.33
798.012	511.48
798.192	413.18
798.373	493.05
798.553	439.8
798.733	466.42
798.913	468.47
799.093	425.47
799.274	425.47
799.454	554.49
799.634	491
799.814	445.95
799.994	458.23
800.174	447.99
800.354	439.8
800.534	460.28
800.714	456.19
800.894	433.66
801.074	398.84
801.254	404.99
801.434	452.09
801.614	357.88
801.794	392.7
801.974	1451.5
802.154	423.42
802.334	433.66
802.514	409.08
802.693	429.56
802.873	404.99
803.053	413.18
803.233	386.55
803.413	482.81
803.592	390.65
803.772	321.02
803.952	368.12
804.131	343.55
804.311	419.32
804.491	419.32
804.67	378.36
804.85	333.31
805.03	357.88
805.209	419.32
805.389	280.06
805.568	392.7
805.748	353.79
805.928	390.65
806.107	411.13
806.287	343.55
806.466	413.18
806.646	407.03
806.825	286.2
807.004	353.79
807.184	325.12
807.363	427.51
807.543	378.36
807.722	351.74
807.901	312.83
808.081	421.37
808.26	275.96
808.439	380.41
808.619	380.41
808.798	298.49
808.977	339.45
809.156	441.85
809.336	304.64
809.515	335.35
809.694	251.39
809.873	333.31
810.052	323.07
810.231	325.12
810.411	255.48
810.59	331.26
810.769	259.58
810.948	404.99
811.127	265.72
811.306	329.21
811.485	261.63
811.664	343.55
811.843	278.01
812.022	355.83
812.201	269.82
812.38	296.44
812.559	273.92
812.737	294.4
812.916	189.95
813.095	224.76
813.274	259.58
813.453	218.62
813.632	357.88
813.811	257.53
813.989	263.68
814.168	271.87
814.347	243.2
814.526	239.1
814.704	257.53
814.883	306.68
815.062	206.33
815.24	329.21
815.419	249.34
815.598	333.31
815.776	247.29
815.955	243.2
816.133	144.89
816.312	296.44
816.49	271.87
816.669	232.96
816.847	249.34
817.026	312.83
817.204	230.91
817.383	189.95
817.561	206.33
817.74	263.68
817.918	314.88
818.097	208.38
818.275	173.57
818.453	257.53
818.632	232.96
818.81	241.15
818.988	269.82
819.167	267.77
819.345	157.18
819.523	122.37
819.701	280.06
819.879	243.2
820.058	179.71
820.236	214.52
820.414	171.52
820.592	140.8
820.77	167.42
820.948	175.61
821.127	183.81
821.305	259.58
821.483	183.81
821.661	222.72
821.839	212.48
822.017	273.92
822.195	202.24
822.373	261.63
822.551	321.02
822.729	185.85
822.907	251.39
823.085	237.05
823.262	243.2
823.44	173.57
823.618	163.33
823.796	239.1
823.974	124.41
824.152	118.27
824.329	243.2
824.507	183.81
824.685	126.46
824.863	200.19
825.04	181.76
825.218	241.15
825.396	144.89
825.574	218.62
825.751	181.76
825.929	175.61
826.107	153.09
826.284	146.94
826.462	226.81
826.639	138.75
826.817	71.17
826.994	239.1
827.172	204.28
827.349	222.72
827.527	177.66
827.704	161.28
827.882	151.04
828.059	120.32
828.237	148.99
828.414	232.96
828.591	40.45
828.769	192
828.946	161.28
829.124	169.47
829.301	198.14
829.478	151.04
829.655	230.91
829.833	196.09
830.01	69.12
830.187	226.81
830.364	181.76
830.542	173.57
830.719	230.91
830.896	163.33
831.073	120.32
831.25	181.76
831.427	144.89
831.604	212.48
831.782	136.7
831.959	194.05
832.136	112.13
832.313	194.05
832.49	65.02
832.667	212.48
832.844	138.75
833.021	198.14
833.198	167.42
833.374	202.24
833.551	157.18
833.728	62.98
833.905	148.99
834.082	44.54
834.259	132.61
834.436	175.61
834.612	26.11
834.789	159.23
834.966	167.42
835.143	159.23
835.319	50.69
835.496	136.7
835.673	112.13
835.85	161.28
836.026	157.18
836.203	144.89
836.38	124.41
836.556	83.45
836.733	81.41
836.909	267.77
837.086	132.61
837.262	32.26
837.439	146.94
837.616	79.36
837.792	89.6
837.968	140.8
838.145	103.93
838.321	71.17
838.498	132.61
838.674	194.05
838.851	48.64
839.027	52.74
839.203	71.17
839.38	148.99
839.556	77.31
839.732	112.13
839.909	38.4
840.085	71.17
840.261	140.8
840.437	136.7
840.614	52.74
840.79	105.98
840.966	151.04
841.142	112.13
841.318	130.56
841.494	183.81
841.671	138.75
841.847	122.37
842.023	54.78
842.199	126.46
842.375	114.17
842.551	103.93
842.727	114.17
842.903	142.85
843.079	42.5
843.255	105.98
843.431	97.79
843.607	101.89
843.783	13.82
843.959	83.45
844.134	116.22
844.31	91.65
844.486	157.18
844.662	42.5
844.838	1.54
845.013	163.33
845.189	132.61
845.365	69.12
845.541	42.5
845.716	122.37
845.892	128.51
846.068	48.64
846.244	99.84
846.419	85.5
846.595	-8.7
846.77	89.6
846.946	89.6
847.122	28.16
847.297	40.45
847.473	187.9
847.648	69.12
847.824	91.65
847.999	5.63
848.175	62.98
848.35	9.73
848.526	212.48
848.701	87.55
848.876	120.32
849.052	122.37
849.227	132.61
849.403	87.55
849.578	42.5
849.753	146.94
849.929	122.37
850.104	87.55
850.279	58.88
850.454	83.45
850.63	48.64
850.805	81.41
850.98	73.21
851.155	79.36
851.33	87.55
851.505	48.64
851.681	36.35
851.856	-2.56
852.031	103.93
852.206	67.07
852.381	36.35
852.556	44.54
852.731	130.56
852.906	91.65
853.081	124.41
853.256	138.75
853.431	24.06
853.606	13.82
853.781	19.97
853.956	5.63
854.131	48.64
854.305	-8.7
854.48	36.35
854.655	13.82
854.83	11.78
855.005	69.12
855.18	26.11
855.354	3.58
855.529	97.79
855.704	73.21
855.879	71.17
856.053	44.54
856.228	32.26
856.403	-59.9
856.577	19.97
856.752	5.63
856.926	-23.04
857.101	87.55
857.276	79.36
857.45	87.55
857.625	46.59
857.799	67.07
857.974	122.37
858.148	42.5
858.323	114.17
858.497	15.87
858.672	97.79
858.846	36.35
859.02	67.07
859.195	105.98
859.369	13.82
859.543	103.93
859.718	83.45
859.892	110.08
860.066	46.59
860.241	97.79
860.415	79.36
860.589	-2.56
860.763	56.83
860.938	42.5
861.112	38.4
861.286	-4.61
861.46	60.93
861.634	54.78
861.808	81.41
861.982	46.59
862.157	-0.51
862.331	22.02
862.505	-8.7
862.679	15.87
862.853	22.02
863.027	73.21
863.201	103.93
863.375	22.02
863.549	105.98
863.722	54.78
863.896	95.74
864.07	38.4
864.244	17.92
864.418	91.65
864.592	40.45
864.766	24.06
864.939	89.6
865.113	28.16
865.287	105.98
865.461	-12.8
865.634	-10.75
865.808	38.4
865.982	15.87
866.156	26.11
866.329	-39.42
866.503	13.82
866.676	58.88
866.85	3.58
867.024	24.06
867.197	85.5
867.371	65.02
867.544	28.16
867.718	15.87
867.891	83.45
868.065	7.68
868.238	71.17
868.412	54.78
868.585	50.69
868.759	-0.51
868.932	44.54
869.105	-16.9
869.279	73.21
869.452	-84.48
869.625	7.68
869.799	26.11
869.972	-23.04
870.145	-6.66
870.319	46.59
870.492	75.26
870.665	30.21
870.838	-51.71
871.011	-70.14
871.185	17.92
871.358	7.68
871.531	62.98
871.704	-16.9
871.877	22.02
872.05	-39.42
872.223	9.73
872.396	81.41
872.569	38.4
872.742	-29.18
872.915	103.93
873.088	11.78
873.261	19.97
873.434	-14.85
873.607	48.64
873.78	65.02
873.953	-12.8
874.126	38.4
874.299	17.92
874.471	58.88
874.644	36.35
874.817	-4.61
874.99	97.79
875.163	-64
875.335	75.26
875.508	3.58
875.681	91.65
875.853	77.31
876.026	9.73
876.199	56.83
876.371	22.02
876.544	19.97
876.717	24.06
876.889	81.41
877.062	30.21
877.234	9.73
877.407	-53.76
877.579	71.17
877.752	65.02
877.924	65.02
878.097	36.35
878.269	13.82
878.442	28.16
878.614	28.16
878.786	81.41
878.959	1.54
879.131	34.3
879.303	-47.62
879.476	-14.85
879.648	95.74
879.82	85.5
879.993	-20.99
880.165	58.88
880.337	-18.94
880.509	56.83
880.681	-2.56
880.854	-47.62
881.026	69.12
881.198	26.11
881.37	32.26
881.542	7.68
881.714	36.35
881.886	-12.8
882.058	3.58
882.23	7.68
882.402	73.21
882.574	48.64
882.746	36.35
882.918	60.93
883.09	46.59
883.262	-2.56
883.434	-74.24
883.606	-47.62
883.778	9.73
883.95	105.98
884.122	42.5
884.293	-45.57
884.465	46.59
884.637	81.41
884.809	-25.09
884.98	110.08
885.152	52.74
885.324	34.3
885.496	-12.8
885.667	58.88
885.839	-33.28
886.011	87.55
886.182	22.02
886.354	-37.38
886.525	-8.7
886.697	24.06
886.869	-16.9
887.04	-39.42
887.212	58.88
887.383	136.7
887.555	-23.04
887.726	-4.61
887.897	-39.42
888.069	36.35
888.24	58.88
888.412	34.3
888.583	38.4
888.754	-41.47
888.926	-25.09
889.097	-33.28
889.268	11.78
889.44	-51.71
889.611	-37.38
889.782	38.4
889.953	7.68
890.125	58.88
890.296	36.35
890.467	79.36
890.638	-20.99
890.809	13.82
890.98	-16.9
891.151	62.98
891.323	126.46
891.494	69.12
891.665	-33.28
891.836	-59.9
892.007	36.35
892.178	17.92
892.349	-18.94
892.52	5.63
892.691	-12.8
892.862	22.02
893.032	65.02
893.203	-45.57
893.374	65.02
893.545	15.87
893.716	-16.9
893.887	32.26
894.057	13.82
894.228	60.93
894.399	-68.09
894.57	79.36
894.74	-43.52
894.911	-4.61
895.082	-0.51
895.253	15.87
895.423	-6.66
895.594	56.83
895.764	65.02
895.935	-92.67
896.106	67.07
896.276	5.63
896.447	81.41
896.617	26.11
896.788	-51.71
896.958	62.98
897.129	-23.04
897.299	-59.9
897.47	40.45
897.64	-18.94
897.81	52.74
897.981	22.02
898.151	-47.62
898.322	83.45
898.492	30.21
898.662	-27.14
898.832	-35.33
899.003	28.16
899.173	62.98
899.343	1.54
899.513	-45.57
