Data from USB4F104151__90__12-13-04-650.txt Node

Date: Fri Mar 14 12:13:04 EDT 2025
User: louis
Spectrometer: USB4F10415
Trigger mode: 4
Integration Time (sec): 5.000000E-2
Scans to average: 1
Electric dark correction enabled: true
Nonlinearity correction enabled: false
Boxcar width: 0
XAxis mode: Wavelengths
Number of Pixels in Spectrum: 3648
>>>>>Begin Spectral Data<<<<<
178.204	-214.01
178.424	-214.01
178.644	-214.01
178.864	-138.24
179.084	-173.05
179.304	19.46
179.524	-62.46
179.744	56.32
179.964	41.98
180.184	48.13
180.404	-95.23
180.624	-39.94
180.844	33.79
181.064	-50.18
181.283	-50.18
181.503	9.22
181.723	89.09
181.943	-80.89
182.163	113.66
182.383	68.61
182.602	17.41
182.822	66.56
183.042	19.46
183.262	13.31
183.482	37.89
183.701	-15.36
183.921	60.42
184.141	78.85
184.361	41.98
184.58	-11.26
184.8	62.46
185.02	21.5
185.239	105.47
185.459	48.13
185.679	37.89
185.898	-15.36
186.118	52.22
186.338	95.23
186.557	35.84
186.777	58.37
186.997	29.7
187.216	-3.07
187.436	140.29
187.655	156.67
187.875	117.76
188.095	-13.31
188.314	31.74
188.534	119.81
188.753	66.56
188.973	109.57
189.192	91.13
189.412	56.32
189.631	27.65
189.851	74.75
190.07	132.09
190.29	-13.31
190.509	-25.6
190.729	37.89
190.948	37.89
191.168	148.48
191.387	128
191.607	76.8
191.826	27.65
192.045	17.41
192.265	41.98
192.484	70.65
192.704	9.22
192.923	11.26
193.142	177.15
193.362	70.65
193.581	113.66
193.8	60.42
194.02	117.76
194.239	74.75
194.458	80.89
194.678	9.22
194.897	37.89
195.116	60.42
195.335	64.51
195.555	91.13
195.774	58.37
195.993	58.37
196.212	115.71
196.432	11.26
196.651	-23.55
196.87	60.42
197.089	117.76
197.308	138.24
197.528	60.42
197.747	31.74
197.966	50.18
198.185	119.81
198.404	-11.26
198.623	82.94
198.842	84.99
199.062	130.05
199.281	93.18
199.5	27.65
199.719	33.79
199.938	97.28
200.157	84.99
200.376	76.8
200.595	132.09
200.814	56.32
201.033	19.46
201.252	91.13
201.471	48.13
201.69	148.48
201.909	70.65
202.128	142.33
202.347	72.7
202.566	-5.12
202.785	-11.26
203.004	27.65
203.223	195.58
203.442	70.65
203.661	56.32
203.879	58.37
204.098	27.65
204.317	17.41
204.536	148.48
204.755	80.89
204.974	82.94
205.193	146.43
205.411	146.43
205.63	56.32
205.849	-7.17
206.068	41.98
206.287	1.02
206.505	156.67
206.724	46.08
206.943	48.13
207.162	78.85
207.381	-11.26
207.599	7.17
207.818	111.61
208.037	-7.17
208.255	5.12
208.474	91.13
208.693	31.74
208.911	70.65
209.13	56.32
209.349	97.28
209.567	95.23
209.786	144.38
210.005	107.52
210.223	52.22
210.442	17.41
210.661	58.37
210.879	-13.31
211.098	50.18
211.316	72.7
211.535	21.5
211.753	46.08
211.972	93.18
212.191	-37.89
212.409	-15.36
212.628	68.61
212.846	46.08
213.065	50.18
213.283	99.33
213.502	46.08
213.72	31.74
213.938	68.61
214.157	56.32
214.375	68.61
214.594	33.79
214.812	-1.02
215.031	60.42
215.249	107.52
215.467	48.13
215.686	39.94
215.904	115.71
216.122	-27.65
216.341	87.04
216.559	13.31
216.778	123.9
216.996	136.19
217.214	84.99
217.432	29.7
217.651	27.65
217.869	-29.7
218.087	13.31
218.306	46.08
218.524	103.42
218.742	46.08
218.96	39.94
219.179	15.36
219.397	31.74
219.615	168.96
219.833	15.36
220.051	41.98
220.27	146.43
220.488	101.37
220.706	84.99
220.924	72.7
221.142	58.37
221.36	9.22
221.578	99.33
221.796	54.27
222.015	17.41
222.233	29.7
222.451	142.33
222.669	7.17
222.887	87.04
223.105	62.46
223.323	13.31
223.541	-82.94
223.759	95.23
223.977	23.55
224.195	148.48
224.413	84.99
224.631	121.85
224.849	19.46
225.067	168.96
225.285	130.05
225.503	50.18
225.721	-70.65
225.939	9.22
226.157	31.74
226.375	175.1
226.592	27.65
226.81	54.27
227.028	201.72
227.246	41.98
227.464	74.75
227.682	33.79
227.9	37.89
228.117	52.22
228.335	52.22
228.553	84.99
228.771	19.46
228.989	17.41
229.206	70.65
229.424	7.17
229.642	41.98
229.86	80.89
230.077	115.71
230.295	37.89
230.513	84.99
230.731	148.48
230.948	64.51
231.166	101.37
231.384	44.03
231.601	60.42
231.819	179.2
232.037	54.27
232.254	-13.31
232.472	64.51
232.689	9.22
232.907	152.57
233.125	-19.46
233.342	84.99
233.56	33.79
233.777	97.28
233.995	33.79
234.213	74.75
234.43	95.23
234.648	105.47
234.865	48.13
235.083	74.75
235.3	58.37
235.518	80.89
235.735	177.15
235.953	121.85
236.17	76.8
236.388	41.98
236.605	111.61
236.822	87.04
237.04	138.24
237.257	119.81
237.475	-11.26
237.692	-31.74
237.909	91.13
238.127	87.04
238.344	68.61
238.562	64.51
238.779	-9.22
238.996	-35.84
239.214	-7.17
239.431	103.42
239.648	11.26
239.865	119.81
240.083	64.51
240.3	52.22
240.517	39.94
240.735	113.66
240.952	62.46
241.169	105.47
241.386	29.7
241.603	27.65
241.821	-33.79
242.038	146.43
242.255	121.85
242.472	64.51
242.689	17.41
242.907	87.04
243.124	62.46
243.341	31.74
243.558	31.74
243.775	-66.56
243.992	50.18
244.209	35.84
244.426	97.28
244.643	23.55
244.86	33.79
245.078	78.85
245.295	80.89
245.512	33.79
245.729	31.74
245.946	123.9
246.163	93.18
246.38	89.09
246.597	-17.41
246.814	148.48
247.031	-35.84
247.248	50.18
247.464	76.8
247.681	68.61
247.898	50.18
248.115	56.32
248.332	93.18
248.549	111.61
248.766	78.85
248.983	132.09
249.2	33.79
249.417	82.94
249.633	-35.84
249.85	64.51
250.067	13.31
250.284	84.99
250.501	25.6
250.717	105.47
250.934	29.7
251.151	39.94
251.368	48.13
251.585	109.57
251.801	13.31
252.018	19.46
252.235	91.13
252.451	56.32
252.668	-21.5
252.885	89.09
253.102	19.46
253.318	27.65
253.535	13.31
253.752	-7.17
253.968	33.79
254.185	3.07
254.401	44.03
254.618	91.13
254.835	13.31
255.051	152.57
255.268	158.72
255.484	44.03
255.701	76.8
255.917	95.23
256.134	50.18
256.351	62.46
256.567	62.46
256.784	1.02
257	-58.37
257.217	76.8
257.433	66.56
257.65	29.7
257.866	121.85
258.082	-17.41
258.299	41.98
258.515	109.57
258.732	31.74
258.948	66.56
259.165	48.13
259.381	46.08
259.597	101.37
259.814	48.13
260.03	31.74
260.246	44.03
260.463	66.56
260.679	58.37
260.895	23.55
261.112	84.99
261.328	17.41
261.544	-64.51
261.761	222.2
261.977	-7.17
262.193	7.17
262.409	35.84
262.626	33.79
262.842	-37.89
263.058	-19.46
263.274	68.61
263.49	29.7
263.707	70.65
263.923	78.85
264.139	-27.65
264.355	87.04
264.571	113.66
264.787	134.14
265.004	177.15
265.22	123.9
265.436	-7.17
265.652	7.17
265.868	74.75
266.084	60.42
266.3	93.18
266.516	50.18
266.732	27.65
266.948	103.42
267.164	7.17
267.38	-5.12
267.596	41.98
267.812	146.43
268.028	17.41
268.244	-27.65
268.46	-1.02
268.676	60.42
268.892	56.32
269.108	91.13
269.324	-9.22
269.54	7.17
269.756	29.7
269.972	-1.02
270.188	-23.55
270.403	44.03
270.619	39.94
270.835	48.13
271.051	58.37
271.267	11.26
271.483	3.07
271.698	105.47
271.914	56.32
272.13	-25.6
272.346	44.03
272.562	-23.55
272.777	146.43
272.993	58.37
273.209	-7.17
273.425	84.99
273.64	7.17
273.856	252.92
274.072	41.98
274.287	11.26
274.503	66.56
274.719	91.13
274.934	66.56
275.15	-3.07
275.366	-17.41
275.581	-1.02
275.797	50.18
276.012	74.75
276.228	29.7
276.444	119.81
276.659	138.24
276.875	91.13
277.09	-9.22
277.306	56.32
277.521	62.46
277.737	46.08
277.952	17.41
278.168	39.94
278.383	58.37
278.599	25.6
278.814	64.51
279.03	125.95
279.245	220.16
279.461	-15.36
279.676	48.13
279.892	74.75
280.107	15.36
280.322	35.84
280.538	111.61
280.753	78.85
280.969	72.7
281.184	-21.5
281.399	91.13
281.615	74.75
281.83	78.85
282.045	56.32
282.26	44.03
282.476	35.84
282.691	54.27
282.906	54.27
283.122	41.98
283.337	17.41
283.552	50.18
283.767	23.55
283.983	-23.55
284.198	-19.46
284.413	52.22
284.628	9.22
284.843	68.61
285.058	91.13
285.274	41.98
285.489	-23.55
285.704	33.79
285.919	9.22
286.134	80.89
286.349	19.46
286.564	-9.22
286.779	117.76
286.995	25.6
287.21	-23.55
287.425	66.56
287.64	62.46
287.855	29.7
288.07	-5.12
288.285	80.89
288.5	72.7
288.715	50.18
288.93	-3.07
289.145	44.03
289.36	179.2
289.575	25.6
289.79	-1.02
290.004	54.27
290.219	84.99
290.434	27.65
290.649	27.65
290.864	21.5
291.079	171.01
291.294	82.94
291.509	39.94
291.724	25.6
291.938	121.85
292.153	64.51
292.368	3.07
292.583	48.13
292.798	101.37
293.012	109.57
293.227	113.66
293.442	117.76
293.657	5.12
293.871	64.51
294.086	3.07
294.301	148.48
294.516	109.57
294.73	39.94
294.945	29.7
295.16	-13.31
295.374	48.13
295.589	134.14
295.804	70.65
296.018	115.71
296.233	105.47
296.447	64.51
296.662	21.5
296.877	115.71
297.091	31.74
297.306	64.51
297.52	56.32
297.735	95.23
297.949	80.89
298.164	121.85
298.378	7.17
298.593	91.13
298.807	-13.31
299.022	80.89
299.236	101.37
299.451	9.22
299.665	5.12
299.88	62.46
300.094	103.42
300.309	56.32
300.523	74.75
300.737	46.08
300.952	50.18
301.166	44.03
301.381	62.46
301.595	25.6
301.809	56.32
302.024	97.28
302.238	52.22
302.452	52.22
302.667	48.13
302.881	91.13
303.095	58.37
303.309	9.22
303.524	70.65
303.738	19.46
303.952	58.37
304.166	68.61
304.381	27.65
304.595	142.33
304.809	-35.84
305.023	-19.46
305.237	1.02
305.452	87.04
305.666	15.36
305.88	52.22
306.094	99.33
306.308	158.72
306.522	44.03
306.736	99.33
306.95	160.77
307.164	13.31
307.379	-19.46
307.593	105.47
307.807	113.66
308.021	-13.31
308.235	41.98
308.449	41.98
308.663	13.31
308.877	185.34
309.091	64.51
309.305	84.99
309.519	-33.79
309.733	44.03
309.947	46.08
310.161	89.09
310.374	56.32
310.588	44.03
310.802	-1.02
311.016	27.65
311.23	91.13
311.444	113.66
311.658	72.7
311.872	128
312.085	156.67
312.299	41.98
312.513	136.19
312.727	89.09
312.941	-44.03
313.154	56.32
313.368	125.95
313.582	78.85
313.796	87.04
314.009	105.47
314.223	66.56
314.437	39.94
314.651	19.46
314.864	33.79
315.078	-27.65
315.292	31.74
315.505	-29.7
315.719	3.07
315.933	150.53
316.146	60.42
316.36	58.37
316.573	78.85
316.787	64.51
317.001	52.22
317.214	21.5
317.428	74.75
317.641	37.89
317.855	48.13
318.068	82.94
318.282	119.81
318.495	181.25
318.709	123.9
318.922	37.89
319.136	105.47
319.349	99.33
319.563	-27.65
319.776	76.8
319.99	-60.42
320.203	109.57
320.417	150.53
320.63	109.57
320.843	97.28
321.057	21.5
321.27	62.46
321.483	33.79
321.697	23.55
321.91	25.6
322.124	72.7
322.337	58.37
322.55	-117.76
322.763	62.46
322.977	78.85
323.19	11.26
323.403	50.18
323.617	87.04
323.83	62.46
324.043	-25.6
324.256	41.98
324.469	-11.26
324.683	123.9
324.896	50.18
325.109	37.89
325.322	58.37
325.535	89.09
325.748	95.23
325.962	15.36
326.175	39.94
326.388	115.71
326.601	54.27
326.814	9.22
327.027	21.5
327.24	156.67
327.453	-19.46
327.666	66.56
327.879	119.81
328.092	-21.5
328.305	87.04
328.518	-50.18
328.731	27.65
328.944	117.76
329.157	7.17
329.37	105.47
329.583	72.7
329.796	160.77
330.009	9.22
330.222	58.37
330.435	89.09
330.648	91.13
330.861	64.51
331.073	7.17
331.286	121.85
331.499	74.75
331.712	48.13
331.925	68.61
332.138	17.41
332.35	128
332.563	-66.56
332.776	158.72
332.989	17.41
333.202	37.89
333.414	58.37
333.627	70.65
333.84	37.89
334.053	39.94
334.265	62.46
334.478	29.7
334.691	111.61
334.903	78.85
335.116	-23.55
335.329	72.7
335.541	64.51
335.754	148.48
335.966	33.79
336.179	17.41
336.392	89.09
336.604	99.33
336.817	58.37
337.029	101.37
337.242	89.09
337.454	35.84
337.667	76.8
337.88	70.65
338.092	80.89
338.305	72.7
338.517	60.42
338.729	87.04
338.942	101.37
339.154	7.17
339.367	23.55
339.579	11.26
339.792	33.79
340.004	41.98
340.217	39.94
340.429	119.81
340.641	1.02
340.854	89.09
341.066	5.12
341.278	132.09
341.491	105.47
341.703	3.07
341.915	-11.26
342.128	89.09
342.34	50.18
342.552	21.5
342.764	31.74
342.977	33.79
343.189	13.31
343.401	95.23
343.613	19.46
343.826	74.75
344.038	-19.46
344.25	66.56
344.462	-25.6
344.674	123.9
344.886	-21.5
345.099	95.23
345.311	13.31
345.523	3.07
345.735	37.89
345.947	89.09
346.159	64.51
346.371	50.18
346.583	29.7
346.795	109.57
347.007	56.32
347.219	101.37
347.431	130.05
347.643	152.57
347.855	-1.02
348.067	76.8
348.279	62.46
348.491	78.85
348.703	-35.84
348.915	3.07
349.127	93.18
349.339	128
349.551	29.7
349.763	23.55
349.975	60.42
350.187	84.99
350.399	113.66
350.61	76.8
350.822	23.55
351.034	48.13
351.246	-41.98
351.458	19.46
351.669	27.65
351.881	62.46
352.093	115.71
352.305	152.57
352.517	101.37
352.728	70.65
352.94	117.76
353.152	70.65
353.363	35.84
353.575	152.57
353.787	107.52
353.999	17.41
354.21	89.09
354.422	35.84
354.633	66.56
354.845	80.89
355.057	44.03
355.268	39.94
355.48	117.76
355.692	44.03
355.903	80.89
356.115	19.46
356.326	19.46
356.538	164.86
356.749	89.09
356.961	162.81
357.172	76.8
357.384	1.02
357.595	220.16
357.807	80.89
358.018	-9.22
358.23	27.65
358.441	168.96
358.653	91.13
358.864	66.56
359.075	52.22
359.287	125.95
359.498	78.85
359.709	39.94
359.921	105.47
360.132	7.17
360.344	76.8
360.555	74.75
360.766	84.99
360.977	62.46
361.189	97.28
361.4	39.94
361.611	87.04
361.823	144.38
362.034	91.13
362.245	5.12
362.456	111.61
362.667	84.99
362.879	33.79
363.09	70.65
363.301	52.22
363.512	87.04
363.723	80.89
363.935	21.5
364.146	123.9
364.357	31.74
364.568	58.37
364.779	11.26
364.99	70.65
365.201	-31.74
365.412	60.42
365.623	-1.02
365.834	87.04
366.045	41.98
366.256	121.85
366.467	72.7
366.678	87.04
366.889	60.42
367.1	19.46
367.311	146.43
367.522	82.94
367.733	46.08
367.944	84.99
368.155	39.94
368.366	105.47
368.577	68.61
368.788	84.99
368.999	-17.41
369.209	46.08
369.42	177.15
369.631	234.49
369.842	31.74
370.053	70.65
370.264	115.71
370.474	23.55
370.685	111.61
370.896	46.08
371.107	78.85
371.317	179.2
371.528	-7.17
371.739	70.65
371.95	91.13
372.16	121.85
372.371	-21.5
372.582	70.65
372.792	70.65
373.003	93.18
373.214	21.5
373.424	74.75
373.635	56.32
373.846	93.18
374.056	70.65
374.267	76.8
374.477	39.94
374.688	74.75
374.898	72.7
375.109	3.07
375.319	91.13
375.53	82.94
375.74	97.28
375.951	60.42
376.161	111.61
376.372	101.37
376.582	27.65
376.793	91.13
377.003	105.47
377.214	41.98
377.424	111.61
377.635	154.62
377.845	70.65
378.055	80.89
378.266	23.55
378.476	82.94
378.686	132.09
378.897	123.9
379.107	66.56
379.317	56.32
379.528	64.51
379.738	99.33
379.948	80.89
380.158	78.85
380.369	54.27
380.579	58.37
380.789	89.09
380.999	84.99
381.21	113.66
381.42	119.81
381.63	105.47
381.84	68.61
382.05	105.47
382.261	60.42
382.471	60.42
382.681	87.04
382.891	70.65
383.101	142.33
383.311	3.07
383.521	60.42
383.731	62.46
383.941	160.77
384.151	19.46
384.361	56.32
384.571	101.37
384.781	115.71
384.991	134.14
385.201	162.81
385.411	76.8
385.621	89.09
385.831	117.76
386.041	87.04
386.251	82.94
386.461	121.85
386.671	50.18
386.881	123.9
387.091	41.98
387.301	111.61
387.511	25.6
387.72	107.52
387.93	123.9
388.14	25.6
388.35	50.18
388.56	121.85
388.769	91.13
388.979	82.94
389.189	41.98
389.399	56.32
389.609	56.32
389.818	205.82
390.028	44.03
390.238	109.57
390.447	74.75
390.657	72.7
390.867	25.6
391.076	74.75
391.286	138.24
391.496	39.94
391.705	148.48
391.915	150.53
392.125	99.33
392.334	160.77
392.544	121.85
392.753	62.46
392.963	-19.46
393.172	56.32
393.382	-3.07
393.591	222.2
393.801	101.37
394.01	248.83
394.22	134.14
394.429	31.74
394.639	150.53
394.848	117.76
395.058	138.24
395.267	46.08
395.477	160.77
395.686	136.19
395.895	154.62
396.105	203.77
396.314	132.09
396.524	121.85
396.733	84.99
396.942	205.82
397.152	99.33
397.361	211.96
397.57	91.13
397.78	111.61
397.989	146.43
398.198	175.1
398.407	91.13
398.617	173.05
398.826	60.42
399.035	125.95
399.244	152.57
399.453	101.37
399.663	99.33
399.872	154.62
400.081	35.84
400.29	140.29
400.499	89.09
400.708	166.91
400.917	105.47
401.127	64.51
401.336	44.03
401.545	179.2
401.754	205.82
401.963	125.95
402.172	111.61
402.381	148.48
402.59	109.57
402.799	164.86
403.008	193.53
403.217	128
403.426	117.76
403.635	115.71
403.844	121.85
404.053	197.63
404.262	201.72
404.471	222.2
404.68	177.15
404.888	91.13
405.097	78.85
405.306	130.05
405.515	203.77
405.724	138.24
405.933	207.87
406.142	203.77
406.35	343.03
406.559	162.81
406.768	226.3
406.977	328.7
407.185	293.88
407.394	271.36
407.603	117.76
407.812	254.97
408.02	300.03
408.229	199.68
408.438	257.02
408.646	283.64
408.855	234.49
409.064	267.26
409.272	226.3
409.481	318.46
409.69	240.64
409.898	271.36
410.107	297.98
410.315	394.23
410.524	242.68
410.733	369.66
410.941	271.36
411.15	431.1
411.358	383.99
411.567	424.95
411.775	396.28
411.984	467.96
412.192	508.92
412.401	465.91
412.609	517.11
412.818	586.74
413.026	529.4
413.234	564.22
413.443	506.87
413.651	566.26
413.86	570.36
414.068	715.77
414.276	717.81
414.485	660.47
414.693	721.91
414.901	687.09
415.11	730.1
415.318	697.33
415.526	678.9
415.734	812.02
415.943	769.01
416.151	889.84
416.359	781.3
416.567	855.03
416.776	930.8
416.984	945.14
417.192	953.33
417.4	1063.92
417.608	961.52
417.817	984.05
418.025	1055.73
418.233	1170.41
418.441	1151.98
418.649	1133.55
418.857	1254.38
419.065	1293.29
419.273	1229.81
419.481	1364.97
419.689	1401.83
419.897	1537
420.105	1418.22
420.313	1532.9
420.521	1663.97
420.729	1696.74
420.937	1604.58
421.145	1727.46
421.353	1872.87
421.561	1895.4
421.769	1913.83
421.977	1991.65
422.185	2053.09
422.393	2155.49
422.601	2272.22
422.809	2192.35
423.017	2319.32
423.224	2282.46
423.432	2391
423.64	2534.36
423.848	2735.06
424.056	2673.62
424.263	2814.93
424.471	2753.49
424.679	2894.8
424.887	2819.03
425.094	3050.45
425.302	3298.25
425.51	3210.19
425.718	3290.06
425.925	3234.77
426.133	3439.56
426.341	3726.28
426.548	3793.86
426.756	3883.97
426.964	3906.5
427.171	4129.73
427.379	4066.24
427.586	4189.12
427.794	4344.77
428.001	4551.61
428.209	4752.31
428.417	4721.59
428.624	5047.22
428.832	4967.35
429.039	5002.16
429.247	5137.33
429.454	5473.2
429.662	5782.44
429.869	5309.36
430.076	5702.57
430.284	5729.19
430.491	5936.04
430.699	6276
430.906	6267.81
431.114	6398.88
431.321	6792.09
431.528	6648.73
431.736	7267.22
431.943	7562.12
432.15	7226.26
432.358	7492.49
432.565	7887.75
432.772	7476.11
432.979	8168.32
433.187	8070.02
433.394	8276.87
433.601	9048.95
433.808	8962.94
434.016	8958.84
434.223	9137.01
434.43	9757.55
434.637	9544.56
434.844	10259.3
435.052	10308.45
435.259	10357.6
435.466	10472.29
435.673	10457.95
435.88	10804.06
436.087	11635.53
436.294	11584.34
436.501	11180.89
436.708	11529.04
436.915	11860.81
437.122	12440.39
437.329	12581.7
437.537	12874.56
437.743	13048.63
437.95	12663.61
438.157	13630.26
438.364	14144.3
438.571	13947.69
438.778	14045.99
438.985	15250.2
439.192	15180.57
439.399	15033.11
439.606	14973.72
439.813	15776.53
440.02	16782.08
440.227	16370.44
440.433	16118.54
440.64	16884.48
440.847	16519.94
441.054	16999.16
441.261	18492.13
441.467	17974
441.674	18471.65
441.881	18987.74
442.088	19016.41
442.294	18891.49
442.501	19260.12
442.708	19827.41
442.914	20298.44
443.121	21547.7
443.328	20603.59
443.534	22418.09
443.741	21549.75
443.948	21459.64
444.154	22823.59
444.361	22813.35
444.568	22614.69
444.774	22921.89
444.981	23212.7
445.187	23712.41
445.394	24828.55
445.6	24611.46
445.807	26804.84
446.013	25811.57
446.22	26323.57
446.426	27382.37
446.633	27591.26
446.839	28529.23
447.046	27239.01
447.252	28516.94
447.459	28942.92
447.665	28701.26
447.871	30003.77
448.078	31285.79
448.284	29553.21
448.491	30343.73
448.697	31562.27
448.903	32029.21
449.11	32121.37
449.316	31556.13
449.522	32528.91
449.728	33634.81
449.935	33421.83
450.141	33513.98
450.347	34568.69
450.553	33069.58
450.76	33489.41
450.966	34589.17
451.172	34236.92
451.378	35326.44
451.584	34404.85
451.791	35084.78
451.997	35068.39
452.203	35514.85
452.409	35731.93
452.615	35803.61
452.821	34591.22
453.027	34111.99
453.233	35768.8
453.44	34437.62
453.646	34484.72
453.852	34681.33
454.058	35346.92
454.264	34118.14
454.47	34728.43
454.676	33718.78
454.882	35609.06
455.088	32463.38
455.294	32930.31
455.5	32942.6
455.705	33413.63
455.911	32219.67
456.117	31638.05
456.323	31300.13
456.529	29545.02
456.735	31068.71
456.941	30216.75
457.147	29594.17
457.352	28633.68
457.558	28236.37
457.764	28672.59
457.97	27953.75
458.176	27419.23
458.381	27007.59
458.587	25901.68
458.793	26047.09
458.999	24504.97
459.204	26071.67
459.41	25674.36
459.616	23825.04
459.821	23863.96
460.027	23753.37
460.233	23597.72
460.438	22227.63
460.644	22389.42
460.85	21306.04
461.055	21256.89
461.261	20978.37
461.466	19391.19
461.672	18987.74
461.878	20226.76
462.083	18713.31
462.289	18561.76
462.494	18367.21
462.7	17601.27
462.905	17152.76
463.111	17756.91
463.316	17539.83
463.522	17437.43
463.727	17283.83
463.932	17249.02
464.138	17193.72
464.343	17302.26
464.549	16642.82
464.754	17281.78
464.959	17064.7
465.165	16855.81
465.37	16247.56
465.575	15880.97
465.781	16689.92
465.986	16456.45
466.191	16134.92
466.397	15467.28
466.602	15278.87
466.807	15498
467.012	15645.46
467.218	15373.08
467.423	15303.45
467.628	15231.77
467.833	15799.05
468.038	15516.44
468.244	14758.69
468.449	15231.77
468.654	14957.34
468.859	14926.62
469.064	14738.21
469.269	14392.1
469.474	14431.01
469.679	14541.6
469.885	14043.95
470.09	14340.9
470.295	14564.13
470.5	13904.68
470.705	14156.58
470.91	13884.2
471.115	13558.58
471.32	13796.14
471.525	13861.68
471.73	13579.06
471.935	13278.01
472.139	12901.18
472.344	13269.81
472.549	12956.47
472.754	12774.21
472.959	12725.05
473.164	12319.56
473.369	12139.33
473.574	12602.18
473.778	12446.53
473.983	12462.91
474.188	12217.16
474.393	11647.82
474.598	11889.48
474.802	11463.51
475.007	11639.63
475.212	11606.86
475.417	11277.14
475.621	11174.74
475.826	11262.8
476.031	10922.84
476.235	10931.03
476.44	11084.63
476.645	10713.95
476.849	10716
477.054	10675.04
477.259	10423.14
477.463	10478.43
477.668	10146.66
477.872	10312.55
478.077	10249.06
478.282	9857.9
478.486	9954.15
478.691	9782.12
478.895	9851.75
479.1	9761.64
479.304	9884.52
479.509	9401.2
479.713	9626.48
479.918	9329.52
480.122	9223.03
480.326	9466.74
480.531	9384.82
480.735	9368.43
480.94	9284.47
481.144	9390.96
481.348	9149.3
481.553	9120.63
481.757	9132.92
481.961	9290.61
482.166	9266.03
482.37	9220.98
482.574	8924.02
482.778	8928.12
482.983	9239.41
483.187	8999.8
483.391	9194.36
483.595	9046.9
483.8	9007.99
484.004	9147.25
484.208	9208.69
484.412	9040.76
484.616	8911.74
484.821	9028.47
485.025	8915.83
485.229	9159.54
485.433	9028.47
485.637	9069.43
485.841	9059.19
486.045	9057.14
486.249	9053.05
486.453	8942.46
486.657	9012.09
486.861	8858.49
487.065	8893.3
487.269	8801.15
487.473	8858.49
487.677	8817.53
487.881	9112.44
488.085	8921.98
488.289	8967.03
488.493	9206.64
488.697	9108.34
488.901	9180.02
489.105	9251.7
489.309	9026.42
489.512	9010.04
489.716	9257.84
489.92	9104.25
490.124	9153.4
490.328	9366.39
490.531	9182.07
490.735	9669.48
490.939	9223.03
491.143	9327.47
491.346	9362.29
491.55	9335.67
491.754	9470.83
491.958	9290.61
492.161	9503.6
492.365	9513.84
492.569	9509.74
492.772	9395.06
492.976	9659.24
493.18	9663.34
493.383	9804.65
493.587	9794.41
493.79	10175.33
493.994	9810.79
494.197	9911.14
494.401	10048.36
494.605	10023.78
494.808	10179.43
495.012	10163.04
495.215	10206.05
495.419	10503.01
495.622	10474.34
495.825	10310.5
496.029	10435.42
496.232	10707.8
496.436	10761.05
496.639	10922.84
496.843	10830.68
497.046	11225.94
497.249	11240.28
497.453	11107.16
497.656	11266.9
497.859	11178.84
498.063	11666.25
498.266	11793.23
498.469	11707.21
498.673	12036.94
498.876	12024.65
499.079	12151.62
499.282	12125
499.485	12544.83
499.689	12378.95
499.892	12589.89
500.095	12786.49
500.298	13089.59
500.501	12774.21
500.705	13226.81
500.908	13343.54
501.111	13310.77
501.314	13951.79
501.517	13419.32
501.72	13863.72
501.923	13833
502.126	14101.29
502.329	14428.96
502.532	14367.52
502.735	14557.99
502.938	14801.69
503.141	15049.5
503.344	15237.91
503.547	15323.93
503.75	15330.07
503.953	15655.7
504.156	15835.92
504.359	15725.33
504.562	15856.4
504.765	16077.58
504.968	16341.77
505.17	16597.76
505.373	16734.98
505.576	16829.18
505.779	16900.86
505.982	17212.15
506.185	17355.51
506.387	17445.62
506.59	17930.99
506.793	17963.76
506.996	17902.32
507.198	18451.17
507.401	18254.57
507.604	18596.58
507.807	18920.16
508.009	19239.64
508.212	19372.76
508.415	19370.71
508.617	19616.47
508.82	19753.68
509.022	19725.01
509.225	20030.16
509.428	20062.93
509.63	20511.43
509.833	20404.94
510.035	21263.04
510.238	20783.81
510.44	21068.48
510.643	21646.01
510.845	21547.7
511.048	21586.61
511.25	21893.81
511.453	22188.72
511.655	22753.96
511.858	22420.14
512.06	22760.1
512.262	22864.55
512.465	22801.06
512.667	23413.4
512.87	23472.79
513.072	23464.6
513.274	23675.54
513.477	24173.2
513.679	24089.23
513.881	24672.9
514.084	24842.88
514.286	24705.67
514.488	25037.44
514.69	25565.82
514.893	25541.24
515.095	25705.08
515.297	26227.31
515.499	25965.17
515.701	26147.44
515.904	26526.32
516.106	26710.63
516.308	27073.12
516.51	26798.7
516.712	27232.86
516.914	27707.99
517.116	28109.4
517.318	27966.04
517.52	28211.79
517.722	27902.55
517.925	28529.23
518.127	28541.52
518.329	28959.3
518.531	28529.23
518.733	29473.34
518.935	29413.95
519.136	29518.4
519.338	29858.36
519.54	30214.71
519.742	30464.56
519.944	30341.68
520.146	30954.02
520.348	30751.27
520.55	30997.03
520.752	30839.34
520.954	31660.57
521.155	31240.74
521.357	31924.76
521.559	31982.1
521.761	32317.97
521.963	31865.37
522.164	32238.1
522.366	32614.93
522.568	32832.01
522.77	32954.89
522.971	33104.39
523.173	33325.57
523.375	33460.74
523.576	33090.06
523.778	33196.55
523.98	34177.53
524.181	33884.67
524.383	34150.9
524.584	34058.74
524.786	34329.08
524.988	34394.61
525.189	34656.75
525.391	34497.01
525.592	35152.36
525.794	34673.13
525.995	35310.05
526.197	34808.3
526.398	34949.61
526.6	35391.97
526.801	35043.82
527.003	35682.78
527.204	35674.59
527.406	35768.8
527.607	35828.19
527.808	35762.65
528.01	35326.44
528.211	35817.95
528.412	36497.88
528.614	35908.06
528.815	36127.19
529.016	36536.79
529.218	35953.12
529.419	36094.43
529.62	36301.27
529.822	36250.07
530.023	36463.06
530.224	36534.74
530.425	36149.72
530.626	36342.23
530.828	36147.67
531.029	36544.98
531.23	36237.78
531.431	36243.93
531.632	36747.73
531.833	36221.4
532.035	36544.98
532.236	36596.18
532.437	36872.65
532.638	36387.28
532.839	36622.8
533.04	36690.38
533.241	36430.29
533.442	37128.65
533.643	36372.95
533.844	36483.54
534.045	36782.54
534.246	36782.54
534.447	36870.61
534.648	36282.84
534.849	36776.4
535.05	36258.26
535.251	36682.19
535.451	36600.27
535.652	37034.44
535.853	36719.06
536.054	36749.78
536.255	36446.68
536.456	36379.09
536.657	37169.61
536.857	36477.4
537.058	36571.6
537.259	36927.95
537.46	36606.42
537.66	36542.93
537.861	36579.79
538.062	36600.27
538.263	36770.25
538.463	36831.69
538.664	36630.99
538.865	36508.11
539.065	36729.3
539.266	36250.07
539.466	36921.8
539.667	36153.82
539.868	36952.52
540.068	36528.59
540.269	36479.44
540.469	36719.06
540.67	36409.81
540.87	36268.5
541.071	36372.95
541.271	36272.6
541.472	36360.66
541.672	36133.34
541.873	36350.42
542.073	36325.85
542.274	36884.94
542.474	36563.41
542.675	36112.86
542.875	36362.71
543.075	36469.2
543.276	35854.81
543.476	36551.12
543.676	36415.96
543.877	36424.15
544.077	36542.93
544.277	36030.94
544.478	36551.12
544.678	36262.36
544.878	36489.68
545.078	36434.39
545.279	35723.74
545.479	36045.27
545.679	36182.49
545.879	36198.87
546.079	36223.45
546.28	35764.7
546.48	35672.54
546.68	36012.51
546.88	36086.23
547.08	36166.1
547.28	35805.66
547.48	35924.44
547.68	36518.35
547.88	35760.61
548.081	36131.29
548.281	36137.43
548.481	35955.16
548.681	35989.98
548.881	36061.66
549.081	35998.17
549.28	35998.17
549.48	36059.61
549.68	35863
549.88	36303.32
550.08	35951.07
550.28	35797.47
550.48	36248.02
550.68	36444.63
550.88	35922.4
551.08	35916.25
551.279	36024.79
551.479	35813.85
551.679	35912.16
551.879	35903.96
552.079	35961.31
552.278	35731.93
552.478	35979.74
552.678	35832.29
552.878	35860.96
553.077	35822.05
553.277	35774.94
553.477	36176.34
553.676	35709.41
553.876	35776.99
554.076	35963.36
554.275	35531.23
554.475	35109.35
554.674	35914.2
554.874	35920.35
555.074	35570.15
555.273	36080.09
555.473	36086.23
555.672	35527.14
555.872	35609.06
556.071	35764.7
556.271	36037.08
556.47	35453.41
556.67	35426.79
556.869	35334.63
557.068	35471.84
557.268	35477.99
557.467	35553.76
557.667	35643.87
557.866	35666.4
558.065	35492.32
558.265	35090.92
558.464	35408.36
558.663	36026.84
558.863	34949.61
559.062	35672.54
559.261	35305.96
559.461	35420.64
559.66	35045.87
559.859	35365.35
560.058	35226.09
560.258	35166.7
560.457	35162.6
560.656	35416.55
560.855	35406.31
561.054	34980.33
561.253	35215.85
561.453	35310.05
561.652	35316.2
561.851	35297.77
562.05	35138.02
562.249	34611.7
562.448	35387.88
562.647	35064.3
562.846	35019.24
563.045	35144.17
563.244	34666.99
563.443	35133.93
563.642	34644.46
563.841	34830.83
564.04	34677.23
564.239	35207.65
564.438	34798.06
564.637	34988.52
564.836	34673.13
565.035	34501.11
565.234	35011.05
565.432	34707.95
565.631	34683.37
565.83	34761.2
566.029	34589.17
566.228	34623.98
566.427	34249.21
566.625	34241.01
566.824	34130.42
567.023	34478.58
567.222	34036.22
567.42	34916.84
567.619	34408.95
567.818	34224.63
568.016	34535.92
568.215	34777.58
568.414	34388.47
568.612	34415.09
568.811	33847.8
569.01	34241.01
569.208	33956.35
569.407	34341.36
569.605	34044.41
569.804	34314.74
570.002	34372.08
570.201	34224.63
570.4	34071.03
570.598	33706.49
570.797	33729.02
570.995	33915.39
571.193	33462.79
571.392	33851.9
571.59	33387.01
571.789	33636.86
571.987	33837.56
572.186	33755.64
572.384	33712.64
572.582	33778.17
572.781	33892.86
572.979	33139.21
573.177	33487.36
573.376	33368.58
573.574	33382.91
573.772	33219.08
573.971	33092.1
574.169	33290.76
574.367	33294.85
574.565	33384.96
574.763	33223.17
574.962	33372.67
575.16	32866.83
575.358	32918.03
575.556	32621.07
575.754	33210.89
575.952	32453.14
576.151	33147.4
576.349	32829.96
576.547	32580.11
576.745	32758.28
576.943	32758.28
577.141	32827.92
577.339	32737.8
577.537	32332.31
577.735	32408.08
577.933	31986.2
578.131	32823.82
578.329	32332.31
578.527	32016.92
578.725	32207.38
578.923	32215.57
579.121	32164.37
579.319	31736.35
579.516	32021.02
579.714	32444.94
579.912	32195.09
580.11	31791.64
580.308	31820.31
580.506	31982.1
580.704	31242.79
580.901	31777.31
581.099	31920.66
581.297	31404.58
581.495	31402.53
581.692	31572.51
581.89	31584.8
582.088	31713.82
582.285	31193.64
582.483	31275.55
582.681	31263.27
582.878	31382.05
583.076	30667.31
583.274	31296.03
583.471	30859.82
583.669	31062.57
583.866	30718.51
584.064	31093.29
584.262	30317.11
584.459	30972.46
584.657	30636.59
584.854	30773.8
585.052	30374.45
585.249	30906.92
585.447	30712.36
585.644	30304.82
585.841	30249.52
586.039	30501.42
586.236	30181.94
586.434	30222.9
586.631	30093.88
586.828	30143.03
587.026	30153.27
587.223	30196.28
587.42	29909.56
587.618	29817.4
587.815	29469.25
588.012	29633.08
588.21	29620.8
588.407	29964.85
588.604	29758.01
588.801	29260.35
588.999	29227.59
589.196	29651.52
589.393	29178.43
589.59	29510.21
589.787	29086.28
589.984	28873.29
590.182	28807.75
590.379	29033.03
590.576	29055.56
590.773	28908.1
590.97	28744.27
591.167	29035.08
591.364	28688.97
591.561	28793.42
591.758	28703.31
591.955	28805.7
592.152	28944.97
592.349	28357.2
592.546	28318.29
592.743	28729.93
592.94	28140.11
593.137	28271.18
593.334	28088.92
593.531	27894.36
593.727	27943.51
593.924	28203.6
594.121	27816.54
594.318	28314.19
594.515	27683.42
594.712	28105.3
594.908	27521.63
595.105	27658.84
595.302	27425.37
595.499	27714.14
595.696	27499.1
595.892	27294.3
596.089	27707.99
596.286	27703.9
596.482	27679.32
596.679	27304.54
596.876	27306.59
597.072	27105.89
597.269	27185.76
597.466	26688.1
597.662	26630.76
597.859	27202.14
598.055	26806.89
598.252	26974.82
598.448	26806.89
598.645	26835.56
598.841	26802.79
599.038	26581.61
599.234	26608.23
599.431	26219.12
599.627	26282.61
599.824	26661.48
600.02	26059.38
600.217	26137.2
600.413	26395.25
600.609	26149.49
600.806	26010.23
601.002	26210.93
601.198	25918.07
601.395	25606.78
601.591	25795.19
601.787	25920.12
601.984	25883.25
602.18	25973.36
602.376	25377.4
602.572	25428.6
602.769	25582.2
602.965	25250.43
603.161	25719.42
603.357	25209.47
603.553	25426.56
603.75	25188.99
603.946	25021.06
604.142	25107.07
604.338	24742.53
604.534	25000.58
604.73	24652.42
604.926	24984.19
605.122	24969.86
605.318	24689.29
605.514	24334.99
605.71	24668.81
605.906	24421
606.102	24601.22
606.298	24529.55
606.494	24400.52
606.69	24502.92
606.886	24623.75
607.082	24056.46
607.278	24410.76
607.474	24111.76
607.67	24525.45
607.866	23992.98
608.062	24459.91
608.257	24070.8
608.453	24058.51
608.649	24109.71
608.845	23966.35
609.041	23644.82
609.236	24146.58
609.432	23702.17
609.628	23851.67
609.824	23884.44
610.019	23485.08
610.215	23734.93
610.411	23818.9
610.606	23782.04
610.802	23542.42
610.998	23630.49
611.193	23583.38
611.389	23517.85
611.584	23620.25
611.78	23343.77
611.976	23562.9
612.171	23474.84
612.367	23325.34
612.562	23300.76
612.758	23257.76
612.953	23098.02
613.149	23376.54
613.344	23089.82
613.539	23696.02
613.735	23411.35
613.93	23237.28
614.126	23042.72
614.321	23024.29
614.517	23169.69
614.712	23190.17
614.907	22715.05
615.103	22948.51
615.298	22600.36
615.493	23194.27
615.688	22784.68
615.884	22987.43
616.079	22504.1
616.274	22846.12
616.47	22903.46
616.665	22530.73
616.86	22532.78
617.055	22182.57
617.25	22676.13
617.445	22602.41
617.641	22182.57
617.836	22815.4
618.031	22295.21
618.226	22434.47
618.421	22160.05
618.616	22330.03
618.811	22004.4
619.006	22198.96
619.201	21805.75
619.396	21938.87
619.591	21568.18
619.786	21639.86
619.981	21234.36
620.176	21899.95
620.371	21355.19
620.566	21631.67
620.761	21459.64
620.956	21285.56
621.151	20734.66
621.346	21263.04
621.541	21025.47
621.735	21267.13
621.93	20630.21
622.125	20728.52
622.32	20220.62
622.515	20482.76
622.709	20265.67
622.904	20316.87
623.099	20204.24
623.294	20335.31
623.488	19794.64
623.683	19749.59
623.878	19675.86
624.072	19845.84
624.267	19595.99
624.462	19651.28
624.656	19225.31
624.851	19567.32
625.046	19213.02
625.24	19086.04
625.435	19069.66
625.629	19055.33
625.824	18858.72
626.018	18860.77
626.213	18299.62
626.407	18621.16
626.602	18543.33
626.796	18283.24
626.991	18637.54
627.185	18211.56
627.38	17935.09
627.574	17914.61
627.768	18027.24
627.963	17947.37
628.157	17834.74
628.352	17832.69
628.546	17453.81
628.74	17742.58
628.935	17367.8
629.129	17412.85
629.323	17234.68
629.517	17033.98
629.712	17304.31
629.906	17097.47
630.1	16947.97
630.294	16929.53
630.489	16759.55
630.683	16786.18
630.877	16583.43
631.071	16616.19
631.265	16444.17
631.459	16292.62
631.653	16378.63
631.848	16476.93
632.042	16100.11
632.236	16237.32
632.43	16087.82
632.624	15913.74
632.818	15754
633.012	15655.7
633.206	15516.44
633.4	15684.37
633.594	15514.39
633.788	15282.97
633.982	15704.85
634.176	15590.16
634.369	15203.1
634.563	15055.64
634.757	15104.79
634.951	15061.79
635.145	15047.45
635.339	14969.63
635.533	14813.98
635.726	14721.82
635.92	14453.54
636.114	14529.31
636.308	14553.89
636.501	14568.23
636.695	14289.7
636.889	14252.84
637.083	14125.86
637.276	14084.91
637.47	14140.2
637.664	13968.17
637.857	14066.47
638.051	13914.92
638.244	13777.71
638.438	13654.83
638.632	13710.13
638.825	13558.58
639.019	13294.39
639.212	13280.05
639.406	13368.12
639.599	13359.92
639.793	13310.77
639.986	13128.5
640.18	13153.08
640.373	13069.11
640.567	12817.21
640.76	12841.79
640.954	12710.72
641.147	12718.91
641.34	12661.57
641.534	12626.75
641.727	12571.46
641.92	12546.88
642.114	12327.75
642.307	12602.18
642.5	12352.32
642.694	12153.67
642.887	12116.81
643.08	12268.36
643.273	11936.59
643.467	11899.72
643.66	11916.11
643.853	11717.45
644.046	11676.49
644.239	11627.34
644.432	11623.25
644.626	11584.34
644.819	11633.49
645.012	11266.9
645.205	11676.49
645.398	11137.88
645.591	11311.96
645.784	11268.95
645.977	11051.86
646.17	11285.33
646.363	10922.84
646.556	10994.52
646.749	10695.52
646.942	11101.01
647.135	10701.66
647.328	10634.08
647.521	10877.79
647.714	10556.25
647.907	10646.37
648.099	10445.66
648.292	10589.02
648.485	10437.47
648.678	10109.8
648.871	10226.53
649.064	10183.52
649.256	10206.05
649.449	10003.3
649.642	10152.81
649.835	9939.82
650.027	10099.56
650.22	10126.18
650.413	9788.27
650.605	9845.61
650.798	9825.13
650.991	9708.4
651.183	9665.39
651.376	9524.08
651.568	9425.78
651.761	9706.35
651.954	9659.24
652.146	9608.05
652.339	9399.15
652.531	9526.13
652.724	9200.5
652.916	9083.77
653.109	9067.38
653.301	9194.36
653.494	9196.4
653.686	9022.33
653.879	9225.08
654.071	9024.37
654.263	8954.74
654.456	8872.82
654.648	9012.09
654.84	8838.01
655.033	8866.68
655.225	8792.95
655.417	8663.93
655.61	8731.51
655.802	8496
655.994	8674.17
656.186	8514.43
656.379	8457.09
656.571	8256.39
656.763	8450.94
656.955	8115.08
657.148	8270.72
657.34	8340.35
657.532	8209.28
657.724	8086.4
657.916	8240
658.108	8158.08
658.3	7973.77
658.492	8115.08
658.684	7736.2
658.876	7920.52
659.068	7986.05
659.26	7809.93
659.452	7879.56
659.644	7791.5
659.836	7793.55
660.028	7793.55
660.22	7578.51
660.412	7584.65
660.604	7568.27
660.796	7474.06
660.988	7529.36
661.18	7365.52
661.372	7416.72
661.563	7560.08
661.755	7273.36
661.947	7365.52
662.139	7164.82
662.331	7248.79
662.522	7162.77
662.714	7191.44
662.906	7177.11
663.097	7185.3
663.289	6976.41
663.481	7154.58
663.673	7070.61
663.864	7017.36
664.056	6880.15
664.247	7027.6
664.439	6914.97
664.631	6751.13
664.822	7043.99
665.014	6851.48
665.205	6835.1
665.397	6724.51
665.588	6736.79
665.78	6654.87
665.971	6677.4
666.163	6611.87
666.354	6646.68
666.546	6509.47
666.737	6505.37
666.929	6566.81
667.12	6529.95
667.311	6544.28
667.503	6517.66
667.694	6435.74
667.885	6493.08
668.077	6339.49
668.268	6310.82
668.459	6271.9
668.651	6245.28
668.842	6194.08
669.033	6243.23
669.224	6200.23
669.416	6253.47
669.607	5974.95
669.798	6065.06
669.989	6212.51
670.18	6013.86
670.371	6073.25
670.563	5901.22
670.754	6153.12
670.945	5991.33
671.136	6015.91
671.327	6073.25
671.518	5950.37
671.709	5960.61
671.9	6044.58
672.091	5960.61
672.282	5813.16
672.473	5708.71
672.664	5919.65
672.855	5817.26
673.046	6024.1
673.237	5919.65
673.428	5637.03
673.619	5796.78
673.809	5798.82
674	5776.3
674.191	5749.67
674.382	5782.44
674.573	5745.58
674.764	5657.51
674.954	5655.47
675.145	5585.83
675.336	5577.64
675.527	5438.38
675.717	5745.58
675.908	5569.45
676.099	5561.26
676.289	5712.81
676.48	5516.2
676.671	5493.68
676.861	5536.68
677.052	5503.92
677.243	5489.58
677.433	5585.83
677.624	5602.22
677.814	5573.55
678.005	5417.9
678.195	5491.63
678.386	5487.53
678.576	5483.44
678.767	5465
678.957	5370.8
679.148	5487.53
679.338	5436.33
679.529	5475.24
679.719	5360.56
679.909	5563.31
680.1	5333.93
680.29	5489.58
680.481	5331.89
680.671	5497.77
680.861	5399.47
681.052	5211.06
681.242	5399.47
681.432	5374.89
681.622	5393.33
681.813	5202.86
682.003	5469.1
682.193	5211.06
682.383	5204.91
682.573	5321.65
682.764	5364.65
682.954	5303.22
683.144	5290.93
683.334	5354.41
683.524	5176.24
683.714	5274.54
683.904	5395.37
684.094	5362.61
684.284	5032.88
684.474	5352.37
684.664	5387.18
684.854	5204.91
685.044	5073.84
685.234	5163.95
685.424	5063.6
685.614	5104.56
685.804	5043.12
685.994	5229.49
686.184	5215.15
686.374	5151.67
686.564	5014.45
686.753	5227.44
686.943	4860.85
687.133	5059.51
687.323	5030.84
687.513	5018.55
687.702	4891.57
687.892	4948.92
688.082	4848.57
688.272	4852.66
688.461	4852.66
688.651	4858.81
688.841	4725.69
689.03	4750.26
689.22	4778.94
689.41	4879.29
689.599	4725.69
689.789	4776.89
689.979	4774.84
690.168	4754.36
690.358	4606.91
690.547	4602.81
690.737	4711.35
690.926	4639.67
691.116	4453.31
691.305	4717.5
691.495	4553.66
691.684	4449.21
691.874	4512.7
692.063	4602.81
692.252	4479.93
692.442	4514.75
692.631	4537.27
692.82	4447.16
693.01	4344.77
693.199	4551.61
693.388	4230.08
693.578	4457.4
693.767	4416.44
693.956	4240.32
694.146	4371.39
694.335	4316.09
694.524	4240.32
694.713	4301.76
694.902	4324.29
695.092	4307.9
695.281	4219.84
695.47	4365.25
695.659	4244.42
695.848	4123.59
696.037	4180.93
696.226	4301.76
696.415	4309.95
696.604	4371.39
696.793	4305.85
696.982	4250.56
697.171	4336.57
697.36	4230.08
697.549	4199.36
697.738	4111.3
697.927	4324.29
698.116	4182.98
698.305	4246.46
698.494	4338.62
698.683	4287.42
698.872	4238.27
699.061	4199.36
699.25	4295.61
699.438	4154.3
699.627	4119.49
699.816	4348.86
700.005	4275.13
700.193	4291.52
700.382	4191.17
700.571	4281.28
700.76	4238.27
700.948	4342.72
701.137	4283.33
701.326	4344.77
701.514	4207.55
701.703	4369.34
701.892	4236.22
702.08	4420.54
702.269	4309.95
702.457	4234.18
702.646	4223.94
702.834	4316.09
703.023	4240.32
703.212	4350.91
703.4	4207.55
703.589	4123.59
703.777	4076.48
703.965	4242.37
704.154	4277.18
704.342	4191.17
704.531	4133.82
704.719	4221.89
704.907	4350.91
705.096	4178.88
705.284	4195.26
705.472	4385.73
705.661	4234.18
705.849	4299.71
706.037	4287.42
706.226	4291.52
706.414	4322.24
706.602	4223.94
706.79	4395.96
706.979	4412.35
707.167	4307.9
707.355	4320.19
707.543	4381.63
707.731	4260.8
707.919	4219.84
708.107	4316.09
708.296	4344.77
708.484	4230.08
708.672	4410.3
708.86	4404.16
709.048	4180.93
709.236	4299.71
709.424	4436.92
709.612	4312
709.8	4203.46
709.988	4273.09
710.176	4434.88
710.364	4250.56
710.551	4330.43
710.739	4322.24
710.927	4398.01
711.115	4418.49
711.303	4428.73
711.491	4340.67
711.679	4328.38
711.866	4287.42
712.054	4275.13
712.242	4314.05
712.43	4404.16
712.617	4449.21
712.805	4287.42
712.993	4406.2
713.181	4297.66
713.368	4361.15
713.556	4455.36
713.744	4297.66
713.931	4559.8
714.119	4326.33
714.306	4361.15
714.494	4346.81
714.682	4461.5
714.869	4342.72
715.057	4400.06
715.244	4160.45
715.432	4355.01
715.619	4314.05
715.807	4504.51
715.994	4389.82
716.182	4447.16
716.369	4207.55
716.556	4459.45
716.744	4416.44
716.931	4289.47
717.119	4438.97
717.306	4357.05
717.493	4309.95
717.681	4502.46
717.868	4350.91
718.055	4389.82
718.242	4359.1
718.43	4479.93
718.617	4350.91
718.804	4332.48
718.991	4414.4
719.179	4340.67
719.366	4494.27
719.553	4400.06
719.74	4271.04
719.927	4234.18
720.114	4379.58
720.301	4344.77
720.488	4330.43
720.676	4301.76
720.863	4539.32
721.05	4334.53
721.237	4395.96
721.424	4547.51
721.611	4459.45
721.798	4279.23
721.985	4326.33
722.172	4400.06
722.358	4307.9
722.545	4410.3
722.732	4307.9
722.919	4346.81
723.106	4297.66
723.293	4221.89
723.48	4242.37
723.667	4303.81
723.853	4207.55
724.04	4312
724.227	4436.92
724.414	4309.95
724.6	4379.58
724.787	4334.53
724.974	4334.53
725.161	4133.82
725.347	4346.81
725.534	4307.9
725.72	4410.3
725.907	4305.85
726.094	4367.29
726.28	4355.01
726.467	4297.66
726.653	4350.91
726.84	4320.19
727.027	4488.12
727.213	4223.94
727.4	4367.29
727.586	4182.98
727.773	4295.61
727.959	4207.55
728.145	4467.64
728.332	4248.51
728.518	4279.23
728.705	4297.66
728.891	4144.06
729.077	4219.84
729.264	4297.66
729.45	4199.36
729.636	4365.25
729.823	4160.45
730.009	4445.12
730.195	4328.38
730.382	4350.91
730.568	4312
730.754	4090.82
730.94	4139.97
731.126	4299.71
731.313	4326.33
731.499	4289.47
731.685	4375.49
731.871	4273.09
732.057	4395.96
732.243	4117.44
732.429	4115.39
732.615	4228.03
732.801	4168.64
732.987	4129.73
733.173	4340.67
733.359	4285.37
733.545	4301.76
733.731	4176.83
733.917	4107.2
734.103	4279.23
734.289	4043.71
734.475	4035.52
734.661	4246.46
734.847	4150.21
735.033	4094.91
735.219	4279.23
735.404	4088.77
735.59	4051.91
735.776	4078.53
735.962	4058.05
736.148	4291.52
736.333	4047.81
736.519	4168.64
736.705	4017.09
736.89	3865.54
737.076	4033.47
737.262	4094.91
737.447	4010.95
737.633	3988.42
737.819	4111.3
738.004	3963.84
738.19	3947.46
738.375	4008.9
738.561	4031.43
738.747	4000.71
738.932	3789.77
739.118	4062.15
739.303	3972.04
739.489	4066.24
739.674	3957.7
739.859	3816.39
740.045	3967.94
740.23	3869.64
740.416	3808.2
740.601	3791.81
740.786	3949.51
740.972	3789.77
741.157	3855.3
741.342	3634.12
741.528	3711.94
741.713	3685.32
741.898	3818.44
742.084	3832.77
742.269	3746.76
742.454	3691.46
742.639	3574.73
742.824	3544.01
743.01	3775.43
743.195	3742.66
743.38	3718.09
743.565	3603.4
743.75	3660.74
743.935	3582.92
744.12	3582.92
744.305	3449.8
744.49	3453.9
744.675	3507.15
744.86	3300.3
745.045	3445.71
745.23	3468.24
745.415	3464.14
745.6	3589.07
745.785	3367.88
745.97	3281.87
746.155	3345.36
746.34	3478.47
746.525	3335.12
746.71	3376.08
746.895	3339.21
747.079	3267.53
747.264	3095.5
747.449	3251.15
747.634	3202
747.819	3171.28
748.003	3204.05
748.188	3177.42
748.373	3204.05
748.557	3189.71
748.742	3189.71
748.927	3093.46
749.111	3058.64
749.296	3009.49
749.481	3115.98
749.665	3136.46
749.85	2859.99
750.034	3066.83
750.219	2993.11
750.404	2925.52
750.588	2960.34
750.773	2909.14
750.957	2757.59
751.141	2800.6
751.326	2802.65
751.51	2755.54
751.695	2767.83
751.879	2792.41
752.064	2819.03
752.248	2741.21
752.432	2712.53
752.617	2702.29
752.801	2749.4
752.985	2565.08
753.17	2757.59
753.354	2591.7
753.538	2673.62
753.722	2544.6
753.907	2620.38
754.091	2526.17
754.275	2550.75
754.459	2507.74
754.643	2436.06
754.828	2579.42
755.012	2497.5
755.196	2403.29
755.38	2399.2
755.564	2431.96
755.748	2434.01
755.932	2386.91
756.116	2327.52
756.3	2376.67
756.484	2370.52
756.668	2364.38
756.852	2216.93
757.036	2225.12
757.22	2229.21
757.404	2167.77
757.588	2241.5
757.772	2288.61
757.956	2235.36
758.14	2276.32
758.323	2137.06
758.507	2135.01
758.691	2081.76
758.875	2098.14
759.059	2208.73
759.242	2124.77
759.426	2108.38
759.61	2096.1
759.794	2022.37
759.977	2104.29
760.161	2124.77
760.345	1979.36
760.528	2130.91
760.712	1897.44
760.895	2055.14
761.079	1979.36
761.263	1981.41
761.446	1934.31
761.63	1989.6
761.813	1872.87
761.997	1922.02
762.18	1858.53
762.364	1995.75
762.547	1860.58
762.731	1848.29
762.914	1938.4
763.098	1829.86
763.281	1825.76
763.464	1817.57
763.648	1790.95
763.831	1754.09
764.015	1801.19
764.198	1784.8
764.381	1846.24
764.564	1754.09
764.748	1686.5
764.931	1817.57
765.114	1811.43
765.297	1790.95
765.481	1688.55
765.664	1719.27
765.847	1717.22
766.03	1836
766.213	1678.31
766.397	1649.64
766.58	1686.5
766.763	1768.42
766.946	1706.98
767.129	1563.62
767.312	1684.45
767.495	1672.17
767.678	1608.68
767.861	1620.97
768.044	1627.11
768.227	1534.95
768.41	1700.84
768.593	1670.12
768.776	1614.82
768.959	1577.96
769.142	1686.5
769.324	1645.54
769.507	1590.25
769.69	1526.76
769.873	1590.25
770.056	1539.05
770.239	1606.63
770.421	1620.97
770.604	1461.23
770.787	1469.42
770.97	1522.66
771.152	1508.33
771.335	1547.24
771.518	1526.76
771.7	1586.15
771.883	1557.48
772.066	1534.95
772.248	1489.9
772.431	1475.56
772.613	1397.74
772.796	1500.14
772.978	1502.19
773.161	1502.19
773.343	1401.83
773.526	1379.31
773.708	1244.14
773.891	1483.75
774.073	1356.78
774.256	1336.3
774.438	1324.01
774.621	1334.25
774.803	1405.93
774.985	1326.06
775.168	1399.79
775.35	1313.77
775.532	1336.3
775.715	1182.7
775.897	1369.07
776.079	1190.89
776.261	1285.1
776.444	1244.14
776.626	1233.9
776.808	1178.61
776.99	1199.09
777.173	1227.76
777.355	1242.09
777.537	1248.24
777.719	1211.37
777.901	1178.61
778.083	1106.93
778.265	1086.45
778.447	1281
778.629	1158.13
778.811	1125.36
778.993	1135.6
779.175	1139.69
779.357	1031.15
779.539	1111.02
779.721	1051.63
779.903	1160.17
780.085	984.05
780.267	1166.32
780.449	1000.43
780.631	1061.87
780.812	1068.02
780.994	1029.1
781.176	1133.55
781.358	932.85
781.54	1053.68
781.721	1039.34
781.903	1078.26
782.085	984.05
782.267	1020.91
782.448	861.17
782.63	932.85
782.812	998.38
782.993	982
783.175	912.37
783.357	912.37
783.538	943.09
783.72	869.36
783.901	846.84
784.083	934.9
784.264	809.97
784.446	836.6
784.627	818.16
784.809	914.42
784.99	891.89
785.172	963.57
785.353	832.5
785.535	822.26
785.716	795.64
785.897	836.6
786.079	812.02
786.26	803.83
786.441	859.12
786.623	820.21
786.804	773.11
786.985	728.05
787.167	760.82
787.348	676.85
787.529	744.44
787.71	809.97
787.891	803.83
788.073	748.53
788.254	662.52
788.435	721.91
788.616	750.58
788.797	695.29
788.978	642.04
789.159	687.09
789.34	721.91
789.522	699.38
789.703	697.33
789.884	717.81
790.065	633.85
790.246	750.58
790.427	707.57
790.607	713.72
790.788	662.52
790.969	648.18
791.15	668.66
791.331	609.27
791.512	629.75
791.693	642.04
791.874	609.27
792.054	789.49
792.235	646.13
792.416	525.3
792.597	572.41
792.778	615.41
792.958	627.7
793.139	644.09
793.32	627.7
793.5	564.22
793.681	596.98
793.862	672.76
794.042	572.41
794.223	502.78
794.404	613.37
794.584	617.46
794.765	590.84
794.945	537.59
795.126	590.84
795.306	535.54
795.487	519.16
795.667	576.5
795.848	545.78
796.028	416.76
796.209	553.98
796.389	525.3
796.57	486.39
796.75	506.87
796.93	480.25
797.111	570.36
797.291	498.68
797.471	560.12
797.652	553.98
797.832	406.52
798.012	523.26
798.192	355.32
798.373	482.3
798.553	476.15
798.733	535.54
798.913	533.5
799.093	541.69
799.274	515.06
799.454	513.02
799.634	476.15
799.814	551.93
799.994	447.48
800.174	480.25
800.354	449.53
800.534	332.79
800.714	492.54
800.894	369.66
801.074	359.42
801.254	439.29
801.434	451.58
801.614	476.15
801.794	336.89
801.974	1362.92
802.154	435.19
802.334	465.91
802.514	424.95
802.693	291.84
802.873	367.61
803.053	451.58
803.233	379.9
803.413	502.78
803.592	359.42
803.772	398.33
803.952	386.04
804.131	418.81
804.311	406.52
804.491	383.99
804.67	345.08
804.85	367.61
805.03	336.89
805.209	429.05
805.389	328.7
805.568	375.8
805.748	338.94
805.928	398.33
806.107	336.89
806.287	398.33
806.466	427
806.646	328.7
806.825	349.18
807.004	365.56
807.184	349.18
807.363	373.75
807.543	355.32
807.722	340.99
807.901	381.95
808.081	349.18
808.26	228.35
808.439	269.31
808.619	371.71
808.798	357.37
808.977	326.65
809.156	330.75
809.336	283.64
809.515	340.99
809.694	306.17
809.873	318.46
810.052	340.99
810.231	359.42
810.411	297.98
810.59	338.94
810.769	353.27
810.948	267.26
811.127	300.03
811.306	281.6
811.485	314.36
811.664	402.43
811.843	347.13
812.022	343.03
812.201	297.98
812.38	306.17
812.559	297.98
812.737	347.13
812.916	277.5
813.095	287.74
813.274	402.43
813.453	351.23
813.632	320.51
813.811	312.32
813.989	181.25
814.168	259.07
814.347	257.02
814.526	295.93
814.704	293.88
814.883	287.74
815.062	177.15
815.24	351.23
815.419	302.08
815.598	254.97
815.776	205.82
815.955	211.96
816.133	209.92
816.312	306.17
816.49	289.79
816.669	302.08
816.847	132.09
817.026	312.32
817.204	207.87
817.383	302.08
817.561	248.83
817.74	312.32
817.918	205.82
818.097	250.88
818.275	164.86
818.453	269.31
818.632	322.56
818.81	199.68
818.988	187.39
819.167	205.82
819.345	214.01
819.523	156.67
819.701	201.72
819.879	211.96
820.058	222.2
820.236	211.96
820.414	257.02
820.592	195.58
820.77	226.3
820.948	230.4
821.127	228.35
821.305	191.49
821.483	203.77
821.661	216.06
821.839	261.12
822.017	162.81
822.195	187.39
822.373	250.88
822.551	177.15
822.729	287.74
822.907	148.48
823.085	201.72
823.262	154.62
823.44	132.09
823.618	154.62
823.796	216.06
823.974	209.92
824.152	189.44
824.329	236.54
824.507	138.24
824.685	183.29
824.863	183.29
825.04	195.58
825.218	228.35
825.396	195.58
825.574	132.09
825.751	236.54
825.929	168.96
826.107	70.65
826.284	273.4
826.462	232.44
826.639	78.85
826.817	179.2
826.994	195.58
827.172	164.86
827.349	230.4
827.527	230.4
827.704	183.29
827.882	216.06
828.059	72.7
828.237	175.1
828.414	183.29
828.591	93.18
828.769	205.82
828.946	87.04
829.124	191.49
829.301	320.51
829.478	142.33
829.655	175.1
829.833	111.61
830.01	115.71
830.187	121.85
830.364	160.77
830.542	101.37
830.719	201.72
830.896	248.83
831.073	111.61
831.25	197.63
831.427	230.4
831.604	95.23
831.782	15.36
831.959	197.63
832.136	179.2
832.313	136.19
832.49	117.76
832.667	132.09
832.844	97.28
833.021	230.4
833.198	132.09
833.374	130.05
833.551	152.57
833.728	117.76
833.905	148.48
834.082	130.05
834.259	109.57
834.436	195.58
834.612	87.04
834.789	222.2
834.966	140.29
835.143	171.01
835.319	87.04
835.496	158.72
835.673	193.53
835.85	142.33
836.026	70.65
836.203	25.6
836.38	171.01
836.556	164.86
836.733	87.04
836.909	218.11
837.086	138.24
837.262	130.05
837.439	121.85
837.616	39.94
837.792	150.53
837.968	113.66
838.145	-27.65
838.321	64.51
838.498	132.09
838.674	72.7
838.851	144.38
839.027	154.62
839.203	101.37
839.38	160.77
839.556	150.53
839.732	226.3
839.909	58.37
840.085	93.18
840.261	101.37
840.437	64.51
840.614	84.99
840.79	109.57
840.966	84.99
841.142	123.9
841.318	121.85
841.494	101.37
841.671	132.09
841.847	117.76
842.023	113.66
842.199	132.09
842.375	80.89
842.551	97.28
842.727	50.18
842.903	164.86
843.079	91.13
843.255	181.25
843.431	70.65
843.607	171.01
843.783	-31.74
843.959	138.24
844.134	39.94
844.31	123.9
844.486	60.42
844.662	87.04
844.838	146.43
845.013	171.01
845.189	95.23
845.365	142.33
845.541	56.32
845.716	109.57
845.892	140.29
846.068	76.8
846.244	121.85
846.419	132.09
846.595	84.99
846.77	128
846.946	91.13
847.122	134.14
847.297	35.84
847.473	181.25
847.648	95.23
847.824	156.67
847.999	19.46
848.175	72.7
848.35	89.09
848.526	111.61
848.701	185.34
848.876	89.09
849.052	115.71
849.227	132.09
849.403	128
849.578	60.42
849.753	80.89
849.929	41.98
850.104	15.36
850.279	3.07
850.454	130.05
850.63	72.7
850.805	50.18
850.98	99.33
851.155	58.37
851.33	113.66
851.505	-27.65
851.681	115.71
851.856	78.85
852.031	162.81
852.206	82.94
852.381	35.84
852.556	33.79
852.731	50.18
852.906	111.61
853.081	37.89
853.256	136.19
853.431	105.47
853.606	64.51
853.781	7.17
853.956	-3.07
854.131	70.65
854.305	35.84
854.48	101.37
854.655	91.13
854.83	-7.17
855.005	74.75
855.18	103.42
855.354	111.61
855.529	64.51
855.704	25.6
855.879	84.99
856.053	-58.37
856.228	105.47
856.403	33.79
856.577	31.74
856.752	-48.13
856.926	33.79
857.101	11.26
857.276	64.51
857.45	-3.07
857.625	148.48
857.799	80.89
857.974	148.48
858.148	50.18
858.323	72.7
858.497	31.74
858.672	105.47
858.846	35.84
859.02	87.04
859.195	62.46
859.369	31.74
859.543	115.71
859.718	87.04
859.892	72.7
860.066	123.9
860.241	21.5
860.415	-5.12
860.589	21.5
860.763	72.7
860.938	23.55
861.112	52.22
861.286	19.46
861.46	7.17
861.634	50.18
861.808	91.13
861.982	29.7
862.157	54.27
862.331	31.74
862.505	-5.12
862.679	23.55
862.853	68.61
863.027	44.03
863.201	125.95
863.375	7.17
863.549	84.99
863.722	103.42
863.896	78.85
864.07	15.36
864.244	72.7
864.418	-3.07
864.592	37.89
864.766	56.32
864.939	91.13
865.113	-64.51
865.287	134.14
865.461	13.31
865.634	58.37
865.808	31.74
865.982	74.75
866.156	64.51
866.329	7.17
866.503	33.79
866.676	74.75
866.85	41.98
867.024	50.18
867.197	78.85
867.371	74.75
867.544	33.79
867.718	13.31
867.891	87.04
868.065	13.31
868.238	64.51
868.412	89.09
868.585	56.32
868.759	-3.07
868.932	25.6
869.105	66.56
869.279	70.65
869.452	13.31
869.625	48.13
869.799	39.94
869.972	35.84
870.145	25.6
870.319	58.37
870.492	31.74
870.665	54.27
870.838	31.74
871.011	-37.89
871.185	58.37
871.358	48.13
871.531	46.08
871.704	-11.26
871.877	35.84
872.05	99.33
872.223	-82.94
872.396	39.94
872.569	132.09
872.742	-39.94
872.915	76.8
873.088	-13.31
873.261	31.74
873.434	99.33
873.607	58.37
873.78	76.8
873.953	-54.27
874.126	31.74
874.299	70.65
874.471	-52.22
874.644	39.94
874.817	35.84
874.99	140.29
875.163	17.41
875.335	50.18
875.508	-5.12
875.681	119.81
875.853	-1.02
876.026	115.71
876.199	62.46
876.371	-37.89
876.544	66.56
876.717	27.65
876.889	60.42
877.062	35.84
877.234	58.37
877.407	15.36
877.579	48.13
877.752	52.22
877.924	27.65
878.097	13.31
878.269	50.18
878.442	70.65
878.614	17.41
878.786	84.99
878.959	1.02
879.131	84.99
879.303	-29.7
879.476	35.84
879.648	64.51
879.82	15.36
879.993	35.84
880.165	74.75
880.337	-21.5
880.509	99.33
880.681	-29.7
880.854	23.55
881.026	80.89
881.198	123.9
881.37	-46.08
881.542	87.04
881.714	87.04
881.886	-3.07
882.058	33.79
882.23	93.18
882.402	29.7
882.574	52.22
882.746	121.85
882.918	82.94
883.09	72.7
883.262	9.22
883.434	25.6
883.606	101.37
883.778	21.5
883.95	121.85
884.122	-74.75
884.293	64.51
884.465	52.22
884.637	107.52
884.809	46.08
884.98	41.98
885.152	41.98
885.324	91.13
885.496	-52.22
885.667	7.17
885.839	1.02
886.011	64.51
886.182	58.37
886.354	-15.36
886.525	-54.27
886.697	117.76
886.869	29.7
887.04	9.22
887.212	56.32
887.383	175.1
887.555	119.81
887.726	76.8
887.897	-27.65
888.069	68.61
888.24	87.04
888.412	72.7
888.583	27.65
888.754	-7.17
888.926	-70.65
889.097	-3.07
889.268	27.65
889.44	56.32
889.611	11.26
889.782	-50.18
889.953	13.31
890.125	82.94
890.296	-11.26
890.467	31.74
890.638	115.71
890.809	-13.31
890.98	62.46
891.151	29.7
891.323	21.5
891.494	39.94
891.665	31.74
891.836	9.22
892.007	134.14
892.178	-17.41
892.349	56.32
892.52	21.5
892.691	-41.98
892.862	19.46
893.032	48.13
893.203	23.55
893.374	93.18
893.545	62.46
893.716	23.55
893.887	62.46
894.057	-7.17
894.228	13.31
894.399	3.07
894.57	15.36
894.74	76.8
894.911	44.03
895.082	80.89
895.253	-9.22
895.423	37.89
895.594	50.18
895.764	-3.07
895.935	-37.89
896.106	13.31
896.276	1.02
896.447	74.75
896.617	-31.74
896.788	-31.74
896.958	-31.74
897.129	-119.81
897.299	54.27
897.47	68.61
897.64	56.32
897.81	37.89
897.981	56.32
898.151	13.31
898.322	29.7
898.492	101.37
898.662	-3.07
898.832	-68.61
899.003	64.51
899.173	-9.22
899.343	-35.84
899.513	13.31
