Data from USB4F104151__76__12-12-48-252.txt Node

Date: Fri Mar 14 12:12:48 EDT 2025
User: louis
Spectrometer: USB4F10415
Trigger mode: 4
Integration Time (sec): 5.000000E-2
Scans to average: 1
Electric dark correction enabled: true
Nonlinearity correction enabled: false
Boxcar width: 0
XAxis mode: Wavelengths
Number of Pixels in Spectrum: 3648
>>>>>Begin Spectral Data<<<<<
178.204	-212.31
178.424	-212.31
178.644	-212.31
178.864	-175.44
179.084	-208.21
179.304	4.78
179.524	-30.04
179.744	21.16
179.964	29.35
180.184	23.21
180.404	-17.75
180.624	-17.75
180.844	-17.75
181.064	-40.28
181.283	62.12
181.503	-48.47
181.723	31.4
181.943	-19.8
182.163	152.23
182.383	-3.41
182.602	19.11
182.822	78.51
183.042	41.64
183.262	37.55
183.482	-21.84
183.701	-13.65
183.921	25.26
184.141	-21.84
184.361	131.75
184.58	49.83
184.8	6.83
185.02	29.35
185.239	41.64
185.459	23.21
185.679	82.6
185.898	-71
186.118	80.55
186.338	31.4
186.557	6.83
186.777	-13.65
186.997	29.35
187.216	2.73
187.436	213.67
187.655	68.27
187.875	113.32
188.095	-32.08
188.314	121.51
188.534	88.75
188.753	-154.96
188.973	21.16
189.192	133.8
189.412	-9.56
189.631	35.5
189.851	-30.04
190.07	94.89
190.29	21.16
190.509	31.4
190.729	74.41
190.948	82.6
191.168	205.48
191.387	60.07
191.607	-7.51
191.826	152.23
192.045	2.73
192.265	0.68
192.484	15.02
192.704	43.69
192.923	-21.84
193.142	133.8
193.362	8.87
193.581	43.69
193.8	92.84
194.02	117.42
194.239	6.83
194.458	35.5
194.678	-5.46
194.897	53.93
195.116	-13.65
195.335	47.79
195.555	60.07
195.774	45.74
195.993	37.55
196.212	66.22
196.432	35.5
196.651	-68.95
196.87	45.74
197.089	131.75
197.308	70.31
197.528	60.07
197.747	-11.61
197.966	6.83
198.185	105.13
198.404	8.87
198.623	43.69
198.842	19.11
199.062	148.14
199.281	27.31
199.5	53.93
199.719	55.98
199.938	141.99
200.157	127.66
200.376	84.65
200.595	185
200.814	-15.7
201.033	45.74
201.252	51.88
201.471	19.11
201.69	111.27
201.909	72.36
202.128	84.65
202.347	-3.41
202.566	21.16
202.785	-46.42
203.004	-5.46
203.223	146.09
203.442	72.36
203.661	39.59
203.879	70.31
204.098	55.98
204.317	25.26
204.536	154.28
204.755	39.59
204.974	-3.41
205.193	-23.89
205.411	109.23
205.63	55.98
205.849	47.79
206.068	49.83
206.287	78.51
206.505	-32.08
206.724	-3.41
206.943	8.87
207.162	84.65
207.381	113.32
207.599	4.78
207.818	17.07
208.037	-62.8
208.255	55.98
208.474	-7.51
208.693	19.11
208.911	29.35
209.13	33.45
209.349	98.99
209.567	39.59
209.786	119.46
210.005	49.83
210.223	31.4
210.442	49.83
210.661	80.55
210.879	49.83
211.098	-13.65
211.316	53.93
211.535	53.93
211.753	-23.89
211.972	39.59
212.191	-32.08
212.409	6.83
212.628	27.31
212.846	-42.32
213.065	8.87
213.283	98.99
213.502	111.27
213.72	62.12
213.938	103.08
214.157	-1.37
214.375	39.59
214.594	43.69
214.812	27.31
215.031	-58.71
215.249	51.88
215.467	98.99
215.686	55.98
215.904	80.55
216.122	-30.04
216.341	62.12
216.559	15.02
216.778	58.03
216.996	58.03
217.214	-5.46
217.432	4.78
217.651	-32.08
217.869	60.07
218.087	31.4
218.306	41.64
218.524	90.79
218.742	-11.61
218.96	17.07
219.179	64.17
219.397	-27.99
219.615	105.13
219.833	72.36
220.051	47.79
220.27	115.37
220.488	29.35
220.706	66.22
220.924	141.99
221.142	41.64
221.36	107.18
221.578	90.79
221.796	41.64
222.015	15.02
222.233	74.41
222.451	78.51
222.669	8.87
222.887	58.03
223.105	8.87
223.323	23.21
223.541	49.83
223.759	25.26
223.977	-56.66
224.195	92.84
224.413	82.6
224.631	-3.41
224.849	31.4
225.067	162.47
225.285	21.16
225.503	107.18
225.721	-27.99
225.939	92.84
226.157	51.88
226.375	197.29
226.592	-75.09
226.81	133.8
227.028	58.03
227.246	68.27
227.464	55.98
227.682	103.08
227.9	15.02
228.117	10.92
228.335	55.98
228.553	49.83
228.771	55.98
228.989	-23.89
229.206	37.55
229.424	19.11
229.642	49.83
229.86	23.21
230.077	47.79
230.295	21.16
230.513	74.41
230.731	-44.37
230.948	101.03
231.166	139.94
231.384	-11.61
231.601	35.5
231.819	94.89
232.037	33.45
232.254	60.07
232.472	92.84
232.689	70.31
232.907	27.31
233.125	45.74
233.342	-3.41
233.56	27.31
233.777	84.65
233.995	58.03
234.213	62.12
234.43	84.65
234.648	35.5
234.865	10.92
235.083	64.17
235.3	29.35
235.518	43.69
235.735	103.08
235.953	6.83
236.17	8.87
236.388	-44.37
236.605	125.61
236.822	76.46
237.04	12.97
237.257	-19.8
237.475	27.31
237.692	33.45
237.909	74.41
238.127	53.93
238.344	51.88
238.562	21.16
238.779	-7.51
238.996	-15.7
239.214	103.08
239.431	66.22
239.648	37.55
239.865	8.87
240.083	37.55
240.3	66.22
240.517	43.69
240.735	37.55
240.952	78.51
241.169	58.03
241.386	45.74
241.603	49.83
241.821	-71
242.038	72.36
242.255	47.79
242.472	-50.52
242.689	66.22
242.907	105.13
243.124	25.26
243.341	88.75
243.558	84.65
243.775	51.88
243.992	8.87
244.209	39.59
244.426	70.31
244.643	43.69
244.86	53.93
245.078	-30.04
245.295	72.36
245.512	-17.75
245.729	19.11
245.946	23.21
246.163	70.31
246.38	-23.89
246.597	76.46
246.814	70.31
247.031	53.93
247.248	84.65
247.464	51.88
247.681	-25.94
247.898	19.11
248.115	90.79
248.332	45.74
248.549	82.6
248.766	88.75
248.983	-30.04
249.2	-40.28
249.417	62.12
249.633	8.87
249.85	4.78
250.067	35.5
250.284	8.87
250.501	19.11
250.717	72.36
250.934	31.4
251.151	39.59
251.368	17.07
251.585	-9.56
251.801	76.46
252.018	-32.08
252.235	4.78
252.451	-32.08
252.668	58.03
252.885	121.51
253.102	10.92
253.318	27.31
253.535	45.74
253.752	8.87
253.968	19.11
254.185	8.87
254.401	6.83
254.618	121.51
254.835	60.07
255.051	101.03
255.268	29.35
255.484	6.83
255.701	72.36
255.917	10.92
256.134	15.02
256.351	115.37
256.567	4.78
256.784	-48.47
257	-21.84
257.217	35.5
257.433	45.74
257.65	27.31
257.866	47.79
258.082	4.78
258.299	-36.18
258.515	80.55
258.732	96.94
258.948	4.78
259.165	10.92
259.381	-56.66
259.597	82.6
259.814	15.02
260.03	29.35
260.246	-13.65
260.463	64.17
260.679	107.18
260.895	115.37
261.112	58.03
261.328	86.7
261.544	25.26
261.761	70.31
261.977	15.02
262.193	31.4
262.409	29.35
262.626	66.22
262.842	31.4
263.058	-7.51
263.274	123.56
263.49	15.02
263.707	21.16
263.923	60.07
264.139	-46.42
264.355	90.79
264.571	141.99
264.787	-9.56
265.004	92.84
265.22	19.11
265.436	15.02
265.652	-21.84
265.868	43.69
266.084	-34.13
266.3	6.83
266.516	-25.94
266.732	31.4
266.948	37.55
267.164	-36.18
267.38	70.31
267.596	58.03
267.812	111.27
268.028	21.16
268.244	-9.56
268.46	0.68
268.676	-3.41
268.892	55.98
269.108	-44.37
269.324	51.88
269.54	-27.99
269.756	94.89
269.972	0.68
270.188	47.79
270.403	-5.46
270.619	-15.7
270.835	23.21
271.051	76.46
271.267	62.12
271.483	-3.41
271.698	0.68
271.914	19.11
272.13	29.35
272.346	6.83
272.562	88.75
272.777	39.59
272.993	8.87
273.209	10.92
273.425	82.6
273.64	-62.8
273.856	111.27
274.072	-15.7
274.287	-5.46
274.503	109.23
274.719	47.79
274.934	51.88
275.15	35.5
275.366	0.68
275.581	35.5
275.797	49.83
276.012	10.92
276.228	25.26
276.444	103.08
276.659	135.85
276.875	0.68
277.09	74.41
277.306	31.4
277.521	51.88
277.737	55.98
277.952	101.03
278.168	90.79
278.383	29.35
278.599	31.4
278.814	80.55
279.03	19.11
279.245	41.64
279.461	86.7
279.676	51.88
279.892	21.16
280.107	4.78
280.322	-17.75
280.538	25.26
280.753	35.5
280.969	80.55
281.184	86.7
281.399	123.56
281.615	76.46
281.83	68.27
282.045	-3.41
282.26	51.88
282.476	84.65
282.691	76.46
282.906	21.16
283.122	70.31
283.337	101.03
283.552	47.79
283.767	68.27
283.983	88.75
284.198	80.55
284.413	-17.75
284.628	6.83
284.843	60.07
285.058	103.08
285.274	17.07
285.489	35.5
285.704	162.47
285.919	-50.52
286.134	29.35
286.349	-23.89
286.564	-19.8
286.779	152.23
286.995	12.97
287.21	-48.47
287.425	49.83
287.64	27.31
287.855	98.99
288.07	6.83
288.285	-7.51
288.5	72.36
288.715	49.83
288.93	-25.94
289.145	88.75
289.36	101.03
289.575	25.26
289.79	-17.75
290.004	31.4
290.219	60.07
290.434	133.8
290.649	4.78
290.864	29.35
291.079	-9.56
291.294	31.4
291.509	-11.61
291.724	37.55
291.938	8.87
292.153	121.51
292.368	115.37
292.583	39.59
292.798	41.64
293.012	39.59
293.227	-1.37
293.442	-7.51
293.657	121.51
293.871	76.46
294.086	35.5
294.301	84.65
294.516	82.6
294.73	43.69
294.945	-3.41
295.16	58.03
295.374	92.84
295.589	25.26
295.804	-17.75
296.018	60.07
296.233	55.98
296.447	80.55
296.662	-73.04
296.877	137.9
297.091	78.51
297.306	66.22
297.52	-19.8
297.735	72.36
297.949	-11.61
298.164	98.99
298.378	19.11
298.593	17.07
298.807	-7.51
299.022	82.6
299.236	94.89
299.451	4.78
299.665	45.74
299.88	41.64
300.094	0.68
300.309	-7.51
300.523	103.08
300.737	15.02
300.952	58.03
301.166	23.21
301.381	-21.84
301.595	-7.51
301.809	45.74
302.024	-19.8
302.238	15.02
302.452	45.74
302.667	19.11
302.881	111.27
303.095	107.18
303.309	105.13
303.524	6.83
303.738	29.35
303.952	43.69
304.166	90.79
304.381	-34.13
304.595	146.09
304.809	-48.47
305.023	117.42
305.237	-30.04
305.452	55.98
305.666	-15.7
305.88	72.36
306.094	66.22
306.308	39.59
306.522	101.03
306.736	82.6
306.95	84.65
307.164	-58.71
307.379	-15.7
307.593	121.51
307.807	101.03
308.021	19.11
308.235	74.41
308.449	-56.66
308.663	43.69
308.877	129.7
309.091	-3.41
309.305	35.5
309.519	-40.28
309.733	17.07
309.947	-46.42
310.161	39.59
310.374	127.66
310.588	133.8
310.802	-13.65
311.016	-19.8
311.23	55.98
311.444	-38.23
311.658	17.07
311.872	49.83
312.085	0.68
312.299	123.56
312.513	6.83
312.727	6.83
312.941	41.64
313.154	90.79
313.368	25.26
313.582	62.12
313.796	35.5
314.009	47.79
314.223	84.65
314.437	45.74
314.651	29.35
314.864	-23.89
315.078	2.73
315.292	-7.51
315.505	33.45
315.719	25.26
315.933	76.46
316.146	-23.89
316.36	-11.61
316.573	82.6
316.787	33.45
317.001	82.6
317.214	2.73
317.428	-9.56
317.641	-42.32
317.855	58.03
318.068	-11.61
318.282	8.87
318.495	98.99
318.709	58.03
318.922	66.22
319.136	58.03
319.349	80.55
319.563	15.02
319.776	43.69
319.99	31.4
320.203	12.97
320.417	-1.37
320.63	29.35
320.843	121.51
321.057	17.07
321.27	53.93
321.483	21.16
321.697	86.7
321.91	25.26
322.124	68.27
322.337	53.93
322.55	10.92
322.763	80.55
322.977	15.02
323.19	66.22
323.403	35.5
323.617	55.98
323.83	6.83
324.043	-1.37
324.256	90.79
324.469	-7.51
324.683	31.4
324.896	60.07
325.109	72.36
325.322	-13.65
325.535	133.8
325.748	109.23
325.962	-3.41
326.175	25.26
326.388	123.56
326.601	127.66
326.814	41.64
327.027	4.78
327.24	135.85
327.453	-52.56
327.666	82.6
327.879	94.89
328.092	164.52
328.305	62.12
328.518	-21.84
328.731	12.97
328.944	80.55
329.157	6.83
329.37	35.5
329.583	45.74
329.796	146.09
330.009	-50.52
330.222	31.4
330.435	78.51
330.648	35.5
330.861	51.88
331.073	66.22
331.286	66.22
331.499	94.89
331.712	-30.04
331.925	33.45
332.138	49.83
332.35	70.31
332.563	21.16
332.776	98.99
332.989	43.69
333.202	64.17
333.414	-13.65
333.627	33.45
333.84	2.73
334.053	80.55
334.265	4.78
334.478	12.97
334.691	60.07
334.903	8.87
335.116	47.79
335.329	80.55
335.541	41.64
335.754	146.09
335.966	15.02
336.179	47.79
336.392	58.03
336.604	35.5
336.817	66.22
337.029	113.32
337.242	47.79
337.454	60.07
337.667	53.93
337.88	68.27
338.092	60.07
338.305	45.74
338.517	-15.7
338.729	60.07
338.942	96.94
339.154	-46.42
339.367	-118.1
339.579	15.02
339.792	37.55
340.004	64.17
340.217	15.02
340.429	125.61
340.641	10.92
340.854	51.88
341.066	76.46
341.278	47.79
341.491	55.98
341.703	43.69
341.915	0.68
342.128	64.17
342.34	74.41
342.552	37.55
342.764	-17.75
342.977	49.83
343.189	43.69
343.401	49.83
343.613	-5.46
343.826	-48.47
344.038	-68.95
344.25	-5.46
344.462	45.74
344.674	49.83
344.886	-9.56
345.099	84.65
345.311	98.99
345.523	12.97
345.735	-62.8
345.947	39.59
346.159	76.46
346.371	19.11
346.583	-27.99
346.795	139.94
347.007	29.35
347.219	58.03
347.431	-15.7
347.643	31.4
347.855	-64.85
348.067	115.37
348.279	2.73
348.491	25.26
348.703	90.79
348.915	19.11
349.127	12.97
349.339	33.45
349.551	10.92
349.763	66.22
349.975	41.64
350.187	101.03
350.399	115.37
350.61	-3.41
350.822	-21.84
351.034	96.94
351.246	47.79
351.458	39.59
351.669	31.4
351.881	101.03
352.093	148.14
352.305	88.75
352.517	6.83
352.728	105.13
352.94	45.74
353.152	84.65
353.363	-34.13
353.575	125.61
353.787	101.03
353.999	78.51
354.21	41.64
354.422	131.75
354.633	47.79
354.845	82.6
355.057	76.46
355.268	98.99
355.48	17.07
355.692	21.16
355.903	45.74
356.115	-36.18
356.326	-42.32
356.538	103.08
356.749	35.5
356.961	98.99
357.172	103.08
357.384	0.68
357.595	150.18
357.807	31.4
358.018	-27.99
358.23	-25.94
358.441	86.7
358.653	35.5
358.864	51.88
359.075	17.07
359.287	25.26
359.498	58.03
359.709	27.31
359.921	70.31
360.132	64.17
360.344	10.92
360.555	15.02
360.766	31.4
360.977	62.12
361.189	94.89
361.4	0.68
361.611	10.92
361.823	119.46
362.034	103.08
362.245	-105.81
362.456	96.94
362.667	49.83
362.879	17.07
363.09	86.7
363.301	53.93
363.512	4.78
363.723	12.97
363.935	33.45
364.146	82.6
364.357	39.59
364.568	76.46
364.779	8.87
364.99	96.94
365.201	-11.61
365.412	156.33
365.623	6.83
365.834	-11.61
366.045	12.97
366.256	47.79
366.467	105.13
366.678	27.31
366.889	113.32
367.1	51.88
367.311	82.6
367.522	-17.75
367.733	98.99
367.944	37.55
368.155	43.69
368.366	68.27
368.577	109.23
368.788	35.5
368.999	37.55
369.209	12.97
369.42	127.66
369.631	125.61
369.842	66.22
370.053	12.97
370.264	23.21
370.474	-5.46
370.685	25.26
370.896	82.6
371.107	23.21
371.317	96.94
371.528	-19.8
371.739	109.23
371.95	60.07
372.16	62.12
372.371	-5.46
372.582	113.32
372.792	76.46
373.003	55.98
373.214	23.21
373.424	31.4
373.635	-15.7
373.846	135.85
374.056	33.45
374.267	62.12
374.477	68.27
374.688	-11.61
374.898	-34.13
375.109	70.31
375.319	80.55
375.53	148.14
375.74	72.36
375.951	55.98
376.161	92.84
376.372	105.13
376.582	12.97
376.793	47.79
377.003	-83.28
377.214	96.94
377.424	86.7
377.635	62.12
377.845	-15.7
378.055	96.94
378.266	-19.8
378.476	96.94
378.686	6.83
378.897	0.68
379.107	113.32
379.317	92.84
379.528	-19.8
379.738	92.84
379.948	-1.37
380.158	35.5
380.369	-30.04
380.579	55.98
380.789	6.83
380.999	47.79
381.21	2.73
381.42	133.8
381.63	-25.94
381.84	43.69
382.05	62.12
382.261	45.74
382.471	131.75
382.681	64.17
382.891	12.97
383.101	53.93
383.311	15.02
383.521	94.89
383.731	64.17
383.941	125.61
384.151	119.46
384.361	68.27
384.571	109.23
384.781	37.55
384.991	74.41
385.201	84.65
385.411	17.07
385.621	58.03
385.831	62.12
386.041	35.5
386.251	60.07
386.461	88.75
386.671	45.74
386.881	70.31
387.091	-5.46
387.301	8.87
387.511	10.92
387.72	53.93
387.93	86.7
388.14	72.36
388.35	60.07
388.56	80.55
388.769	62.12
388.979	21.16
389.189	74.41
389.399	82.6
389.609	113.32
389.818	125.61
390.028	117.42
390.238	121.51
390.447	101.03
390.657	49.83
390.867	27.31
391.076	-23.89
391.286	105.13
391.496	31.4
391.705	31.4
391.915	105.13
392.125	62.12
392.334	60.07
392.544	189.1
392.753	121.51
392.963	29.35
393.172	25.26
393.382	-7.51
393.591	195.24
393.801	55.98
394.01	180.9
394.22	62.12
394.429	82.6
394.639	29.35
394.848	74.41
395.058	39.59
395.267	78.51
395.477	82.6
395.686	8.87
395.895	119.46
396.105	148.14
396.314	131.75
396.524	84.65
396.733	62.12
396.942	135.85
397.152	37.55
397.361	107.18
397.57	37.55
397.78	70.31
397.989	76.46
398.198	66.22
398.407	86.7
398.617	129.7
398.826	98.99
399.035	94.89
399.244	96.94
399.453	39.59
399.663	101.03
399.872	82.6
400.081	60.07
400.29	141.99
400.499	39.59
400.708	96.94
400.917	37.55
401.127	119.46
401.336	127.66
401.545	113.32
401.754	189.1
401.963	215.72
402.172	27.31
402.381	4.78
402.59	68.27
402.799	90.79
403.008	33.45
403.217	113.32
403.426	135.85
403.635	86.7
403.844	92.84
404.053	127.66
404.262	121.51
404.471	137.9
404.68	103.08
404.888	49.83
405.097	43.69
405.306	103.08
405.515	105.13
405.724	92.84
405.933	111.27
406.142	117.42
406.35	174.76
406.559	72.36
406.768	201.38
406.977	154.28
407.185	156.33
407.394	135.85
407.603	146.09
407.812	86.7
408.02	211.62
408.229	189.1
408.438	199.34
408.646	98.99
408.855	191.14
409.064	197.29
409.272	113.32
409.481	228.01
409.69	197.29
409.898	168.62
410.107	98.99
410.315	242.34
410.524	162.47
410.733	150.18
410.941	135.85
411.15	236.2
411.358	254.63
411.567	348.84
411.775	201.38
411.984	268.97
412.192	281.25
412.401	162.47
412.609	352.93
412.818	391.84
413.026	338.6
413.234	342.69
413.443	330.41
413.651	309.93
413.86	418.47
414.068	373.41
414.276	381.6
414.485	387.75
414.693	404.13
414.901	494.24
415.11	414.37
415.318	348.84
415.526	441
415.734	445.09
415.943	504.48
416.151	563.87
416.359	385.7
416.567	484
416.776	565.92
416.984	555.68
417.192	604.83
417.4	563.87
417.608	543.39
417.817	613.03
418.025	658.08
418.233	776.86
418.441	547.49
418.649	709.28
418.857	744.1
419.065	746.14
419.273	746.14
419.481	805.53
419.689	766.62
419.897	860.83
420.105	875.17
420.313	928.41
420.521	977.56
420.729	1022.62
420.937	907.93
421.145	916.12
421.353	1026.72
421.561	1051.29
421.769	1104.54
421.977	1198.74
422.185	1221.27
422.393	1233.56
422.601	1225.37
422.809	1286.81
423.017	1307.29
423.224	1446.55
423.432	1553.04
423.64	1399.45
423.848	1643.15
424.056	1530.52
424.263	1565.33
424.471	1645.2
424.679	1661.59
424.887	1649.3
425.094	1780.37
425.302	1806.99
425.51	1856.14
425.718	1972.88
425.925	1919.63
426.133	1974.92
426.341	2065.04
426.548	2200.2
426.756	2124.43
426.964	2273.93
427.171	2286.22
427.379	2497.16
427.586	2464.39
427.794	2460.29
428.001	2697.86
428.209	2767.49
428.417	2820.74
428.624	2929.28
428.832	2857.6
429.039	2830.98
429.247	2835.07
429.454	3166.84
429.662	3449.46
429.869	3072.64
430.076	3377.78
430.284	3318.39
430.491	3445.37
430.699	3531.38
430.906	3592.82
431.114	3605.11
431.321	3840.62
431.528	3928.69
431.736	4176.49
431.943	4250.22
432.15	4168.3
432.358	4409.96
432.565	4502.12
432.772	4399.72
432.979	4635.24
433.187	4827.74
433.394	4807.27
433.601	5003.87
433.808	4958.81
434.016	5096.03
434.223	5270.11
434.43	5544.53
434.637	5470.81
434.844	5726.8
435.052	5972.56
435.259	5937.74
435.466	6011.47
435.673	5782.1
435.88	6197.84
436.087	6545.99
436.294	6703.68
436.501	6285.9
436.708	6519.37
436.915	6791.75
437.122	6994.5
437.329	6822.47
437.537	7189.05
437.743	7404.09
437.95	7469.62
438.157	7752.24
438.364	7817.78
438.571	7707.19
438.778	7873.07
438.985	8645.16
439.192	8364.59
439.399	8649.25
439.606	8575.53
439.813	8897.06
440.02	9413.15
440.227	9290.27
440.433	9222.69
440.64	9505.31
440.847	9429.53
441.054	9497.11
441.261	10476.04
441.467	10179.09
441.674	10232.33
441.881	10652.17
442.088	10590.73
442.294	10553.87
442.501	10969.6
442.708	11076.1
442.914	11328
443.121	12001.78
443.328	11745.78
443.534	12306.93
443.741	12046.83
443.948	11934.2
444.154	12743.14
444.361	12925.41
444.568	12704.23
444.774	12960.23
444.981	12786.15
445.187	13459.93
445.394	14051.8
445.6	13847
445.807	15100.36
446.013	14254.55
446.22	14649.8
446.426	15382.98
446.633	15370.69
446.839	15991.22
447.046	15354.3
447.252	16093.62
447.459	16150.96
447.665	16322.99
447.871	16855.47
448.078	17658.27
448.284	16513.45
448.491	17177
448.697	17607.07
448.903	18393.49
449.11	18082.2
449.316	17916.31
449.522	18563.47
449.728	18508.18
449.935	18995.59
450.141	18692.49
450.347	19257.73
450.553	18774.41
450.76	18915.72
450.966	19591.55
451.172	19394.95
451.378	19935.61
451.584	19407.23
451.791	19794.3
451.997	19822.97
452.203	20167.03
452.409	20132.22
452.615	20101.5
452.821	19333.51
453.027	19050.89
453.233	20251
453.44	19351.94
453.646	19370.37
453.852	19874.17
454.058	20007.29
454.264	19437.95
454.47	19835.26
454.676	19276.16
454.882	20115.83
455.088	18278.8
455.294	18422.16
455.5	18770.32
455.705	19104.14
455.911	18512.27
456.117	17815.96
456.323	17734.04
456.529	16624.04
456.735	17240.48
456.941	17160.61
457.147	16667.05
457.352	16163.25
457.558	15964.6
457.764	16067
457.97	15538.62
458.176	15307.2
458.381	15290.82
458.587	14711.24
458.793	14494.16
458.999	13834.71
459.204	14758.35
459.41	14346.7
459.616	13263.33
459.821	13390.3
460.027	13337.06
460.233	13201.89
460.438	12610.03
460.644	12642.79
460.85	12083.7
461.055	12134.9
461.261	11862.52
461.466	11065.86
461.672	10670.6
461.878	11350.53
462.083	10699.27
462.289	10480.14
462.494	10234.38
462.7	9871.89
462.905	9656.86
463.111	10138.13
463.316	10025.49
463.522	9820.69
463.727	9660.95
463.932	9419.29
464.138	9499.16
464.343	9536.03
464.549	9286.17
464.754	9591.32
464.959	9595.42
465.165	9407
465.37	9093.66
465.575	8864.29
465.781	9112.1
465.986	9267.74
466.191	8843.81
466.397	8739.37
466.602	8270.38
466.807	8612.39
467.012	8634.92
467.218	8761.89
467.423	8458.79
467.628	8501.8
467.833	8897.06
468.038	8575.53
468.244	8327.72
468.449	8694.31
468.654	8278.57
468.859	8200.75
469.064	8229.42
469.269	7782.96
469.474	7961.14
469.679	8225.33
469.885	7885.36
470.09	7877.17
470.295	7713.33
470.5	7701.05
470.705	7764.53
470.91	7481.91
471.115	7660.09
471.32	7621.17
471.525	7584.31
471.73	7647.8
471.935	7440.95
472.139	7199.29
472.344	7193.15
472.549	7174.72
472.754	7088.7
472.959	7045.7
473.164	6838.85
473.369	6777.41
473.574	6937.15
473.778	6844.99
473.983	6924.86
474.188	6951.49
474.393	6535.75
474.598	6513.22
474.802	6355.53
475.007	6308.43
475.212	6376.01
475.417	6029.9
475.621	6249.04
475.826	6099.53
476.031	6050.38
476.235	5958.22
476.44	5956.18
476.645	5823.06
476.849	5976.66
477.054	5657.17
477.259	5669.46
477.463	5724.76
477.668	5741.14
477.872	5515.86
478.077	5517.91
478.282	5345.88
478.486	5497.43
478.691	5223
478.895	5380.7
479.1	5401.18
479.304	5210.72
479.509	5143.13
479.713	5300.83
479.918	5300.83
480.122	4924
480.326	5106.27
480.531	5143.13
480.735	5014.11
480.94	5030.49
481.144	5259.87
481.348	5069.41
481.553	5118.56
481.757	4901.47
481.961	4993.63
482.166	4977.25
482.37	4958.81
482.574	4817.51
482.778	4766.31
482.983	5012.06
483.187	4862.56
483.391	4913.76
483.595	4844.13
483.8	4801.12
484.004	4823.65
484.208	4776.55
484.412	4840.03
484.616	4924
484.821	4727.39
485.025	4690.53
485.229	4788.83
485.433	4848.22
485.637	4954.72
485.841	4874.85
486.045	4803.17
486.249	4948.58
486.453	4788.83
486.657	4850.27
486.861	4745.83
487.065	4708.96
487.269	4721.25
487.473	4805.22
487.677	4842.08
487.881	5001.82
488.085	4813.41
488.289	4835.94
488.493	4676.2
488.697	4899.42
488.901	4880.99
489.105	4659.81
489.309	4905.57
489.512	4831.84
489.716	4946.53
489.92	4823.65
490.124	4733.54
490.328	5040.73
490.531	5014.11
490.735	4987.49
490.939	4915.81
491.143	4846.18
491.346	4823.65
491.55	4969.05
491.754	5034.59
491.958	4987.49
492.161	4921.95
492.365	5235.29
492.569	4995.68
492.772	5061.21
492.976	5083.74
493.18	5251.67
493.383	5190.24
493.587	5106.27
493.79	5182.04
493.994	5089.88
494.197	5298.78
494.401	5401.18
494.605	5329.5
494.808	5378.65
495.012	5552.73
495.215	5511.77
495.419	5427.8
495.622	5349.98
495.825	5573.21
496.029	5407.32
496.232	5558.87
496.436	5517.91
496.639	5886.54
496.843	5595.73
497.046	5933.65
497.249	5943.89
497.453	5898.83
497.656	5765.71
497.859	5806.67
498.063	6085.2
498.266	6222.41
498.469	6333
498.673	6220.36
498.876	6281.8
499.079	6265.42
499.282	6380.11
499.485	6644.29
499.689	6576.71
499.892	6617.67
500.095	6541.89
500.298	6734.4
500.501	6648.39
500.705	6908.48
500.908	7055.94
501.111	7203.39
501.314	7066.17
501.517	7123.52
501.72	7156.29
501.923	7305.79
502.126	7428.67
502.329	7598.65
502.532	7336.51
502.735	7610.93
502.938	7877.17
503.141	7766.58
503.344	7873.07
503.547	7909.94
503.75	7928.37
503.953	8063.54
504.156	7993.9
504.359	8120.88
504.562	8139.31
504.765	8598.06
504.968	8669.73
505.17	8704.55
505.373	8587.82
505.576	8809
505.779	8991.27
505.982	8739.37
506.185	8964.64
506.387	9101.86
506.59	9261.6
506.793	9384.48
506.996	9540.12
507.198	9730.58
507.401	9450.01
507.604	9593.37
507.807	9912.85
508.009	9814.55
508.212	9804.31
508.415	10072.59
508.617	10330.64
508.82	10166.8
509.022	10117.65
509.225	10297.87
509.428	10398.22
509.63	10322.45
509.833	10473.99
510.035	10656.26
510.238	10656.26
510.44	11049.47
510.643	11274.75
510.845	11291.13
511.048	11043.33
511.25	11356.67
511.453	11643.39
511.655	11878.9
511.858	11753.98
512.06	11643.39
512.262	11815.41
512.465	11766.26
512.667	11964.92
512.87	12114.42
513.072	12104.18
513.274	12423.66
513.477	12448.24
513.679	12370.41
513.881	12755.43
514.084	12796.39
514.286	12913.13
514.488	12857.83
514.69	13052.39
514.893	13152.74
515.095	13380.06
515.297	13416.93
515.499	13507.04
515.701	13799.9
515.904	13826.52
516.106	13814.23
516.308	13877.72
516.51	14092.76
516.712	14260.69
516.914	14043.6
517.116	14506.45
517.318	14541.26
517.52	14651.85
517.722	14516.69
517.925	14574.03
518.127	14707.15
518.329	15067.59
518.531	14807.5
518.733	15139.27
518.935	15299.01
519.136	15169.99
519.338	15337.92
519.54	15272.39
519.742	15700.41
519.944	15710.65
520.146	15819.19
520.348	16110
520.55	16060.85
520.752	15948.22
520.954	16288.18
521.155	16163.25
521.357	16415.15
521.559	16140.72
521.761	16605.61
521.963	16503.21
522.164	16587.18
522.366	16787.88
522.568	16882.09
522.77	17217.96
522.971	17330.59
523.173	16847.27
523.375	17514.91
523.576	17263.01
523.778	16923.05
523.98	17414.56
524.181	17316.26
524.383	17414.56
524.584	17594.78
524.786	17715.61
524.988	17482.14
525.189	17566.11
525.391	17963.42
525.592	17793.44
525.794	17914.27
525.995	18047.38
526.197	18016.66
526.398	18368.91
526.6	18143.64
526.801	18391.44
527.003	18127.25
527.204	17928.6
527.406	18280.85
527.607	18246.04
527.808	18583.95
528.01	18184.6
528.211	18381.2
528.412	18764.17
528.614	18538.9
528.815	18407.83
529.016	18985.35
529.218	18557.33
529.419	18622.86
529.62	18504.08
529.822	18739.6
530.023	18766.22
530.224	18504.08
530.425	18712.97
530.626	18649.49
530.828	18661.77
531.029	18950.54
531.23	18862.47
531.431	18665.87
531.632	18946.44
531.833	18915.72
532.035	18727.31
532.236	18872.71
532.437	18907.53
532.638	18960.78
532.839	18909.58
533.04	18948.49
533.241	18727.31
533.442	19032.46
533.643	18749.84
533.844	18835.85
534.045	19192.2
534.246	18878.86
534.447	18958.73
534.648	18934.15
534.849	18887.05
535.05	18942.35
535.251	18850.19
535.451	18856.33
535.652	18850.19
535.853	19100.04
536.054	18983.31
536.255	19141
536.456	18647.44
536.657	19034.5
536.857	19239.3
537.058	18790.8
537.259	18823.56
537.46	18815.37
537.66	18792.84
537.861	18889.1
538.062	18819.47
538.263	18854.28
538.463	18882.95
538.664	19063.18
538.865	18698.64
539.065	19065.22
539.266	18946.44
539.466	18882.95
539.667	18598.29
539.868	18827.66
540.068	18586
540.269	18940.3
540.469	19003.78
540.67	18798.99
540.87	18905.48
541.071	18930.06
541.271	19057.03
541.472	18887.05
541.672	18823.56
541.873	18862.47
542.073	18577.81
542.274	18962.83
542.474	18801.04
542.675	18672.01
542.875	19014.02
543.075	18694.54
543.276	18620.81
543.476	18672.01
543.676	18538.9
543.877	18823.56
544.077	18491.79
544.277	18766.22
544.478	18575.76
544.678	18780.56
544.878	18688.4
545.078	18966.92
545.279	18463.12
545.479	18616.72
545.679	18758.03
545.879	18635.15
546.079	18450.83
546.28	18422.16
546.48	18485.65
546.68	18561.42
546.88	18672.01
547.08	18416.02
547.28	18583.95
547.48	18442.64
547.68	18573.71
547.88	18608.53
548.081	18489.74
548.281	18661.77
548.481	18297.24
548.681	18665.87
548.881	18434.45
549.081	18596.24
549.28	18536.85
549.48	18493.84
549.68	18389.39
549.88	18979.21
550.08	18327.96
550.28	18545.04
550.48	18416.02
550.68	18674.06
550.88	18260.37
551.08	18284.95
551.279	18620.81
551.479	18413.97
551.679	18524.56
551.879	18282.9
552.079	18655.63
552.278	18530.7
552.478	18551.18
552.678	18315.67
552.878	18295.19
553.077	18211.22
553.277	18282.9
553.477	18661.77
553.676	18604.43
553.876	18305.43
554.076	18381.2
554.275	18461.07
554.475	18131.35
554.674	18293.14
554.874	18426.26
555.074	18262.42
555.273	18401.68
555.473	18504.08
555.672	18172.31
555.872	18299.28
556.071	18411.92
556.271	18295.19
556.47	18157.97
556.67	17914.27
556.869	18444.69
557.068	18198.93
557.268	17963.42
557.467	18168.21
557.667	18127.25
557.866	18139.54
558.065	18170.26
558.265	18184.6
558.464	17959.32
558.663	18395.54
558.863	17807.77
559.062	18233.75
559.261	17916.31
559.461	18194.84
559.66	17875.35
559.859	18157.97
560.058	18110.87
560.258	18037.14
560.457	18031
560.656	18104.73
560.855	17813.91
561.054	18012.57
561.253	18049.43
561.453	18067.86
561.652	17996.18
561.851	18233.75
562.05	18018.71
562.249	17899.93
562.448	18157.97
562.647	17887.64
562.846	17545.63
563.045	18090.39
563.244	17332.64
563.443	18309.52
563.642	17822.11
563.841	17760.67
564.04	17729.95
564.239	17785.24
564.438	17742.24
564.637	17889.69
564.836	17510.82
565.035	17803.67
565.234	17699.23
565.432	17412.51
565.631	17586.59
565.83	17695.13
566.029	17496.48
566.228	17590.69
566.427	17609.12
566.625	17572.25
566.824	17514.91
567.023	17797.53
567.222	17428.9
567.42	17815.96
567.619	17547.68
567.818	17357.22
568.016	17512.86
568.215	17734.04
568.414	17183.14
568.612	17564.06
568.811	17332.64
569.01	17209.76
569.208	17066.41
569.407	17428.9
569.605	17215.91
569.804	17527.2
570.002	17432.99
570.201	17443.23
570.4	17058.21
570.598	17404.32
570.797	17152.42
570.995	17267.11
571.193	17273.25
571.392	17463.71
571.59	17238.44
571.789	17170.85
571.987	17129.89
572.186	16908.71
572.384	17142.18
572.582	16966.06
572.781	17308.07
572.979	16818.6
573.177	17240.48
573.376	17074.6
573.574	17041.83
573.772	16992.68
573.971	17009.06
574.169	16812.46
574.367	16693.68
574.565	16814.51
574.763	16753.07
574.962	16935.34
575.16	16312.75
575.358	16701.87
575.556	16359.86
575.754	17002.92
575.952	16622
576.151	16613.81
576.349	16669.1
576.547	16406.96
576.745	16269.75
576.943	16505.26
577.141	16593.33
577.339	16470.45
577.537	16427.44
577.735	16521.65
577.933	16341.43
578.131	16224.69
578.329	16351.67
578.527	16341.43
578.725	16322.99
578.923	16177.59
579.121	16206.26
579.319	16062.9
579.516	16146.87
579.714	16230.83
579.912	15901.11
580.11	15839.67
580.308	15909.3
580.506	15995.32
580.704	15794.62
580.901	16091.57
581.099	16126.39
581.297	16120.24
581.495	15907.26
581.692	16062.9
581.89	15784.38
582.088	16023.99
582.285	15841.72
582.483	15987.13
582.681	15825.34
582.878	15438.27
583.076	15583.68
583.274	15520.19
583.471	15382.98
583.669	15606.2
583.866	15550.91
584.064	15686.08
584.262	15350.21
584.459	15518.14
584.657	15458.75
584.854	15657.4
585.052	15454.65
585.249	15391.17
585.447	15516.09
585.644	15079.88
585.841	15055.3
586.039	15569.34
586.236	15124.93
586.434	15301.06
586.631	15083.97
586.828	14977.48
587.026	14870.98
587.223	15157.7
587.42	15069.64
587.618	15135.17
587.815	15145.41
588.012	15034.82
588.21	14936.52
588.407	14856.65
588.604	14766.54
588.801	14696.91
588.999	14791.11
589.196	14758.35
589.393	14414.29
589.59	14655.95
589.787	14526.92
589.984	14473.68
590.182	14485.97
590.379	14809.54
590.576	14631.37
590.773	14428.62
590.97	14504.4
591.167	14522.83
591.364	14178.77
591.561	14537.16
591.758	14236.11
591.955	14254.55
592.152	14373.33
592.349	14309.84
592.546	14246.35
592.743	14285.26
592.94	13744.6
593.137	14072.28
593.334	14393.81
593.531	13898.2
593.727	14094.8
593.924	14111.19
594.121	14016.98
594.318	13959.64
594.515	13869.53
594.712	14103
594.908	13892.05
595.105	13887.96
595.302	13492.7
595.499	13666.78
595.696	13662.68
595.892	13421.02
596.089	13842.9
596.286	13586.91
596.482	13738.46
596.679	13533.66
596.876	13550.04
597.072	13523.42
597.269	13482.46
597.466	13343.2
597.662	13179.36
597.859	13339.1
598.055	13429.21
598.252	13238.75
598.448	13296.1
598.645	13216.23
598.841	13212.13
599.038	13244.9
599.234	13199.84
599.431	13101.54
599.627	13154.79
599.824	13054.44
600.02	13109.73
600.217	13111.78
600.413	13154.79
600.609	13070.82
600.806	12995.04
601.002	12937.7
601.198	12632.55
601.395	12810.73
601.591	12923.37
601.787	12915.17
601.984	12812.78
602.18	12915.17
602.376	12612.07
602.572	12620.27
602.769	12548.59
602.965	12845.54
603.161	12583.4
603.357	12794.34
603.553	12671.47
603.75	12591.59
603.946	12448.24
604.142	12661.23
604.338	12411.37
604.534	12237.3
604.73	12329.45
604.926	12431.85
605.122	12521.96
605.318	12366.32
605.514	12429.81
605.71	12358.13
605.906	12261.87
606.102	12239.34
606.298	12296.69
606.494	12077.55
606.69	12313.07
606.886	12401.13
607.082	11975.16
607.278	12163.57
607.474	11936.24
607.67	12130.8
607.866	11913.72
608.062	11954.68
608.257	11823.61
608.453	12026.36
608.649	12102.13
608.845	11823.61
609.041	11921.91
609.236	11966.96
609.432	11977.2
609.628	11942.39
609.824	11962.87
610.019	11885.05
610.215	11803.13
610.411	11944.44
610.606	11801.08
610.802	11880.95
610.998	11737.59
611.193	11842.04
611.389	11749.88
611.584	11786.74
611.78	11745.78
611.976	11559.42
612.171	11891.19
612.367	11682.3
612.562	11862.52
612.758	11590.14
612.953	11383.29
613.149	11778.55
613.344	11371.01
613.539	11926
613.735	11637.24
613.93	11688.44
614.126	11604.47
614.321	11483.64
614.517	11469.31
614.712	11377.15
614.907	11418.11
615.103	11588.09
615.298	11246.08
615.493	11266.56
615.688	11454.97
615.884	11553.27
616.079	11323.9
616.274	11483.64
616.47	11299.33
616.665	11272.7
616.86	11309.57
617.055	11303.42
617.25	11364.86
617.445	11250.18
617.641	11031.04
617.836	11160.06
618.031	10953.22
618.226	11254.27
618.421	11192.83
618.616	11229.7
618.811	10881.54
619.006	11094.53
619.201	10899.97
619.396	11170.3
619.591	10723.85
619.786	11096.58
619.981	10639.88
620.176	10908.16
620.371	10969.6
620.566	10906.12
620.761	10889.73
620.956	10897.92
621.151	10512.91
621.346	10721.8
621.541	10467.85
621.735	10836.49
621.93	10476.04
622.125	10381.84
622.32	10306.06
622.515	10476.04
622.709	10199.57
622.904	10283.53
623.099	10103.31
623.294	10254.86
623.488	10162.7
623.683	10062.35
623.878	9986.58
624.072	9947.67
624.267	9847.32
624.462	9740.82
624.656	10025.49
624.851	9732.63
625.046	9781.78
625.24	9937.43
625.435	9603.61
625.629	9572.89
625.824	9591.32
626.018	9464.35
626.213	9497.11
626.407	9527.83
626.602	9269.79
626.796	9368.09
626.991	9427.48
627.185	9136.67
627.38	9210.4
627.574	9173.53
627.768	9247.26
627.963	9155.1
628.157	9017.89
628.352	9005.6
628.546	8987.17
628.74	9103.9
628.935	8772.13
629.129	9028.13
629.323	8688.17
629.517	8704.55
629.712	8661.54
629.906	8645.16
630.1	8667.69
630.294	8774.18
630.489	8706.6
630.683	8706.6
630.877	8512.04
631.071	8409.64
631.265	8481.32
631.459	8387.11
631.653	8274.48
631.848	8258.09
632.042	8323.63
632.236	8239.66
632.43	8213.04
632.624	8270.38
632.818	8114.73
633.012	8022.58
633.206	8055.34
633.4	8231.47
633.594	7844.4
633.788	7959.09
633.982	7946.8
634.176	8022.58
634.369	7811.64
634.563	7930.42
634.757	7762.48
634.951	7936.56
635.145	7678.52
635.339	7621.17
635.533	7655.99
635.726	7686.71
635.92	7410.23
636.114	7602.74
636.308	7346.75
636.501	7580.21
636.695	7471.67
636.889	7209.53
637.083	7281.21
637.276	7324.22
637.47	7117.37
637.664	7166.53
637.857	7100.99
638.051	7113.28
638.244	7062.08
638.438	6961.73
638.632	6974.02
638.825	6908.48
639.019	7049.79
639.212	6836.8
639.406	6898.24
639.599	6656.58
639.793	6816.32
639.986	6574.66
640.18	6883.91
640.373	6681.16
640.567	6533.7
640.76	6548.04
640.954	6451.78
641.147	6541.89
641.34	6480.46
641.534	6412.87
641.727	6517.32
641.92	6470.22
642.114	6314.57
642.307	6343.24
642.5	6439.5
642.694	6046.29
642.887	6234.7
643.08	6394.44
643.273	6169.16
643.467	6240.84
643.66	6011.47
643.853	6193.74
644.046	5954.13
644.239	5990.99
644.432	6021.71
644.626	5870.16
644.819	5896.78
645.012	5786.19
645.205	5575.25
645.398	5829.2
645.591	5739.09
645.784	5720.66
645.977	5585.49
646.17	5661.27
646.363	5524.05
646.556	5730.9
646.749	5501.53
646.942	5438.04
647.135	5358.17
647.328	5380.7
647.521	5646.93
647.714	5517.91
647.907	5456.47
648.099	5427.8
648.292	5435.99
648.485	5382.74
648.678	5186.14
648.871	5186.14
649.064	5192.28
649.256	5223
649.449	5112.41
649.642	5153.37
649.835	5149.28
650.027	5061.21
650.22	5180
650.413	5093.98
650.605	5028.45
650.798	4973.15
650.991	4880.99
651.183	4991.58
651.376	4997.73
651.568	5065.31
651.761	4725.35
651.954	4934.24
652.146	4880.99
652.339	4817.51
652.531	4815.46
652.724	4692.58
652.916	4674.15
653.109	4657.76
653.301	4682.34
653.494	4551.27
653.686	4588.13
653.879	4665.96
654.071	4717.15
654.263	4510.31
654.456	4393.58
654.648	4559.46
654.84	4369
655.033	4461.16
655.225	4467.3
655.417	4299.37
655.61	4350.57
655.802	4268.65
655.994	4321.9
656.186	4225.64
656.379	4371.05
656.571	4141.68
656.763	4299.37
656.955	4217.45
657.148	4131.44
657.34	4192.87
657.532	4113
657.724	4186.73
657.916	4084.33
658.108	4115.05
658.3	3949.17
658.492	4074.09
658.684	3981.93
658.876	4035.18
659.068	3854.96
659.26	3996.27
659.452	3926.64
659.644	3965.55
659.836	3893.87
660.028	3969.65
660.22	3873.39
660.412	3865.2
660.604	3881.58
660.796	3861.1
660.988	3797.62
661.18	3711.6
661.372	3826.29
661.563	3668.59
661.755	3713.65
661.947	3734.13
662.139	3447.41
662.331	3777.14
662.522	3562.1
662.714	3529.33
662.906	3588.72
663.097	3586.68
663.289	3457.65
663.481	3439.22
663.673	3654.26
663.864	3564.15
664.056	3453.56
664.247	3523.19
664.439	3359.35
664.631	3627.64
664.822	3463.8
665.014	3228.28
665.205	3279.48
665.397	3365.5
665.588	3316.34
665.78	3373.69
665.971	3474.04
666.163	3467.89
666.354	3273.34
666.546	3246.71
666.737	3302.01
666.929	3207.8
667.12	3277.43
667.311	3193.47
667.503	3312.25
667.694	3144.31
667.885	3281.53
668.077	3256.95
668.268	3113.6
668.459	3242.62
668.651	3218.04
668.842	3097.21
669.033	3082.88
669.224	3093.12
669.416	3129.98
669.607	3072.64
669.798	3101.31
669.989	3095.16
670.18	3033.72
670.371	3105.4
670.563	3103.36
670.754	3046.01
670.945	3031.68
671.136	2978.43
671.327	3072.64
671.518	3031.68
671.709	2986.62
671.9	3017.34
672.091	3089.02
672.282	2869.89
672.473	2949.76
672.664	2841.22
672.855	2878.08
673.046	3035.77
673.237	2863.74
673.428	3003
673.619	2869.89
673.809	2853.5
674	2960
674.191	2876.03
674.382	2828.93
674.573	2734.72
674.764	2957.95
674.954	2955.9
675.145	2755.2
675.336	2812.54
675.527	2712.19
675.717	2861.69
675.908	2839.17
676.099	2728.58
676.289	2751.1
676.48	2769.54
676.671	2810.5
676.861	2687.62
677.052	2742.91
677.243	2669.19
677.433	2757.25
677.624	2736.77
677.814	2812.54
678.005	2845.31
678.195	2828.93
678.386	2704
678.576	2683.52
678.767	2796.16
678.957	2755.2
679.148	2904.7
679.338	2849.41
679.529	2693.76
679.719	2857.6
679.909	2671.23
680.1	2787.97
680.29	2695.81
680.481	2572.93
680.671	2839.17
680.861	2685.57
681.052	2736.77
681.242	2695.81
681.432	2769.54
681.622	2671.23
681.813	2708.1
682.003	2654.85
682.193	2771.58
682.383	2724.48
682.573	2642.56
682.764	2503.3
682.954	2646.66
683.144	2642.56
683.334	2761.34
683.524	2652.8
683.714	2759.3
683.904	2566.79
684.094	2736.77
684.284	2482.82
684.474	2818.69
684.664	2648.71
684.854	2636.42
685.044	2630.27
685.234	2669.19
685.424	2771.58
685.614	2613.89
685.804	2693.76
685.994	2534.02
686.184	2644.61
686.374	2712.19
686.564	2497.16
686.753	2572.93
686.943	2456.2
687.133	2534.02
687.323	2542.21
687.513	2546.31
687.702	2624.13
687.892	2521.73
688.082	2448.01
688.272	2497.16
688.461	2513.54
688.651	2626.18
688.841	2400.9
689.03	2466.44
689.22	2435.72
689.41	2566.79
689.599	2474.63
689.789	2398.85
689.979	2476.68
690.168	2445.96
690.358	2378.37
690.547	2394.76
690.737	2450.05
690.926	2413.19
691.116	2396.81
691.305	2275.98
691.495	2267.78
691.684	2265.74
691.874	2378.37
692.063	2310.79
692.252	2331.27
692.442	2462.34
692.631	2439.81
692.82	2329.22
693.01	2273.93
693.199	2349.7
693.388	2314.89
693.578	2263.69
693.767	2359.94
693.956	2306.7
694.146	2415.24
694.335	2294.41
694.524	2327.18
694.713	2382.47
694.902	2316.94
695.092	2222.73
695.281	2374.28
695.47	2267.78
695.659	2312.84
695.848	2202.25
696.037	2306.7
696.226	2366.09
696.415	2407.05
696.604	2327.18
696.793	2423.43
696.982	2222.73
697.171	2462.34
697.36	2327.18
697.549	2433.67
697.738	2339.46
697.927	2255.5
698.116	2308.74
698.305	2411.14
698.494	2366.09
698.683	2370.18
698.872	2339.46
699.061	2368.13
699.25	2366.09
699.438	2245.26
699.627	2359.94
699.816	2394.76
700.005	2370.18
700.193	2398.85
700.382	2400.9
700.571	2355.85
700.76	2400.9
700.948	2419.33
701.137	2538.12
701.326	2452.1
701.514	2529.92
701.703	2435.72
701.892	2454.15
702.08	2564.74
702.269	2505.35
702.457	2419.33
702.646	2452.1
702.834	2534.02
703.023	2482.82
703.212	2521.73
703.4	2519.68
703.589	2372.23
703.777	2491.01
703.965	2476.68
704.154	2484.87
704.342	2405
704.531	2462.34
704.719	2493.06
704.907	2493.06
705.096	2448.01
705.284	2439.81
705.472	2458.25
705.661	2466.44
705.849	2556.55
706.037	2443.91
706.226	2501.25
706.414	2570.88
706.602	2495.11
706.79	2712.19
706.979	2439.81
707.167	2562.69
707.355	2556.55
707.543	2646.66
707.731	2681.47
707.919	2462.34
708.107	2491.01
708.296	2509.44
708.484	2560.64
708.672	2587.27
708.86	2605.7
709.048	2497.16
709.236	2540.16
709.424	2556.55
709.612	2595.46
709.8	2615.94
709.988	2474.63
710.176	2617.99
710.364	2693.76
710.551	2572.93
710.739	2632.32
710.927	2427.53
711.115	2540.16
711.303	2716.29
711.491	2660.99
711.679	2556.55
711.866	2603.65
712.054	2699.91
712.242	2609.79
712.43	2574.98
712.617	2687.62
712.805	2634.37
712.993	2579.08
713.181	2468.48
713.368	2593.41
713.556	2638.47
713.744	2628.23
713.931	2763.39
714.119	2677.38
714.306	2667.14
714.494	2646.66
714.682	2605.7
714.869	2521.73
715.057	2615.94
715.244	2466.44
715.432	2648.71
715.619	2534.02
715.807	2613.89
715.994	2701.95
716.182	2652.8
716.369	2685.57
716.556	2751.1
716.744	2515.59
716.931	2589.32
717.119	2712.19
717.306	2757.25
717.493	2671.23
717.681	2601.6
717.868	2605.7
718.055	2593.41
718.242	2654.85
718.43	2630.27
718.617	2665.09
718.804	2570.88
718.991	2814.59
719.179	2773.63
719.366	2644.61
719.553	2656.9
719.74	2650.75
719.927	2706.05
720.114	2538.12
720.301	2701.95
720.488	2628.23
720.676	2663.04
720.863	2773.63
721.05	2861.69
721.237	2726.53
721.424	2663.04
721.611	2691.71
721.798	2630.27
721.985	2652.8
722.172	2718.34
722.358	2656.9
722.545	2749.06
722.732	2613.89
722.919	2740.86
723.106	2628.23
723.293	2617.99
723.48	2691.71
723.667	2544.26
723.853	2720.39
724.04	2695.81
724.227	2546.31
724.414	2681.47
724.6	2648.71
724.787	2828.93
724.974	2718.34
725.161	2603.65
725.347	2554.5
725.534	2554.5
725.72	2644.61
725.907	2718.34
726.094	2753.15
726.28	2617.99
726.467	2695.81
726.653	2638.47
726.84	2687.62
727.027	2716.29
727.213	2685.57
727.4	2679.43
727.586	2644.61
727.773	2572.93
727.959	2626.18
728.145	2546.31
728.332	2744.96
728.518	2501.25
728.705	2638.47
728.891	2507.4
729.077	2687.62
729.264	2523.78
729.45	2638.47
729.636	2708.1
729.823	2736.77
730.009	2751.1
730.195	2660.99
730.382	2714.24
730.568	2646.66
730.754	2456.2
730.94	2566.79
731.126	2646.66
731.313	2589.32
731.499	2759.3
731.685	2611.84
731.871	2552.45
732.057	2617.99
732.243	2685.57
732.429	2660.99
732.615	2599.56
732.801	2488.96
732.987	2663.04
733.173	2577.03
733.359	2491.01
733.545	2591.36
733.731	2548.36
733.917	2601.6
734.103	2534.02
734.289	2564.74
734.475	2611.84
734.661	2583.17
734.847	2568.84
735.033	2568.84
735.219	2525.83
735.404	2511.49
735.59	2574.98
735.776	2581.12
735.962	2607.75
736.148	2669.19
736.333	2591.36
736.519	2470.53
736.705	2642.56
736.89	2486.92
737.076	2443.91
737.262	2488.96
737.447	2556.55
737.633	2470.53
737.819	2488.96
738.004	2398.85
738.19	2554.5
738.375	2341.51
738.561	2400.9
738.747	2439.81
738.932	2462.34
739.118	2482.82
739.303	2407.05
739.489	2583.17
739.674	2335.37
739.859	2405
740.045	2359.94
740.23	2515.59
740.416	2390.66
740.601	2421.38
740.786	2282.12
740.972	2286.22
741.157	2345.61
741.342	2269.83
741.528	2398.85
741.713	2376.33
741.898	2355.85
742.084	2296.46
742.269	2370.18
742.454	2259.59
742.639	2351.75
742.824	2300.55
743.01	2267.78
743.195	2327.18
743.38	2198.15
743.565	2153.1
743.75	2134.67
743.935	2173.58
744.12	2185.87
744.305	2259.59
744.49	2005.64
744.675	2153.1
744.86	2114.19
745.045	2101.9
745.23	2099.85
745.415	2017.93
745.6	2077.32
745.785	2040.46
745.97	2165.39
746.155	2146.95
746.34	2097.8
746.525	2097.8
746.71	2056.84
746.895	2044.56
747.079	2105.99
747.264	1942.16
747.449	2015.88
747.634	2019.98
747.819	2019.98
748.003	2036.36
748.188	2034.32
748.373	1985.16
748.557	1964.68
748.742	1962.64
748.927	1948.3
749.111	1753.74
749.296	1905.29
749.481	1950.35
749.665	1944.21
749.85	1831.57
750.034	1884.81
750.219	1872.53
750.404	1888.91
750.588	1802.9
750.773	1833.61
750.957	1714.83
751.141	1886.86
751.326	1811.09
751.51	1694.35
751.695	1727.12
751.879	1731.22
752.064	1796.75
752.248	1571.47
752.432	1759.89
752.617	1741.46
752.801	1745.55
752.985	1622.67
753.17	1733.26
753.354	1675.92
753.538	1628.82
753.722	1594
753.907	1645.2
754.091	1426.07
754.275	1512.08
754.459	1538.71
754.643	1512.08
754.828	1544.85
755.012	1602.19
755.196	1510.04
755.38	1544.85
755.564	1477.27
755.748	1548.95
755.932	1573.52
756.116	1489.56
756.3	1485.46
756.484	1432.21
756.668	1483.41
756.852	1481.36
757.036	1421.97
757.22	1295
757.404	1464.98
757.588	1327.77
757.772	1403.54
757.956	1307.29
758.14	1389.21
758.323	1325.72
758.507	1368.73
758.691	1251.99
758.875	1372.82
759.059	1331.86
759.242	1329.81
759.426	1307.29
759.61	1329.81
759.794	1225.37
759.977	1268.38
760.161	1333.91
760.345	1280.66
760.528	1295
760.712	1315.48
760.895	1180.31
761.079	1305.24
761.263	1163.93
761.446	1174.17
761.63	1223.32
761.813	1180.31
761.997	1174.17
762.18	1194.65
762.364	1137.31
762.547	1206.94
762.731	1200.79
762.914	1215.13
763.098	1245.85
763.281	1077.91
763.464	1165.98
763.648	1079.96
763.831	1075.87
764.015	1120.92
764.198	1096.35
764.381	1032.86
764.564	1186.46
764.748	1135.26
764.931	1125.02
765.114	1108.63
765.297	1125.02
765.481	1102.49
765.664	1036.95
765.847	1088.15
766.03	1145.5
766.213	1055.39
766.397	1084.06
766.58	1061.53
766.763	1077.91
766.946	1082.01
767.129	1049.24
767.312	1008.28
767.495	1073.82
767.678	1014.43
767.861	1022.62
768.044	1030.81
768.227	1036.95
768.41	1032.86
768.593	1051.29
768.776	959.13
768.959	989.85
769.142	1086.11
769.324	989.85
769.507	1096.35
769.69	899.74
769.873	961.18
770.056	1098.39
770.239	899.74
770.421	957.08
770.604	1065.63
770.787	1006.24
770.97	1024.67
771.152	965.28
771.335	934.56
771.518	883.36
771.7	1057.43
771.883	985.76
772.066	858.78
772.248	895.65
772.431	979.61
772.613	893.6
772.796	877.21
772.978	950.94
773.161	983.71
773.343	957.08
773.526	899.74
773.708	885.41
773.891	854.69
774.073	866.97
774.256	840.35
774.438	907.93
774.621	823.97
774.803	858.78
774.985	791.2
775.168	873.12
775.35	860.83
775.532	854.69
775.715	819.87
775.897	748.19
776.079	760.48
776.261	885.41
776.444	774.81
776.626	733.86
776.808	774.81
776.99	676.51
777.173	909.98
777.355	785.05
777.537	733.86
777.719	750.24
777.901	752.29
778.083	752.29
778.265	838.3
778.447	735.9
778.629	711.33
778.811	727.71
778.993	666.27
779.175	748.19
779.357	721.57
779.539	653.98
779.721	740
779.903	735.9
780.085	717.47
780.267	694.94
780.449	637.6
780.631	651.94
780.812	682.66
780.994	668.32
781.176	674.46
781.358	633.51
781.54	653.98
781.721	621.22
781.903	711.33
782.085	508.58
782.267	641.7
782.448	600.74
782.63	510.63
782.812	563.87
782.993	592.55
783.175	604.83
783.357	584.35
783.538	625.31
783.72	637.6
783.901	608.93
784.083	621.22
784.264	619.17
784.446	535.2
784.627	539.3
784.809	506.53
784.99	561.83
785.172	600.74
785.353	549.54
785.535	547.49
785.716	520.87
785.897	506.53
786.079	596.64
786.26	473.76
786.441	537.25
786.623	490.15
786.804	459.43
786.985	432.8
787.167	463.52
787.348	508.58
787.529	506.53
787.71	570.02
787.891	441
788.073	441
788.254	486.05
788.435	522.91
788.616	471.72
788.797	397.99
788.978	416.42
789.159	418.47
789.34	473.76
789.522	416.42
789.703	410.28
789.884	500.39
790.065	426.66
790.246	565.92
790.427	340.65
790.607	492.2
790.788	481.96
790.969	391.84
791.15	426.66
791.331	441
791.512	459.43
791.693	365.22
791.874	316.07
792.054	506.53
792.235	481.96
792.416	420.52
792.597	393.89
792.778	447.14
792.958	346.79
793.139	262.82
793.32	357.03
793.5	301.73
793.681	471.72
793.862	434.85
794.042	348.84
794.223	260.77
794.404	363.17
794.584	246.44
794.765	297.64
794.945	359.08
795.126	352.93
795.306	391.84
795.487	305.83
795.667	320.17
795.848	361.13
796.028	369.32
796.209	330.41
796.389	305.83
796.57	348.84
796.75	223.91
796.93	346.79
797.111	281.25
797.291	277.16
797.471	314.02
797.652	287.4
797.832	311.97
798.012	352.93
798.192	314.02
798.373	203.43
798.553	266.92
798.733	350.89
798.913	266.92
799.093	234.15
799.274	352.93
799.454	295.59
799.634	262.82
799.814	344.74
799.994	301.73
800.174	256.68
800.354	244.39
800.534	225.96
800.714	299.69
800.894	262.82
801.074	240.3
801.254	262.82
801.434	365.22
801.614	277.16
801.794	211.62
801.974	1192.6
802.154	189.1
802.334	285.35
802.514	180.9
802.693	189.1
802.873	268.97
803.053	322.21
803.233	221.86
803.413	225.96
803.592	228.01
803.772	191.14
803.952	178.86
804.131	182.95
804.311	258.73
804.491	260.77
804.67	264.87
804.85	246.44
805.03	211.62
805.209	311.97
805.389	180.9
805.568	209.58
805.748	238.25
805.928	234.15
806.107	279.21
806.287	262.82
806.466	271.01
806.646	180.9
806.825	215.72
807.004	199.34
807.184	264.87
807.363	131.75
807.543	170.66
807.722	203.43
807.901	156.33
808.081	254.63
808.26	156.33
808.439	242.34
808.619	228.01
808.798	254.63
808.977	277.16
809.156	340.65
809.336	141.99
809.515	254.63
809.694	203.43
809.873	164.52
810.052	189.1
810.231	279.21
810.411	236.2
810.59	268.97
810.769	152.23
810.948	219.82
811.127	162.47
811.306	264.87
811.485	166.57
811.664	260.77
811.843	105.13
812.022	215.72
812.201	148.14
812.38	268.97
812.559	172.71
812.737	180.9
812.916	209.58
813.095	156.33
813.274	158.38
813.453	133.8
813.632	158.38
813.811	268.97
813.989	121.51
814.168	191.14
814.347	43.69
814.526	182.95
814.704	236.2
814.883	254.63
815.062	101.03
815.24	223.91
815.419	107.18
815.598	96.94
815.776	105.13
815.955	174.76
816.133	92.84
816.312	254.63
816.49	103.08
816.669	205.48
816.847	170.66
817.026	219.82
817.204	74.41
817.383	191.14
817.561	189.1
817.74	121.51
817.918	144.04
818.097	144.04
818.275	64.17
818.453	178.86
818.632	168.62
818.81	105.13
818.988	150.18
819.167	107.18
819.345	189.1
819.523	150.18
819.701	209.58
819.879	193.19
820.058	148.14
820.236	219.82
820.414	121.51
820.592	103.08
820.77	80.55
820.948	131.75
821.127	90.79
821.305	154.28
821.483	76.46
821.661	236.2
821.839	139.94
822.017	115.37
822.195	117.42
822.373	174.76
822.551	94.89
822.729	172.71
822.907	135.85
823.085	125.61
823.262	86.7
823.44	109.23
823.618	101.03
823.796	70.31
823.974	88.75
824.152	107.18
824.329	176.81
824.507	70.31
824.685	123.56
824.863	121.51
825.04	107.18
825.218	141.99
825.396	94.89
825.574	101.03
825.751	160.42
825.929	66.22
826.107	78.51
826.284	129.7
826.462	94.89
826.639	62.12
826.817	90.79
826.994	10.92
827.172	49.83
827.349	178.86
827.527	217.77
827.704	119.46
827.882	164.52
828.059	133.8
828.237	37.55
828.414	221.86
828.591	64.17
828.769	103.08
828.946	105.13
829.124	123.56
829.301	125.61
829.478	96.94
829.655	80.55
829.833	68.27
830.01	49.83
830.187	160.42
830.364	119.46
830.542	135.85
830.719	189.1
830.896	144.04
831.073	135.85
831.25	98.99
831.427	170.66
831.604	125.61
831.782	58.03
831.959	139.94
832.136	152.23
832.313	117.42
832.49	-1.37
832.667	135.85
832.844	86.7
833.021	101.03
833.198	137.9
833.374	88.75
833.551	92.84
833.728	105.13
833.905	170.66
834.082	109.23
834.259	27.31
834.436	76.46
834.612	105.13
834.789	113.32
834.966	135.85
835.143	29.35
835.319	74.41
835.496	33.45
835.673	82.6
835.85	86.7
836.026	103.08
836.203	115.37
836.38	111.27
836.556	62.12
836.733	0.68
836.909	154.28
837.086	49.83
837.262	135.85
837.439	45.74
837.616	55.98
837.792	27.31
837.968	88.75
838.145	66.22
838.321	45.74
838.498	90.79
838.674	43.69
838.851	113.32
839.027	107.18
839.203	94.89
839.38	90.79
839.556	66.22
839.732	86.7
839.909	92.84
840.085	72.36
840.261	55.98
840.437	84.65
840.614	60.07
840.79	23.21
840.966	78.51
841.142	96.94
841.318	58.03
841.494	109.23
841.671	137.9
841.847	19.11
842.023	66.22
842.199	47.79
842.375	90.79
842.551	-5.46
842.727	-13.65
842.903	103.08
843.079	123.56
843.255	60.07
843.431	-44.37
843.607	64.17
843.783	-38.23
843.959	37.55
844.134	-11.61
844.31	92.84
844.486	72.36
844.662	74.41
844.838	96.94
845.013	74.41
845.189	119.46
845.365	70.31
845.541	64.17
845.716	98.99
845.892	109.23
846.068	49.83
846.244	-11.61
846.419	70.31
846.595	-21.84
846.77	43.69
846.946	62.12
847.122	78.51
847.297	-7.51
847.473	141.99
847.648	-36.18
847.824	-17.75
847.999	-68.95
848.175	21.16
848.35	90.79
848.526	103.08
848.701	15.02
848.876	98.99
849.052	84.65
849.227	64.17
849.403	47.79
849.578	92.84
849.753	88.75
849.929	12.97
850.104	-11.61
850.279	64.17
850.454	58.03
850.63	31.4
850.805	103.08
850.98	31.4
851.155	21.16
851.33	35.5
851.505	19.11
851.681	152.23
851.856	41.64
852.031	37.55
852.206	29.35
852.381	8.87
852.556	76.46
852.731	8.87
852.906	82.6
853.081	74.41
853.256	64.17
853.431	-30.04
853.606	53.93
853.781	39.59
853.956	-11.61
854.131	76.46
854.305	-9.56
854.48	49.83
854.655	-58.71
854.83	-52.56
855.005	15.02
855.18	25.26
855.354	0.68
855.529	41.64
855.704	111.27
855.879	62.12
856.053	4.78
856.228	-7.51
856.403	4.78
856.577	121.51
856.752	-60.76
856.926	47.79
857.101	86.7
857.276	-40.28
857.45	35.5
857.625	64.17
857.799	-5.46
857.974	94.89
858.148	-27.99
858.323	-23.89
858.497	-21.84
858.672	88.75
858.846	-36.18
859.02	25.26
859.195	-30.04
859.369	31.4
859.543	-5.46
859.718	86.7
859.892	6.83
860.066	-48.47
860.241	4.78
860.415	-44.37
860.589	15.02
860.763	31.4
860.938	15.02
861.112	8.87
861.286	12.97
861.46	66.22
861.634	-9.56
861.808	107.18
861.982	43.69
862.157	-34.13
862.331	17.07
862.505	-13.65
862.679	35.5
862.853	-1.37
863.027	-9.56
863.201	80.55
863.375	-9.56
863.549	86.7
863.722	6.83
863.896	55.98
864.07	82.6
864.244	86.7
864.418	86.7
864.592	-25.94
864.766	25.26
864.939	35.5
865.113	-15.7
865.287	55.98
865.461	21.16
865.634	-19.8
865.808	94.89
865.982	8.87
866.156	55.98
866.329	-89.43
866.503	53.93
866.676	107.18
866.85	113.32
867.024	-34.13
867.197	47.79
867.371	64.17
867.544	-32.08
867.718	-32.08
867.891	78.51
868.065	-48.47
868.238	39.59
868.412	33.45
868.585	39.59
868.759	41.64
868.932	-9.56
869.105	-42.32
869.279	10.92
869.452	-5.46
869.625	25.26
869.799	78.51
869.972	-44.37
870.145	25.26
870.319	41.64
870.492	21.16
870.665	-23.89
870.838	12.97
871.011	43.69
871.185	64.17
871.358	12.97
871.531	70.31
871.704	-21.84
871.877	39.59
872.05	-25.94
872.223	53.93
872.396	35.5
872.569	96.94
872.742	8.87
872.915	35.5
873.088	27.31
873.261	45.74
873.434	41.64
873.607	37.55
873.78	25.26
873.953	-13.65
874.126	27.31
874.299	-15.7
874.471	-7.51
874.644	-50.52
874.817	25.26
874.99	66.22
875.163	-105.81
875.335	31.4
875.508	31.4
875.681	92.84
875.853	-21.84
876.026	47.79
876.199	60.07
876.371	21.16
876.544	12.97
876.717	43.69
876.889	-52.56
877.062	41.64
877.234	0.68
877.407	-15.7
877.579	55.98
877.752	37.55
877.924	2.73
878.097	27.31
878.269	-7.51
878.442	47.79
878.614	41.64
878.786	41.64
878.959	41.64
879.131	15.02
879.303	-52.56
879.476	-1.37
879.648	84.65
879.82	37.55
879.993	-32.08
880.165	15.02
880.337	-42.32
880.509	-38.23
880.681	-32.08
880.854	-75.09
881.026	51.88
881.198	66.22
881.37	8.87
881.542	31.4
881.714	-38.23
881.886	-7.51
882.058	8.87
882.23	51.88
882.402	25.26
882.574	-17.75
882.746	58.03
882.918	53.93
883.09	31.4
883.262	-97.62
883.434	15.02
883.606	-101.72
883.778	-9.56
883.95	62.12
884.122	-60.76
884.293	64.17
884.465	23.21
884.637	43.69
884.809	-19.8
884.98	-34.13
885.152	31.4
885.324	41.64
885.496	19.11
885.667	-7.51
885.839	4.78
886.011	47.79
886.182	62.12
886.354	33.45
886.525	43.69
886.697	92.84
886.869	-44.37
887.04	-1.37
887.212	17.07
887.383	72.36
887.555	19.11
887.726	27.31
887.897	-7.51
888.069	29.35
888.24	17.07
888.412	-21.84
888.583	-23.89
888.754	-27.99
888.926	-52.56
889.097	6.83
889.268	4.78
889.44	29.35
889.611	-85.33
889.782	-77.14
889.953	-66.9
890.125	0.68
890.296	4.78
890.467	2.73
890.638	-34.13
890.809	23.21
890.98	19.11
891.151	98.99
891.323	160.42
891.494	39.59
891.665	49.83
891.836	84.65
892.007	45.74
892.178	70.31
892.349	64.17
892.52	-25.94
892.691	-34.13
892.862	23.21
893.032	-42.32
893.203	64.17
893.374	47.79
893.545	76.46
893.716	-15.7
893.887	98.99
894.057	10.92
894.228	49.83
894.399	8.87
894.57	66.22
894.74	17.07
894.911	43.69
895.082	-54.61
895.253	25.26
895.423	-7.51
895.594	-27.99
895.764	-46.42
895.935	-27.99
896.106	55.98
896.276	-34.13
896.447	62.12
896.617	-32.08
896.788	15.02
896.958	-62.8
897.129	17.07
897.299	-11.61
897.47	82.6
897.64	78.51
897.81	37.55
897.981	4.78
898.151	-38.23
898.322	17.07
898.492	37.55
898.662	43.69
898.832	43.69
899.003	12.97
899.173	-7.51
899.343	53.93
899.513	-56.66
