Data from USB4F104151__33__12-11-51-508.txt Node

Date: Fri Mar 14 12:11:51 EDT 2025
User: louis
Spectrometer: USB4F10415
Trigger mode: 4
Integration Time (sec): 5.000000E-2
Scans to average: 1
Electric dark correction enabled: true
Nonlinearity correction enabled: false
Boxcar width: 0
XAxis mode: Wavelengths
Number of Pixels in Spectrum: 3648
>>>>>Begin Spectral Data<<<<<
178.204	-178
178.424	-178
178.644	-178
178.864	-286.54
179.084	-139.09
179.304	-8.02
179.524	-83.8
179.744	-83.8
179.964	-5.97
180.184	37.03
180.404	6.31
180.624	-3.93
180.844	32.94
181.064	63.66
181.283	45.23
181.503	32.94
181.723	-32.6
181.943	-61.27
182.163	18.6
182.383	-26.45
182.602	41.13
182.822	61.61
183.042	22.7
183.262	-69.46
183.482	14.51
183.701	-44.88
183.921	-26.45
184.141	-18.26
184.361	63.66
184.58	41.13
184.8	69.8
185.02	-22.36
185.239	94.38
185.459	-8.02
185.679	43.18
185.898	-75.6
186.118	-71.51
186.338	-36.69
186.557	37.03
186.777	-57.17
186.997	-3.93
187.216	-30.55
187.436	73.9
187.655	0.17
187.875	45.23
188.095	-18.26
188.314	34.99
188.534	34.99
188.753	-42.84
188.973	63.66
189.192	110.76
189.412	118.95
189.631	14.51
189.851	6.31
190.07	98.47
190.29	6.31
190.509	41.13
190.729	-42.84
190.948	-5.97
191.168	196.78
191.387	51.37
191.607	-106.32
191.826	30.89
192.045	-32.6
192.265	55.47
192.484	92.33
192.704	10.41
192.923	6.31
193.142	88.23
193.362	39.08
193.581	116.9
193.8	77.99
194.02	116.9
194.239	-12.12
194.458	18.6
194.678	-24.4
194.897	-24.4
195.116	45.23
195.335	-3.93
195.555	-14.17
195.774	6.31
195.993	-22.36
196.212	116.9
196.432	-14.17
196.651	-1.88
196.87	-32.6
197.089	207.02
197.308	10.41
197.528	73.9
197.747	-40.79
197.966	32.94
198.185	137.38
198.404	-38.74
198.623	116.9
198.842	131.24
199.062	94.38
199.281	96.43
199.5	-20.31
199.719	16.55
199.938	12.46
200.157	88.23
200.376	55.47
200.595	77.99
200.814	-12.12
201.033	-61.27
201.252	69.8
201.471	-32.6
201.69	34.99
201.909	53.42
202.128	73.9
202.347	8.36
202.566	12.46
202.785	55.47
203.004	12.46
203.223	110.76
203.442	6.31
203.661	-48.98
203.879	-44.88
204.098	10.41
204.317	16.55
204.536	26.79
204.755	49.32
204.974	-16.21
205.193	26.79
205.411	157.86
205.63	14.51
205.849	18.6
206.068	18.6
206.287	6.31
206.505	24.75
206.724	24.75
206.943	-1.88
207.162	32.94
207.381	-85.84
207.599	-12.12
207.818	6.31
208.037	63.66
208.255	4.27
208.474	145.58
208.693	-20.31
208.911	51.37
209.13	41.13
209.349	-20.31
209.567	-14.17
209.786	80.04
210.005	49.32
210.223	39.08
210.442	51.37
210.661	20.65
210.879	49.32
211.098	-3.93
211.316	4.27
211.535	82.09
211.753	-8.02
211.972	121
212.191	39.08
212.409	-46.93
212.628	-48.98
212.846	-30.55
213.065	39.08
213.283	118.95
213.502	-12.12
213.72	84.14
213.938	20.65
214.157	20.65
214.375	67.75
214.594	-5.97
214.812	-34.64
215.031	32.94
215.249	26.79
215.467	69.8
215.686	20.65
215.904	6.31
216.122	39.08
216.341	63.66
216.559	-16.21
216.778	12.46
216.996	-20.31
217.214	32.94
217.432	-3.93
217.651	-67.41
217.869	0.17
218.087	82.09
218.306	73.9
218.524	24.75
218.742	-16.21
218.96	100.52
219.179	18.6
219.397	-18.26
219.615	153.77
219.833	59.56
220.051	-16.21
220.27	49.32
220.488	121
220.706	55.47
220.924	37.03
221.142	63.66
221.36	8.36
221.578	16.55
221.796	-44.88
222.015	-5.97
222.233	18.6
222.451	65.71
222.669	28.84
222.887	-20.31
223.105	-55.12
223.323	24.75
223.541	-18.26
223.759	98.47
223.977	-18.26
224.195	92.33
224.413	65.71
224.631	-10.07
224.849	37.03
225.067	80.04
225.285	43.18
225.503	0.17
225.721	-40.79
225.939	32.94
226.157	14.51
226.375	166.06
226.592	-14.17
226.81	45.23
227.028	73.9
227.246	51.37
227.464	-59.22
227.682	-12.12
227.9	37.03
228.117	47.27
228.335	57.51
228.553	-5.97
228.771	-32.6
228.989	-51.03
229.206	2.22
229.424	86.19
229.642	-1.88
229.86	-26.45
230.077	61.61
230.295	20.65
230.513	39.08
230.731	18.6
230.948	86.19
231.166	80.04
231.384	-26.45
231.601	-30.55
231.819	43.18
232.037	-34.64
232.254	-87.89
232.472	-42.84
232.689	-16.21
232.907	24.75
233.125	4.27
233.342	-22.36
233.56	-1.88
233.777	-63.32
233.995	-57.17
234.213	59.56
234.43	30.89
234.648	102.57
234.865	-55.12
235.083	24.75
235.3	32.94
235.518	47.27
235.735	45.23
235.953	32.94
236.17	77.99
236.388	20.65
236.605	-12.12
236.822	118.95
237.04	10.41
237.257	37.03
237.475	-5.97
237.692	22.7
237.909	-8.02
238.127	-14.17
238.344	-16.21
238.562	84.14
238.779	-87.89
238.996	-44.88
239.214	26.79
239.431	73.9
239.648	-36.69
239.865	59.56
240.083	114.86
240.3	43.18
240.517	-38.74
240.735	26.79
240.952	55.47
241.169	69.8
241.386	-36.69
241.603	8.36
241.821	-46.93
242.038	20.65
242.255	104.62
242.472	-77.65
242.689	8.36
242.907	2.22
243.124	37.03
243.341	-34.64
243.558	-14.17
243.775	12.46
243.992	-36.69
244.209	84.14
244.426	77.99
244.643	41.13
244.86	20.65
245.078	84.14
245.295	-22.36
245.512	-3.93
245.729	12.46
245.946	-30.55
246.163	26.79
246.38	77.99
246.597	0.17
246.814	4.27
247.031	-10.07
247.248	34.99
247.464	49.32
247.681	-18.26
247.898	-24.4
248.115	20.65
248.332	-22.36
248.549	-44.88
248.766	149.67
248.983	94.38
249.2	49.32
249.417	80.04
249.633	34.99
249.85	24.75
250.067	26.79
250.284	37.03
250.501	55.47
250.717	-12.12
250.934	-102.23
251.151	22.7
251.368	-40.79
251.585	39.08
251.801	18.6
252.018	-5.97
252.235	14.51
252.451	8.36
252.668	-77.65
252.885	88.23
253.102	-28.5
253.318	-22.36
253.535	16.55
253.752	47.27
253.968	2.22
254.185	-22.36
254.401	-3.93
254.618	73.9
254.835	37.03
255.051	65.71
255.268	57.51
255.484	61.61
255.701	26.79
255.917	102.57
256.134	-55.12
256.351	69.8
256.567	-38.74
256.784	-36.69
257	0.17
257.217	-3.93
257.433	92.33
257.65	55.47
257.866	16.55
258.082	-24.4
258.299	20.65
258.515	18.6
258.732	-28.5
258.948	18.6
259.165	-28.5
259.381	12.46
259.597	24.75
259.814	6.31
260.03	69.8
260.246	-28.5
260.463	16.55
260.679	51.37
260.895	20.65
261.112	34.99
261.328	4.27
261.544	-10.07
261.761	92.33
261.977	-32.6
262.193	-44.88
262.409	75.95
262.626	88.23
262.842	18.6
263.058	-48.98
263.274	41.13
263.49	59.56
263.707	51.37
263.923	37.03
264.139	-28.5
264.355	69.8
264.571	112.81
264.787	8.36
265.004	34.99
265.22	-5.97
265.436	-53.08
265.652	53.42
265.868	16.55
266.084	-63.32
266.3	30.89
266.516	-30.55
266.732	-44.88
266.948	65.71
267.164	-18.26
267.38	2.22
267.596	2.22
267.812	96.43
268.028	28.84
268.244	-46.93
268.46	18.6
268.676	20.65
268.892	24.75
269.108	-5.97
269.324	-14.17
269.54	18.6
269.756	37.03
269.972	34.99
270.188	45.23
270.403	-120.66
270.619	4.27
270.835	-36.69
271.051	-3.93
271.267	10.41
271.483	-28.5
271.698	-12.12
271.914	24.75
272.13	32.94
272.346	-20.31
272.562	-3.93
272.777	51.37
272.993	-102.23
273.209	-46.93
273.425	55.47
273.64	2.22
273.856	63.66
274.072	-67.41
274.287	12.46
274.503	12.46
274.719	69.8
274.934	-1.88
275.15	-1.88
275.366	-30.55
275.581	71.85
275.797	-20.31
276.012	-24.4
276.228	69.8
276.444	47.27
276.659	73.9
276.875	-26.45
277.09	49.32
277.306	71.85
277.521	0.17
277.737	18.6
277.952	-32.6
278.168	-20.31
278.383	49.32
278.599	32.94
278.814	30.89
279.03	47.27
279.245	108.71
279.461	61.61
279.676	41.13
279.892	-46.93
280.107	-91.99
280.322	-34.64
280.538	12.46
280.753	-24.4
280.969	94.38
281.184	32.94
281.399	24.75
281.615	51.37
281.83	32.94
282.045	49.32
282.26	-89.94
282.476	-63.32
282.691	100.52
282.906	55.47
283.122	-5.97
283.337	4.27
283.552	45.23
283.767	-46.93
283.983	26.79
284.198	73.9
284.413	12.46
284.628	-34.64
284.843	12.46
285.058	51.37
285.274	-8.02
285.489	63.66
285.704	82.09
285.919	-3.93
286.134	2.22
286.349	-5.97
286.564	8.36
286.779	80.04
286.995	2.22
287.21	-55.12
287.425	51.37
287.64	-8.02
287.855	100.52
288.07	-63.32
288.285	57.51
288.5	39.08
288.715	28.84
288.93	-38.74
289.145	28.84
289.36	-14.17
289.575	24.75
289.79	77.99
290.004	10.41
290.219	43.18
290.434	10.41
290.649	2.22
290.864	-16.21
291.079	2.22
291.294	-30.55
291.509	67.75
291.724	12.46
291.938	0.17
292.153	6.31
292.368	22.7
292.583	45.23
292.798	100.52
293.012	94.38
293.227	104.62
293.442	10.41
293.657	26.79
293.871	82.09
294.086	39.08
294.301	96.43
294.516	20.65
294.73	45.23
294.945	-69.46
295.16	39.08
295.374	61.61
295.589	125.1
295.804	-61.27
296.018	26.79
296.233	37.03
296.447	18.6
296.662	10.41
296.877	34.99
297.091	18.6
297.306	16.55
297.52	-18.26
297.735	14.51
297.949	-36.69
298.164	14.51
298.378	-16.21
298.593	-83.8
298.807	-63.32
299.022	-71.51
299.236	45.23
299.451	63.66
299.665	55.47
299.88	-59.22
300.094	10.41
300.309	10.41
300.523	63.66
300.737	6.31
300.952	-51.03
301.166	-12.12
301.381	37.03
301.595	20.65
301.809	41.13
302.024	63.66
302.238	16.55
302.452	69.8
302.667	-32.6
302.881	26.79
303.095	34.99
303.309	88.23
303.524	-44.88
303.738	24.75
303.952	-24.4
304.166	77.99
304.381	-83.8
304.595	65.71
304.809	-22.36
305.023	30.89
305.237	110.76
305.452	34.99
305.666	94.38
305.88	45.23
306.094	114.86
306.308	16.55
306.522	18.6
306.736	47.27
306.95	100.52
307.164	37.03
307.379	-1.88
307.593	90.28
307.807	94.38
308.021	45.23
308.235	71.85
308.449	-48.98
308.663	69.8
308.877	143.53
309.091	-67.41
309.305	18.6
309.519	-53.08
309.733	77.99
309.947	-32.6
310.161	69.8
310.374	28.84
310.588	16.55
310.802	-16.21
311.016	-44.88
311.23	49.32
311.444	-3.93
311.658	0.17
311.872	153.77
312.085	67.75
312.299	-12.12
312.513	77.99
312.727	-14.17
312.941	8.36
313.154	16.55
313.368	67.75
313.582	45.23
313.796	-10.07
314.009	-8.02
314.223	57.51
314.437	55.47
314.651	2.22
314.864	-34.64
315.078	-1.88
315.292	-5.97
315.505	-36.69
315.719	30.89
315.933	8.36
316.146	32.94
316.36	-36.69
316.573	88.23
316.787	16.55
317.001	-8.02
317.214	-12.12
317.428	80.04
317.641	-18.26
317.855	-3.93
318.068	-5.97
318.282	49.32
318.495	67.75
318.709	71.85
318.922	-73.56
319.136	51.37
319.349	75.95
319.563	-32.6
319.776	26.79
319.99	-87.89
320.203	100.52
320.417	8.36
320.63	51.37
320.843	26.79
321.057	-24.4
321.27	-10.07
321.483	71.85
321.697	26.79
321.91	-38.74
322.124	47.27
322.337	41.13
322.55	30.89
322.763	98.47
322.977	-20.31
323.19	12.46
323.403	24.75
323.617	39.08
323.83	61.61
324.043	-44.88
324.256	67.75
324.469	-38.74
324.683	43.18
324.896	18.6
325.109	16.55
325.322	-14.17
325.535	67.75
325.748	24.75
325.962	-44.88
326.175	108.71
326.388	26.79
326.601	80.04
326.814	-26.45
327.027	49.32
327.24	61.61
327.453	-51.03
327.666	-26.45
327.879	100.52
328.092	-10.07
328.305	-30.55
328.518	22.7
328.731	-16.21
328.944	-1.88
329.157	-18.26
329.37	-38.74
329.583	84.14
329.796	98.47
330.009	-55.12
330.222	18.6
330.435	20.65
330.648	-42.84
330.861	-10.07
331.073	37.03
331.286	-5.97
331.499	80.04
331.712	-3.93
331.925	2.22
332.138	30.89
332.35	6.31
332.563	-14.17
332.776	18.6
332.989	-32.6
333.202	55.47
333.414	12.46
333.627	26.79
333.84	49.32
334.053	-89.94
334.265	6.31
334.478	-26.45
334.691	94.38
334.903	6.31
335.116	51.37
335.329	49.32
335.541	-51.03
335.754	77.99
335.966	6.31
336.179	26.79
336.392	47.27
336.604	-3.93
336.817	49.32
337.029	22.7
337.242	0.17
337.454	45.23
337.667	-1.88
337.88	75.95
338.092	75.95
338.305	57.51
338.517	6.31
338.729	112.81
338.942	8.36
339.154	-71.51
339.367	8.36
339.579	75.95
339.792	-28.5
340.004	55.47
340.217	49.32
340.429	18.6
340.641	-32.6
340.854	-87.89
341.066	12.46
341.278	43.18
341.491	121
341.703	34.99
341.915	-28.5
342.128	53.42
342.34	71.85
342.552	-79.7
342.764	12.46
342.977	-22.36
343.189	45.23
343.401	43.18
343.613	-8.02
343.826	41.13
344.038	-65.36
344.25	-3.93
344.462	-5.97
344.674	-30.55
344.886	26.79
345.099	82.09
345.311	8.36
345.523	-10.07
345.735	0.17
345.947	-10.07
346.159	75.95
346.371	28.84
346.583	10.41
346.795	37.03
347.007	24.75
347.219	59.56
347.431	22.7
347.643	67.75
347.855	63.66
348.067	67.75
348.279	6.31
348.491	16.55
348.703	30.89
348.915	67.75
349.127	28.84
349.339	43.18
349.551	20.65
349.763	59.56
349.975	41.13
350.187	69.8
350.399	57.51
350.61	37.03
350.822	65.71
351.034	73.9
351.246	8.36
351.458	102.57
351.669	53.42
351.881	121
352.093	96.43
352.305	153.77
352.517	37.03
352.728	137.38
352.94	88.23
353.152	49.32
353.363	-5.97
353.575	84.14
353.787	121
353.999	51.37
354.21	100.52
354.422	18.6
354.633	98.47
354.845	61.61
355.057	49.32
355.268	39.08
355.48	92.33
355.692	-20.31
355.903	-20.31
356.115	-28.5
356.326	-46.93
356.538	61.61
356.749	65.71
356.961	153.77
357.172	6.31
357.384	-51.03
357.595	49.32
357.807	34.99
358.018	18.6
358.23	49.32
358.441	125.1
358.653	53.42
358.864	61.61
359.075	2.22
359.287	84.14
359.498	80.04
359.709	20.65
359.921	37.03
360.132	61.61
360.344	24.75
360.555	-14.17
360.766	41.13
360.977	55.47
361.189	82.09
361.4	51.37
361.611	67.75
361.823	55.47
362.034	69.8
362.245	-16.21
362.456	-18.26
362.667	53.42
362.879	8.36
363.09	28.84
363.301	26.79
363.512	-69.46
363.723	32.94
363.935	-36.69
364.146	59.56
364.357	-12.12
364.568	-18.26
364.779	4.27
364.99	43.18
365.201	-77.65
365.412	127.14
365.623	-34.64
365.834	47.27
366.045	53.42
366.256	-28.5
366.467	47.27
366.678	-10.07
366.889	39.08
367.1	43.18
367.311	30.89
367.522	-16.21
367.733	16.55
367.944	86.19
368.155	-34.64
368.366	57.51
368.577	82.09
368.788	80.04
368.999	-63.32
369.209	-14.17
369.42	67.75
369.631	145.58
369.842	96.43
370.053	-3.93
370.264	59.56
370.474	-40.79
370.685	10.41
370.896	112.81
371.107	59.56
371.317	0.17
371.528	61.61
371.739	59.56
371.95	61.61
372.16	61.61
372.371	-69.46
372.582	20.65
372.792	30.89
373.003	26.79
373.214	16.55
373.424	131.24
373.635	49.32
373.846	57.51
374.056	-5.97
374.267	73.9
374.477	39.08
374.688	-38.74
374.898	-3.93
375.109	49.32
375.319	-12.12
375.53	8.36
375.74	59.56
375.951	26.79
376.161	-32.6
376.372	114.86
376.582	6.31
376.793	34.99
377.003	20.65
377.214	-1.88
377.424	90.28
377.635	8.36
377.845	16.55
378.055	43.18
378.266	-14.17
378.476	20.65
378.686	55.47
378.897	39.08
379.107	32.94
379.317	-32.6
379.528	-1.88
379.738	123.05
379.948	-34.64
380.158	55.47
380.369	-8.02
380.579	-5.97
380.789	-24.4
380.999	75.95
381.21	69.8
381.42	153.77
381.63	34.99
381.84	104.62
382.05	2.22
382.261	153.77
382.471	8.36
382.681	2.22
382.891	59.56
383.101	18.6
383.311	18.6
383.521	73.9
383.731	94.38
383.941	90.28
384.151	51.37
384.361	-28.5
384.571	123.05
384.781	86.19
384.991	14.51
385.201	127.14
385.411	110.76
385.621	-3.93
385.831	34.99
386.041	77.99
386.251	14.51
386.461	20.65
386.671	53.42
386.881	61.61
387.091	0.17
387.301	63.66
387.511	20.65
387.72	57.51
387.93	49.32
388.14	-8.02
388.35	-16.21
388.56	47.27
388.769	82.09
388.979	41.13
389.189	8.36
389.399	-1.88
389.609	65.71
389.818	69.8
390.028	6.31
390.238	47.27
390.447	28.84
390.657	49.32
390.867	30.89
391.076	30.89
391.286	47.27
391.496	-40.79
391.705	-28.5
391.915	84.14
392.125	104.62
392.334	-16.21
392.544	41.13
392.753	114.86
392.963	-34.64
393.172	28.84
393.382	6.31
393.591	98.47
393.801	34.99
394.01	34.99
394.22	75.95
394.429	26.79
394.639	94.38
394.848	-18.26
395.058	10.41
395.267	47.27
395.477	67.75
395.686	65.71
395.895	137.38
396.105	159.91
396.314	82.09
396.524	26.79
396.733	39.08
396.942	71.85
397.152	100.52
397.361	98.47
397.57	96.43
397.78	67.75
397.989	102.57
398.198	139.43
398.407	45.23
398.617	-22.36
398.826	69.8
399.035	41.13
399.244	176.3
399.453	4.27
399.663	118.95
399.872	116.9
400.081	2.22
400.29	121
400.499	37.03
400.708	170.15
400.917	94.38
401.127	137.38
401.336	34.99
401.545	45.23
401.754	98.47
401.963	67.75
402.172	75.95
402.381	69.8
402.59	96.43
402.799	32.94
403.008	135.34
403.217	90.28
403.426	59.56
403.635	-1.88
403.844	129.19
404.053	90.28
404.262	110.76
404.471	82.09
404.68	82.09
404.888	118.95
405.097	155.82
405.306	88.23
405.515	131.24
405.724	133.29
405.933	172.2
406.142	116.9
406.35	170.15
406.559	63.66
406.768	170.15
406.977	184.49
407.185	170.15
407.394	153.77
407.603	67.75
407.812	213.16
408.02	247.97
408.229	190.63
408.438	133.29
408.646	135.34
408.855	200.87
409.064	202.92
409.272	225.45
409.481	223.4
409.69	151.72
409.898	159.91
410.107	198.82
410.315	209.06
410.524	184.49
410.733	250.02
410.941	221.35
411.15	227.5
411.358	293.03
411.567	342.18
411.775	272.55
411.984	305.32
412.192	362.66
412.401	350.37
412.609	403.62
412.818	399.52
413.026	409.76
413.234	331.94
413.443	307.37
413.651	426.15
413.86	405.67
414.068	487.59
414.276	520.35
414.485	415.91
414.693	512.16
414.901	571.55
415.11	456.87
415.318	499.88
415.526	522.4
415.734	596.13
415.943	575.65
416.151	659.62
416.359	575.65
416.567	620.71
416.776	741.54
416.984	723.1
417.192	739.49
417.4	700.58
417.608	723.1
417.817	700.58
418.025	946.33
418.233	874.65
418.441	776.35
418.649	927.9
418.857	901.28
419.065	1015.96
419.273	958.62
419.481	1056.92
419.689	985.24
419.897	981.15
420.105	1056.92
420.313	1169.56
420.521	1202.33
420.729	1249.43
420.937	1228.95
421.145	1280.15
421.353	1441.94
421.561	1462.42
421.769	1503.38
421.977	1503.38
422.185	1515.67
422.393	1706.13
422.601	1777.81
422.809	1648.79
423.017	1720.46
423.224	1826.96
423.432	1878.16
423.64	1949.84
423.848	1968.27
424.056	1912.97
424.263	2130.06
424.471	2097.29
424.679	2248.84
424.887	2162.83
425.094	2289.8
425.302	2439.3
425.51	2398.34
425.718	2492.55
425.925	2549.89
426.133	2584.71
426.341	2865.28
426.548	2953.34
426.756	2865.28
426.964	3059.84
427.171	2988.16
427.379	3190.91
427.586	3139.71
427.794	3332.22
428.001	3580.02
428.209	3668.08
428.417	3528.82
428.624	3768.43
428.832	3780.72
429.039	3805.3
429.247	3770.48
429.454	4298.86
429.662	4444.26
429.869	4028.53
430.076	4382.82
430.284	4292.71
430.491	4485.22
430.699	4743.27
430.906	4724.83
431.114	4714.59
431.321	4892.77
431.528	5105.76
431.736	5341.27
431.943	5519.45
432.15	5431.38
432.358	5455.96
432.565	5920.85
432.772	5677.14
432.979	6053.97
433.187	6113.36
433.394	6232.14
433.601	6637.64
433.808	6477.9
434.016	6617.16
434.223	6694.98
434.43	7260.22
434.637	7090.24
434.844	7641.14
435.052	7807.03
435.259	7729.2
435.466	7778.36
435.673	7661.62
435.88	8122.41
436.087	8587.3
436.294	8511.53
436.501	8347.69
436.708	8507.43
436.915	8781.86
437.122	8960.03
437.329	8976.42
437.537	9517.08
437.743	9484.31
437.95	9457.69
438.157	9971.73
438.364	10299.41
438.571	10219.53
438.778	10512.39
438.985	11249.66
439.192	10704.9
439.399	11005.95
439.606	10872.84
439.813	11288.57
440.02	12425.2
440.227	11972.6
440.433	11794.42
440.64	12091.38
440.847	12267.5
441.054	12443.63
441.261	13332.45
441.467	12980.2
441.674	13393.89
441.881	13746.14
442.088	13815.77
442.294	13668.31
442.501	14251.99
442.708	14323.66
442.914	15065.03
443.121	15685.56
443.328	15095.75
443.534	16132.02
443.741	15718.33
443.948	15337.41
444.154	16482.22
444.361	16674.73
444.568	16850.86
444.774	16699.31
444.981	16789.42
445.187	17381.28
445.394	18087.83
445.6	17909.66
445.807	19548.03
446.013	18550.67
446.22	18964.36
446.426	19918.71
446.633	19916.67
446.839	20580.21
447.046	19545.98
447.252	20914.03
447.459	21084.01
447.665	20696.94
447.871	21925.72
448.078	22804.3
448.284	21864.29
448.491	22114.14
448.697	23193.42
448.903	23461.7
449.11	23582.53
449.316	22751.06
449.522	23732.03
449.728	24338.23
449.935	24450.87
450.141	24309.56
450.347	24999.73
450.553	24278.84
450.76	24334.14
450.966	25128.75
451.172	25044.78
451.378	25511.72
451.584	24952.62
451.791	25632.55
451.997	25693.99
452.203	25618.21
452.409	25990.94
452.615	25622.31
452.821	24831.79
453.027	24313.66
453.233	25728.8
453.44	24686.39
453.646	24932.14
453.852	25235.24
454.058	25511.72
454.264	24690.48
454.47	25345.83
454.676	24506.16
454.882	25313.06
455.088	23041.87
455.294	23787.33
455.5	23729.98
455.705	24129.34
455.911	22974.28
456.117	22456.15
456.323	22269.78
456.529	21153.64
456.735	22275.93
456.941	21434.21
457.147	21075.82
457.352	20363.12
457.558	20039.54
457.764	20246.39
457.97	19961.72
458.176	19337.09
458.381	19324.8
458.587	18278.29
458.793	18528.14
458.999	17336.23
459.204	18718.61
459.41	18274.2
459.616	16768.94
459.821	17016.74
460.027	16596.91
460.233	16322.48
460.438	15630.27
460.644	15751.1
460.85	15245.25
461.055	14989.25
461.261	14641.1
461.466	13672.41
461.672	12988.39
461.878	14149.59
462.083	13230.05
462.289	12855.27
462.494	12863.46
462.7	12199.92
462.905	11933.68
463.111	12228.59
463.316	12238.83
463.522	12019.7
463.727	12040.18
463.932	12103.67
464.138	11716.6
464.343	12095.47
464.549	11476.99
464.754	11988.98
464.959	11823.09
465.165	11567.1
465.37	11220.99
465.575	10899.46
465.781	11395.07
465.986	11380.73
466.191	10983.43
466.397	10651.66
466.602	10094.61
466.807	10393.61
467.012	10620.94
467.218	10713.1
467.423	10307.6
467.628	10346.51
467.833	10926.08
468.038	10369.04
468.244	9912.34
468.449	10405.9
468.654	10285.07
468.859	9986.07
469.064	10065.94
469.269	9660.44
469.474	9646.1
469.679	9961.49
469.885	9674.78
470.09	9685.01
470.295	9662.49
470.5	9404.44
470.705	9363.48
470.91	9412.64
471.115	9095.2
471.32	9250.85
471.525	9343
471.73	8986.66
471.935	8874.02
472.139	8706.09
472.344	8755.24
472.549	8650.79
472.754	8509.48
472.959	8421.42
473.164	8220.72
473.369	7983.15
473.574	8589.35
473.778	8233.01
473.983	8249.39
474.188	8194.09
474.393	7843.89
474.598	7870.51
474.802	7604.28
475.007	7747.64
475.212	7737.4
475.417	7434.3
475.621	7422.01
475.826	7456.82
476.031	7366.71
476.235	7067.71
476.44	7403.58
476.645	6975.55
476.849	7153.73
477.054	7028.8
477.259	6924.35
477.463	6973.5
477.668	6766.66
477.872	6918.21
478.077	6512.71
478.282	6402.12
478.486	6555.72
478.691	6430.79
478.895	6416.46
479.1	6371.4
479.304	6326.35
479.509	6185.04
479.713	6254.67
479.918	6115.41
480.122	6000.72
480.326	6131.79
480.531	6123.6
480.735	5935.18
480.94	6002.77
481.144	6226
481.348	5834.83
481.553	6154.32
481.757	5773.39
481.961	5937.23
482.166	5832.79
482.37	5896.27
482.574	5879.89
482.778	5896.27
482.983	5955.66
483.187	6010.96
483.391	5787.73
483.595	5748.82
483.8	5836.88
484.004	5912.66
484.208	5976.14
484.412	6000.72
484.616	5855.31
484.821	5701.72
485.025	5664.85
485.229	5701.72
485.433	5689.43
485.637	5714
485.841	5773.39
486.045	5703.76
486.249	5875.79
486.453	5683.28
486.657	5808.21
486.861	5709.91
487.065	5677.14
487.269	5597.27
487.473	5638.23
487.677	5773.39
487.881	5763.15
488.085	5783.63
488.289	5730.39
488.493	5742.68
488.697	5785.68
488.901	5894.22
489.105	5791.83
489.309	5865.55
489.512	5883.98
489.716	5812.31
489.92	5838.93
490.124	5730.39
490.328	6033.49
490.531	5828.69
490.735	5810.26
490.939	5783.63
491.143	5720.15
491.346	5945.42
491.55	5816.4
491.754	5980.24
491.958	6008.91
492.161	5912.66
492.365	5840.98
492.569	5980.24
492.772	5746.77
492.976	6182.99
493.18	5994.58
493.383	5988.43
493.587	6062.16
493.79	6355.02
493.994	6080.59
494.197	6168.65
494.401	6348.87
494.605	6205.52
494.808	6338.63
495.012	6279.24
495.215	6527.05
495.419	6568.01
495.622	6649.93
495.825	6488.14
496.029	6785.09
496.232	6721.6
496.436	6684.74
496.639	6965.31
496.843	6783.04
497.046	6785.09
497.249	7047.23
497.453	7036.99
497.656	6891.59
497.859	6914.11
498.063	7303.23
498.266	7215.16
498.469	7178.3
498.673	7243.84
498.876	7534.65
499.079	7602.23
499.282	7503.93
499.485	7755.83
499.689	7704.63
499.892	8011.82
500.095	7790.64
500.298	7884.85
500.501	7727.16
500.705	8032.3
500.908	8314.92
501.111	8196.14
501.314	8398.89
501.517	8493.1
501.72	8577.06
501.923	8630.31
502.126	8749.09
502.329	8845.35
502.532	9060.38
502.735	9119.78
502.938	9070.62
503.141	9035.81
503.344	9254.94
503.547	9367.58
503.75	9463.83
503.953	9592.86
504.156	9633.82
504.359	9754.65
504.562	9633.82
504.765	10006.55
504.968	10096.66
505.17	10178.58
505.373	10231.82
505.576	10360.84
505.779	10479.63
505.982	10541.07
506.185	10770.44
506.387	10526.73
506.59	10850.31
506.793	11034.63
506.996	11083.78
507.198	11356.16
507.401	11200.51
507.604	11403.26
507.807	11616.25
508.009	11538.43
508.212	11855.86
508.415	11788.28
508.617	11853.81
508.82	12027.89
509.022	11995.12
509.225	12441.58
509.428	12371.95
509.63	12290.03
509.833	12523.5
510.035	12828.65
510.238	12746.73
510.44	12789.74
510.643	13090.79
510.845	13404.13
511.048	12953.57
511.25	13402.08
511.453	13408.22
511.655	13596.64
511.858	13848.54
512.06	13850.58
512.262	13926.36
512.465	13819.86
512.667	14170.07
512.87	14276.56
513.072	14419.92
513.274	14501.84
513.477	14421.97
513.679	14700.49
513.881	14942.15
514.084	15052.74
514.286	14854.09
514.488	15142.85
514.69	15413.18
514.893	15339.46
515.095	15519.68
515.297	15706.04
515.499	15863.74
515.701	16056.25
515.904	16035.77
516.106	16052.15
516.308	16658.35
516.51	16678.83
516.712	16521.13
516.914	16254.9
517.116	17006.5
517.318	16957.35
517.52	17164.2
517.722	17043.37
517.925	17117.09
518.127	17397.67
518.329	17772.44
518.531	17360.8
518.733	17858.46
518.935	17749.92
519.136	17872.79
519.338	18169.75
519.54	18323.35
519.742	18243.48
519.944	18386.83
520.146	18816.91
520.348	18771.85
520.55	18648.97
520.752	18634.64
520.954	18884.49
521.155	18671.5
521.357	19228.55
521.559	19281.8
521.761	19804.03
521.963	19384.19
522.164	19240.84
522.366	19873.66
522.568	19668.86
522.77	19898.24
522.971	20193.14
523.173	20035.45
523.375	20111.22
523.576	20162.42
523.778	19814.27
523.98	20524.91
524.181	20348.79
524.383	20299.64
524.584	20809.58
524.786	20477.81
524.988	20688.75
525.189	20742
525.391	21090.15
525.592	20705.13
525.794	21200.74
525.995	21430.12
526.197	21434.21
526.398	21030.76
526.6	21374.82
526.801	21419.88
527.003	21286.76
527.204	21387.11
527.406	21710.69
527.607	21356.39
527.808	21686.11
528.01	21358.44
528.211	21407.59
528.412	22019.93
528.614	21768.03
528.815	21677.92
529.016	21944.16
529.218	21573.47
529.419	21714.78
529.62	21698.4
529.822	21555.04
530.023	21661.54
530.224	21804.89
530.425	21524.32
530.626	21747.55
530.828	21612.38
531.029	21884.76
531.23	22050.65
531.431	21880.67
531.632	21966.68
531.833	21970.78
532.035	21915.48
532.236	21985.12
532.437	22212.44
532.638	21964.64
532.839	22175.58
533.04	22091.61
533.241	21628.77
533.442	22376.28
533.643	21960.54
533.844	22091.61
534.045	22171.48
534.246	21964.64
534.447	22083.42
534.648	21925.72
534.849	22048.6
535.05	21548.9
535.251	21817.18
535.451	21614.43
535.652	22069.08
535.853	21954.4
536.054	21874.52
536.255	22341.46
536.456	21741.41
536.657	22015.83
536.857	21993.31
537.058	22021.98
537.259	22107.99
537.46	21735.26
537.66	22050.65
537.861	21837.66
538.062	21788.51
538.263	21825.37
538.463	21776.22
538.664	21800.8
538.865	22124.38
539.065	22056.79
539.266	21559.14
539.466	21927.77
539.667	21722.98
539.868	21694.3
540.068	21997.4
540.269	21831.52
540.469	21845.85
540.67	21485.41
540.87	21935.96
541.071	21733.22
541.271	21706.59
541.472	21768.03
541.672	21776.22
541.873	21679.97
542.073	21786.46
542.274	21845.85
542.474	21858.14
542.675	21725.02
542.875	21952.35
543.075	21813.09
543.276	21436.26
543.476	22130.52
543.676	21761.89
543.877	21518.18
544.077	21864.29
544.277	21659.49
544.478	21710.69
544.678	21925.72
544.878	21542.75
545.078	21698.4
545.279	21622.62
545.479	21649.25
545.679	21350.24
545.879	21649.25
546.079	21782.37
546.28	21493.6
546.48	21426.02
546.68	21538.66
546.88	21585.76
547.08	21649.25
547.28	21471.08
547.48	21299.05
547.68	21630.82
547.88	21290.85
548.081	21415.78
548.281	21389.16
548.481	21350.24
548.681	21897.05
548.881	21428.07
549.081	21559.14
549.28	21458.79
549.48	21331.81
549.68	21536.61
549.88	21989.21
550.08	21444.45
550.28	21555.04
550.48	21505.89
550.68	21557.09
550.88	21329.77
551.08	21161.83
551.279	21415.78
551.479	21231.46
551.679	21456.74
551.879	21256.04
552.079	21462.88
552.278	21428.07
552.478	21219.17
552.678	21303.14
552.878	21614.43
553.077	21237.61
553.277	21344.1
553.477	21632.86
553.676	21442.4
553.876	21407.59
554.076	21292.9
554.275	21180.26
554.475	20918.12
554.674	21407.59
554.874	21364.58
555.074	21141.35
555.273	21319.53
555.473	21491.55
555.672	21208.94
555.872	21264.23
556.071	21272.42
556.271	21636.96
556.47	21292.9
556.67	21159.78
556.869	21075.82
557.068	21299.05
557.268	21077.87
557.467	21030.76
557.667	21147.5
557.866	21253.99
558.065	21147.5
558.265	21092.2
558.464	21104.49
558.663	21315.43
558.863	20911.98
559.062	21215.08
559.261	21092.2
559.461	21299.05
559.66	20897.64
559.859	21135.21
560.058	21038.95
560.258	21210.98
560.457	20981.61
560.656	21063.53
560.855	21233.51
561.054	21041
561.253	21026.67
561.453	21098.34
561.652	20850.54
561.851	21206.89
562.05	20887.4
562.249	20981.61
562.448	21145.45
562.647	20823.92
562.846	20854.64
563.045	21208.94
563.244	20832.11
563.443	21018.47
563.642	20539.25
563.841	21065.58
564.04	20922.22
564.239	21272.42
564.438	20952.94
564.637	20924.27
564.836	20967.27
565.035	20752.24
565.234	21012.33
565.432	20776.81
565.631	20850.54
565.83	20696.94
566.029	20891.5
566.228	20774.77
566.427	20721.52
566.625	20649.84
566.824	20621.17
567.023	20817.77
567.222	20567.92
567.42	20821.87
567.619	20639.6
567.818	20703.09
568.016	20664.18
568.215	20868.97
568.414	20690.8
568.612	20936.56
568.811	20682.61
569.01	20758.38
569.208	20629.36
569.407	20758.38
569.605	20395.89
569.804	20551.54
570.002	20303.73
570.201	20604.78
570.4	20561.78
570.598	20461.43
570.797	20336.5
570.995	20244.34
571.193	20756.33
571.392	20625.26
571.59	20371.32
571.789	20234.1
571.987	20502.39
572.186	20211.57
572.384	20320.12
572.582	20518.77
572.781	20721.52
572.979	20266.87
573.177	20410.23
573.376	20289.4
573.574	20076.41
573.772	20316.02
573.971	20283.25
574.169	20363.12
574.367	19984.25
574.565	20539.25
574.763	19982.2
574.962	20187
575.16	20160.38
575.358	20227.96
575.556	19953.53
575.754	20369.27
575.952	20039.54
576.151	20146.04
576.349	20213.62
576.547	19844.99
576.745	19904.38
576.943	19959.67
577.141	19744.64
577.339	19971.96
577.537	19941.24
577.735	19928.95
577.933	20137.85
578.131	19822.46
578.329	19998.59
578.527	19754.88
578.725	19787.64
578.923	19834.75
579.121	19849.08
579.319	19656.57
579.516	19539.84
579.714	19904.38
579.912	19494.79
580.11	19646.33
580.308	19660.67
580.506	19451.78
580.704	19484.55
580.901	19695.49
581.099	19836.8
581.297	19595.14
581.495	19406.72
581.692	19668.86
581.89	19359.62
582.088	19709.82
582.285	19552.13
582.483	19726.21
582.681	19459.97
582.878	19275.65
583.076	19349.38
583.274	19353.48
583.471	19232.65
583.669	19234.69
583.866	19128.2
584.064	19363.72
584.262	19206.02
584.459	19398.53
584.657	19472.26
584.854	19556.22
585.052	18923.4
585.249	19251.08
585.447	19322.76
585.644	19077
585.841	19517.31
586.039	19238.79
586.236	18839.44
586.434	19017.61
586.631	19074.95
586.828	19220.36
587.026	19023.75
587.223	19060.62
587.42	19068.81
587.618	19285.89
587.815	18755.47
588.012	19029.9
588.21	18864.01
588.407	19079.05
588.604	18782.09
588.801	18823.05
588.999	18960.27
589.196	18972.55
589.393	19060.62
589.59	18876.3
589.787	18821
589.984	18810.76
590.182	18636.69
590.379	18849.68
590.576	18818.96
590.773	19029.9
590.97	18982.79
591.167	18761.61
591.364	18583.44
591.561	18876.3
591.758	18933.64
591.955	18915.21
592.152	18567.06
592.349	18767.76
592.546	18790.28
592.743	19091.34
592.94	18409.36
593.137	18931.59
593.334	18734.99
593.531	18614.16
593.727	18782.09
593.924	18974.6
594.121	18356.11
594.318	18796.43
594.515	18687.89
594.712	18765.71
594.908	18472.85
595.105	18610.06
595.302	18499.47
595.499	18595.73
595.696	18947.98
595.892	18456.47
596.089	18440.08
596.286	18642.83
596.482	18476.94
596.679	18759.56
596.876	18593.68
597.072	18560.91
597.269	18833.29
597.466	18567.06
597.662	18419.6
597.859	18597.77
598.055	18622.35
598.252	19009.42
598.448	18839.44
598.645	18509.71
598.841	18362.26
599.038	18794.38
599.234	18749.32
599.431	18487.18
599.627	18732.94
599.824	18909.07
600.02	18483.09
600.217	18589.58
600.413	18425.75
600.609	18622.35
600.806	18761.61
601.002	18642.83
601.198	18581.39
601.395	18425.75
601.591	18591.63
601.787	18749.32
601.984	18747.28
602.18	18839.44
602.376	18687.89
602.572	18782.09
602.769	18808.72
602.965	18474.9
603.161	18931.59
603.357	18612.11
603.553	18909.07
603.75	18749.32
603.946	18759.56
604.142	18767.76
604.338	18902.92
604.534	18847.63
604.73	18812.81
604.926	19009.42
605.122	19029.9
605.318	18438.03
605.514	18800.52
605.71	18739.08
605.906	18757.52
606.102	18935.69
606.298	19150.73
606.494	18923.4
606.69	18900.87
606.886	18956.17
607.082	18698.13
607.278	19134.34
607.474	18734.99
607.67	19040.14
607.866	18737.04
608.062	19433.35
608.257	19054.47
608.453	19171.21
608.649	19376
608.845	19054.47
609.041	19105.67
609.236	19234.69
609.432	19386.24
609.628	19507.07
609.824	19308.42
610.019	19085.19
610.215	19554.18
610.411	19470.21
610.606	19359.62
610.802	19425.15
610.998	19421.06
611.193	19646.33
611.389	19197.83
611.584	19433.35
611.78	19449.73
611.976	19554.18
612.171	19742.59
612.367	19695.49
612.562	19505.03
612.758	19359.62
612.953	19484.55
613.149	19955.58
613.344	19406.72
613.539	19763.07
613.735	19767.17
613.93	20150.14
614.126	19611.52
614.321	19744.64
614.517	20205.43
614.712	20066.17
614.907	19867.52
615.103	20227.96
615.298	19857.28
615.493	20270.97
615.688	19795.84
615.884	20336.5
616.079	19767.17
616.274	20240.25
616.47	19978.11
616.665	20207.48
616.86	20139.9
617.055	20240.25
617.25	20178.81
617.445	20164.47
617.641	19974.01
617.836	20535.15
618.031	19910.52
618.226	20070.26
618.421	20014.97
618.616	20354.93
618.811	20176.76
619.006	20330.36
619.201	19971.96
619.396	19908.47
619.591	19744.64
619.786	20293.49
619.981	19931
620.176	20043.64
620.371	19787.64
620.566	19754.88
620.761	19758.97
620.956	19926.91
621.151	19419.01
621.346	19976.06
621.541	19568.51
621.735	19793.79
621.93	19394.43
622.125	19554.18
622.32	19439.49
622.515	19441.54
622.709	19183.49
622.904	19711.87
623.099	19271.56
623.294	19578.75
623.488	19310.47
623.683	19191.69
623.878	19099.53
624.072	19179.4
624.267	19036.04
624.462	18929.55
624.656	18835.34
624.851	18872.2
625.046	18886.54
625.24	18720.65
625.435	18761.61
625.629	18728.84
625.824	18573.2
626.018	18481.04
626.213	18153.37
626.407	18335.63
626.602	18171.8
626.796	18173.85
626.991	18524.05
627.185	18157.46
627.38	17956.76
627.574	18118.55
627.768	17723.29
627.963	18177.94
628.157	17606.56
628.352	17686.43
628.546	17371.04
628.74	17788.83
628.935	17348.51
629.129	17561.5
629.323	17250.21
629.517	17434.53
629.712	17188.77
629.906	16971.69
630.1	16834.47
630.294	17086.37
630.489	17125.29
630.683	17033.13
630.877	16740.27
631.071	16809.9
631.265	16656.3
631.459	16813.99
631.653	16617.39
631.848	16574.38
632.042	16381.87
632.236	16793.51
632.43	16535.47
632.624	16336.82
632.818	16226.23
633.012	16289.71
633.206	16289.71
633.4	16086.97
633.594	15814.59
633.788	15951.8
633.982	15857.59
634.176	16027.57
634.369	15724.47
634.563	15601.6
634.757	15722.43
634.951	15478.72
635.145	15448
635.339	15435.71
635.533	15349.7
635.726	15413.18
635.92	15177.67
636.114	14890.95
636.308	14981.06
636.501	14931.91
636.695	15192
636.889	14798.79
637.083	14792.65
637.276	14581.71
637.47	14526.41
637.664	14452.69
637.857	14641.1
638.051	14376.91
638.244	14251.99
638.438	14467.02
638.632	14221.27
638.825	14049.24
639.019	13969.37
639.212	14069.72
639.406	13895.64
639.599	14112.72
639.793	13823.96
639.986	13549.53
640.18	13645.79
640.373	13541.34
640.567	13420.51
640.76	13240.29
640.954	13281.25
641.147	13123.55
641.34	13033.44
641.534	13285.34
641.727	13213.67
641.92	13070.31
642.114	12904.42
642.307	12910.57
642.5	12724.2
642.694	12507.12
642.887	12478.44
643.08	12607.47
643.273	12656.62
643.467	12402.67
643.66	12298.22
643.853	12038.13
644.046	12175.34
644.239	12093.43
644.432	11884.53
644.626	11862.01
644.819	11814.9
645.012	11771.9
645.205	11681.78
645.398	11765.75
645.591	11388.92
645.784	11515.9
645.977	11220.99
646.17	11417.6
646.363	11253.76
646.556	11012.1
646.749	11022.34
646.942	11210.75
647.135	11063.3
647.328	10551.31
647.521	10721.29
647.714	10717.19
647.907	10530.83
648.099	10694.66
648.292	10506.25
648.485	10422.28
648.678	10297.36
648.871	10418.19
649.064	10201.1
649.256	10248.21
649.449	9885.72
649.642	9930.77
649.835	9926.68
650.027	9965.59
650.22	10002.45
650.413	9916.44
650.605	9738.26
650.798	9777.17
650.991	9740.31
651.183	9555.99
651.376	9369.63
651.568	9543.71
651.761	9275.42
651.954	9429.02
652.146	9216.03
652.339	9275.42
652.531	9156.64
652.724	9007.14
652.916	9130.02
653.109	9097.25
653.301	9052.19
653.494	9109.54
653.686	8763.43
653.879	8945.7
654.071	8749.09
654.263	8572.97
654.456	8665.13
654.648	8728.61
654.84	8292.4
655.033	8773.67
655.225	8540.2
655.417	8167.47
655.61	8228.91
655.802	8333.36
655.994	8312.88
656.186	8341.55
656.379	8007.73
656.571	8077.36
656.763	8040.5
656.955	7737.4
657.148	8054.83
657.34	7764.02
657.532	7696.44
657.724	7419.96
657.916	7669.81
658.108	7872.56
658.3	7501.88
658.492	7342.14
658.684	7407.67
658.876	7497.78
659.068	7372.86
659.26	7356.47
659.452	7411.77
659.644	7374.91
659.836	7200.83
660.028	7172.16
660.22	7028.8
660.412	7096.38
660.604	6922.31
660.796	6987.84
660.988	6912.07
661.18	6629.45
661.372	6748.23
661.563	6819.91
661.755	6559.81
661.947	6658.12
662.139	6502.47
662.331	6496.33
662.522	6338.63
662.714	6426.7
662.906	6387.79
663.097	6375.5
663.289	6228.04
663.481	6135.89
663.673	6082.64
663.864	6056.01
664.056	6195.28
664.247	6234.19
664.439	5935.18
664.631	5957.71
664.822	5810.26
665.014	5902.42
665.205	5965.9
665.397	5808.21
665.588	5722.2
665.78	5765.2
665.971	5666.9
666.163	5746.77
666.354	5738.58
666.546	5539.93
666.737	5611.61
666.929	5611.61
667.12	5371.99
667.311	5451.86
667.503	5386.33
667.694	5279.83
667.885	5433.43
668.077	5464.15
668.268	5199.96
668.459	5304.41
668.651	5230.68
668.842	5150.81
669.033	5109.85
669.224	5089.37
669.416	5238.87
669.607	5081.18
669.798	5007.45
669.989	5134.43
670.18	5027.93
670.371	4978.78
670.563	4925.54
670.754	4892.77
670.945	4796.51
671.136	4915.3
671.327	4911.2
671.518	4722.79
671.709	4888.67
671.9	4952.16
672.091	4706.4
672.282	4673.64
672.473	4765.79
672.664	4972.64
672.855	4657.25
673.046	4706.4
673.237	4755.55
673.428	4546.66
673.619	4659.3
673.809	4530.28
674	4573.28
674.191	4708.45
674.382	4620.39
674.573	4548.71
674.764	4515.94
674.954	4608.1
675.145	4237.42
675.336	4595.81
675.527	4601.96
675.717	4423.78
675.908	4341.86
676.099	4434.02
676.289	4530.28
676.48	4415.59
676.671	4294.76
676.861	4534.37
677.052	4343.91
677.243	4280.43
677.433	4442.21
677.624	4411.5
677.814	4249.71
678.005	4343.91
678.195	4345.96
678.386	4294.76
678.576	4284.52
678.767	4309.1
678.957	4214.89
679.148	4290.67
679.338	4370.54
679.529	4321.38
679.719	4216.94
679.909	4249.71
680.1	4196.46
680.29	4266.09
680.481	4159.6
680.671	4159.6
680.861	4255.85
681.052	4268.14
681.242	4257.9
681.432	4360.3
681.622	4204.65
681.813	4188.27
682.003	4251.75
682.193	4163.69
682.383	4227.18
682.573	4221.03
682.764	4032.62
682.954	3934.32
683.144	4249.71
683.334	4122.73
683.524	4249.71
683.714	4216.94
683.904	4280.43
684.094	4300.91
684.284	4055.15
684.474	4358.25
684.664	4270.19
684.854	4087.92
685.044	4245.61
685.234	4114.54
685.424	4243.56
685.614	4124.78
685.804	4149.36
685.994	4247.66
686.184	4216.94
686.374	4216.94
686.564	4034.67
686.753	4092.01
686.943	4079.72
687.133	4194.41
687.323	4141.16
687.513	4122.73
687.702	4223.08
687.892	4204.65
688.082	4126.83
688.272	4210.79
688.461	4112.49
688.651	4079.72
688.841	4130.92
689.03	4141.16
689.22	4008.05
689.41	4137.07
689.599	4120.68
689.789	4104.3
689.979	4096.11
690.168	4155.5
690.358	4264.04
690.547	4139.12
690.737	4089.96
690.926	4264.04
691.116	4128.88
691.305	4196.46
691.495	4132.97
691.684	4130.92
691.874	4159.6
692.063	4055.15
692.252	4190.31
692.442	4114.54
692.631	3934.32
692.82	4214.89
693.01	4100.2
693.199	4114.54
693.388	4081.77
693.578	4018.29
693.767	4194.41
693.956	4114.54
694.146	4139.12
694.335	4139.12
694.524	4169.84
694.713	4112.49
694.902	4311.14
695.092	4147.31
695.281	4202.6
695.47	4309.1
695.659	4157.55
695.848	4120.68
696.037	4163.69
696.226	4266.09
696.415	4063.34
696.604	4319.34
696.793	4333.67
696.982	4319.34
697.171	4372.58
697.36	4323.43
697.549	4268.14
697.738	4327.53
697.927	4243.56
698.116	4321.38
698.305	4282.47
698.494	4302.95
698.683	4249.71
698.872	4360.3
699.061	4116.59
699.25	4284.52
699.438	4249.71
699.627	4233.32
699.816	4364.39
700.005	4118.64
700.193	4255.85
700.382	4403.3
700.571	4227.18
700.76	4339.82
700.948	4341.86
701.137	4313.19
701.326	4327.53
701.514	4388.97
701.703	4321.38
701.892	4175.98
702.08	4563.05
702.269	4180.07
702.457	4182.12
702.646	4305
702.834	4296.81
703.023	4278.38
703.212	4388.97
703.4	4180.07
703.589	4302.95
703.777	4204.65
703.965	4186.22
704.154	4315.24
704.342	4257.9
704.531	4290.67
704.719	4284.52
704.907	4366.44
705.096	4245.61
705.284	4237.42
705.472	4245.61
705.661	4278.38
705.849	4288.62
706.037	4386.92
706.226	4200.55
706.414	4323.43
706.602	4018.29
706.79	4290.67
706.979	4366.44
707.167	4261.99
707.355	4137.07
707.543	4294.76
707.731	4401.26
707.919	4200.55
708.107	4268.14
708.296	4143.21
708.484	4350.06
708.672	4278.38
708.86	4102.25
709.048	4266.09
709.236	4239.47
709.424	4165.74
709.612	4302.95
709.8	4200.55
709.988	4167.79
710.176	4210.79
710.364	3997.81
710.551	4012.14
710.739	4030.57
710.927	4024.43
711.115	4116.59
711.303	4110.44
711.491	4126.83
711.679	4104.3
711.866	4073.58
712.054	4063.34
712.242	4051.05
712.43	4223.08
712.617	4016.24
712.805	4110.44
712.993	3977.33
713.181	4114.54
713.368	3969.13
713.556	4075.63
713.744	3915.89
713.931	4083.82
714.119	4024.43
714.306	4003.95
714.494	3946.61
714.682	3975.28
714.869	3967.09
715.057	4049
715.244	4044.91
715.432	3854.45
715.619	3885.17
715.807	3956.85
715.994	3879.02
716.182	3817.58
716.369	3952.75
716.556	4077.68
716.744	3782.77
716.931	3889.26
717.119	3934.32
717.306	3829.87
717.493	3905.65
717.681	3782.77
717.868	3770.48
718.055	3879.02
718.242	3850.35
718.43	3872.88
718.617	3778.67
718.804	3776.63
718.991	3965.04
719.179	3917.93
719.366	3739.76
719.553	3782.77
719.74	3823.73
719.927	3717.23
720.114	3790.96
720.301	3704.95
720.488	3735.67
720.676	3696.75
720.863	3672.18
721.05	3821.68
721.237	3764.34
721.424	3727.47
721.611	3725.43
721.798	3786.86
721.985	3547.25
722.172	3659.89
722.358	3657.84
722.545	3760.24
722.732	3702.9
722.919	3745.91
723.106	3518.58
723.293	3672.18
723.48	3455.09
723.667	3547.25
723.853	3530.87
724.04	3557.49
724.227	3565.68
724.414	3491.96
724.6	3512.44
724.787	3729.52
724.974	3715.19
725.161	3547.25
725.347	3459.19
725.534	3465.33
725.72	3485.81
725.907	3512.44
726.094	3614.84
726.28	3502.2
726.467	3633.27
726.653	3412.09
726.84	3522.68
727.027	3666.03
727.213	3446.9
727.4	3383.42
727.586	3364.98
727.773	3389.56
727.959	3283.06
728.145	3414.13
728.332	3496.05
728.518	3383.42
728.705	3358.84
728.891	3440.76
729.077	3416.18
729.264	3379.32
729.45	3317.88
729.636	3405.94
729.823	3213.43
730.009	3373.18
730.195	3369.08
730.382	3381.37
730.568	3221.63
730.754	3289.21
730.94	3383.42
731.126	3381.37
731.313	3307.64
731.499	3278.97
731.685	3285.11
731.871	3235.96
732.057	3195
732.243	3311.74
732.429	3289.21
732.615	3268.73
732.801	3143.8
732.987	3225.72
733.173	3254.39
733.359	3184.76
733.545	3274.87
733.731	3133.56
733.917	3172.47
734.103	3145.85
734.289	3121.28
734.475	3080.32
734.661	3272.82
734.847	3115.13
735.033	3070.08
735.219	3065.98
735.404	3022.97
735.59	3147.9
735.776	2961.53
735.962	3014.78
736.148	3102.84
736.333	3055.74
736.519	3076.22
736.705	3115.13
736.89	3145.85
737.076	3012.73
737.262	2885.76
737.447	3020.92
737.633	3006.59
737.819	2994.3
738.004	2951.29
738.19	2889.85
738.375	2867.33
738.561	2893.95
738.747	2918.53
738.932	2875.52
739.118	2914.43
739.303	2799.74
739.489	2939.01
739.674	2814.08
739.859	2758.78
740.045	2852.99
740.23	2912.38
740.416	2732.16
740.601	2736.26
740.786	2801.79
740.972	2732.16
741.157	2699.39
741.342	2756.74
741.528	2687.11
741.713	2660.48
741.898	2699.39
742.084	2701.44
742.269	2537.6
742.454	2738.3
742.639	2629.76
742.824	2703.49
743.01	2699.39
743.195	2754.69
743.38	2617.47
743.565	2617.47
743.75	2597
743.935	2461.83
744.12	2597
744.305	2488.45
744.49	2560.13
744.675	2467.97
744.86	2496.64
745.045	2445.45
745.23	2412.68
745.415	2457.73
745.6	2582.66
745.785	2400.39
745.97	2535.56
746.155	2373.77
746.34	2394.25
746.525	2390.15
746.71	2400.39
746.895	2310.28
747.079	2449.54
747.264	2324.62
747.449	2363.53
747.634	2246.79
747.819	2312.33
748.003	2234.5
748.188	2240.65
748.373	2252.94
748.557	2191.5
748.742	2148.49
748.927	2234.5
749.111	2128.01
749.296	2173.07
749.481	2156.68
749.665	2183.31
749.85	2035.85
750.034	2132.11
750.219	2117.77
750.404	2062.48
750.588	2093.19
750.773	1919.12
750.957	2113.67
751.141	1966.22
751.326	2033.8
751.51	1872.01
751.695	1888.4
751.879	2019.47
752.064	2058.38
752.248	1943.69
752.432	1929.36
752.617	1982.6
752.801	1943.69
752.985	1853.58
753.17	1962.12
753.354	1960.08
753.538	1874.06
753.722	1800.34
753.907	1869.97
754.091	1738.9
754.275	1874.06
754.459	1753.23
754.643	1798.29
754.828	1788.05
755.012	1722.51
755.196	1601.68
755.38	1728.66
755.564	1740.94
755.748	1697.94
755.932	1749.14
756.116	1683.6
756.3	1736.85
756.484	1693.84
756.668	1638.55
756.852	1515.67
757.036	1581.2
757.22	1554.58
757.404	1620.11
757.588	1644.69
757.772	1681.55
757.956	1603.73
758.14	1618.07
758.323	1476.76
758.507	1476.76
758.691	1525.91
758.875	1523.86
759.059	1538.2
759.242	1491.09
759.426	1489.04
759.61	1513.62
759.794	1355.93
759.977	1607.83
760.161	1566.87
760.345	1452.18
760.528	1388.69
760.712	1425.56
760.895	1472.66
761.079	1433.75
761.263	1446.04
761.446	1319.06
761.63	1376.41
761.813	1435.8
761.997	1390.74
762.18	1425.56
762.364	1370.26
762.547	1321.11
762.731	1263.77
762.914	1255.58
763.098	1357.97
763.281	1271.96
763.464	1192.09
763.648	1302.68
763.831	1284.25
764.015	1235.1
764.198	1364.12
764.381	1384.6
764.564	1368.21
764.748	1376.41
764.931	1294.49
765.114	1392.79
765.297	1345.69
765.481	1194.14
765.664	1171.61
765.847	1194.14
766.03	1216.66
766.213	1265.82
766.397	1185.94
766.58	1204.38
766.763	1222.81
766.946	1218.71
767.129	1216.66
767.312	1192.09
767.495	1134.75
767.678	1192.09
767.861	1265.82
768.044	1157.27
768.227	1216.66
768.41	1085.59
768.593	1126.55
768.776	1091.74
768.959	1175.7
769.142	1214.62
769.324	1155.23
769.507	1144.99
769.69	1210.52
769.873	1204.38
770.056	1187.99
770.239	1108.12
770.421	1165.46
770.604	1110.17
770.787	1110.17
770.97	1177.75
771.152	1147.03
771.335	1087.64
771.518	1052.83
771.7	1163.42
771.883	1167.51
772.066	1024.16
772.248	1106.07
772.431	1161.37
772.613	1104.03
772.796	1149.08
772.978	1024.16
773.161	1095.83
773.343	987.29
773.526	1063.07
773.708	1081.5
773.891	1001.63
774.073	1081.5
774.256	1048.73
774.438	1028.25
774.621	886.94
774.803	972.96
774.985	958.62
775.168	981.15
775.35	1009.82
775.532	999.58
775.715	888.99
775.897	991.39
776.079	925.85
776.261	1007.77
776.444	796.83
776.626	1009.82
776.808	913.56
776.99	903.32
777.173	864.41
777.355	913.56
777.537	878.75
777.719	854.17
777.901	899.23
778.083	815.26
778.265	790.69
778.447	888.99
778.629	868.51
778.811	911.52
778.993	868.51
779.175	876.7
779.357	841.89
779.539	673.95
779.721	872.61
779.903	725.15
780.085	768.16
780.267	776.35
780.449	759.97
780.631	891.04
780.812	721.06
780.994	692.38
781.176	700.58
781.358	680.1
781.54	684.19
781.721	784.54
781.903	800.93
782.085	704.67
782.267	729.25
782.448	616.61
782.63	741.54
782.812	628.9
782.993	708.77
783.175	678.05
783.357	563.36
783.538	671.9
783.72	641.18
783.901	673.95
784.083	639.14
784.264	661.66
784.446	612.51
784.627	600.23
784.809	739.49
784.99	710.82
785.172	641.18
785.353	684.19
785.535	536.74
785.716	632.99
785.897	446.63
786.079	610.47
786.26	678.05
786.441	546.98
786.623	581.79
786.804	618.66
786.985	583.84
787.167	661.66
787.348	516.26
787.529	516.26
787.71	657.57
787.891	585.89
788.073	487.59
788.254	514.21
788.435	635.04
788.616	557.22
788.797	495.78
788.978	546.98
789.159	489.64
789.34	491.68
789.522	460.96
789.703	442.53
789.884	501.92
790.065	465.06
790.246	506.02
790.427	551.07
790.607	452.77
790.788	526.5
790.969	350.37
791.15	438.44
791.331	426.15
791.512	477.35
791.693	452.77
791.874	454.82
792.054	532.64
792.235	542.88
792.416	409.76
792.597	444.58
792.778	481.44
792.958	387.24
793.139	422.05
793.32	389.28
793.5	411.81
793.681	524.45
793.862	442.53
794.042	463.01
794.223	354.47
794.404	411.81
794.584	370.85
794.765	374.95
794.945	395.43
795.126	411.81
795.306	350.37
795.487	354.47
795.667	450.72
795.848	424.1
796.028	356.52
796.209	407.72
796.389	432.29
796.57	336.04
796.75	368.81
796.93	362.66
797.111	350.37
797.291	391.33
797.471	352.42
797.652	348.33
797.832	266.41
798.012	460.96
798.192	219.3
798.373	340.13
798.553	272.55
798.733	397.48
798.913	317.61
799.093	393.38
799.274	360.61
799.454	354.47
799.634	383.14
799.814	399.52
799.994	286.89
800.174	303.27
800.354	358.57
800.534	307.37
800.714	348.33
800.894	258.21
801.074	284.84
801.254	313.51
801.434	295.08
801.614	305.32
801.794	213.16
801.974	1304.73
802.154	317.61
802.334	333.99
802.514	278.69
802.693	297.13
802.873	325.8
803.053	407.72
803.233	336.04
803.413	319.65
803.592	266.41
803.772	196.78
803.952	321.7
804.131	213.16
804.311	198.82
804.491	288.93
804.67	221.35
804.85	245.93
805.03	264.36
805.209	297.13
805.389	266.41
805.568	166.06
805.748	268.45
805.928	288.93
806.107	268.45
806.287	225.45
806.466	278.69
806.646	258.21
806.825	268.45
807.004	258.21
807.184	239.78
807.363	274.6
807.543	264.36
807.722	151.72
807.901	370.85
808.081	211.11
808.26	198.82
808.439	266.41
808.619	346.28
808.798	215.21
808.977	284.84
809.156	290.98
809.336	323.75
809.515	241.83
809.694	196.78
809.873	147.62
810.052	313.51
810.231	288.93
810.411	207.02
810.59	221.35
810.769	200.87
810.948	182.44
811.127	159.91
811.306	174.25
811.485	215.21
811.664	258.21
811.843	217.26
812.022	174.25
812.201	207.02
812.38	276.65
812.559	145.58
812.737	198.82
812.916	139.43
813.095	176.3
813.274	178.34
813.453	137.38
813.632	182.44
813.811	172.2
813.989	174.25
814.168	137.38
814.347	102.57
814.526	159.91
814.704	217.26
814.883	233.64
815.062	143.53
815.24	155.82
815.419	166.06
815.598	270.5
815.776	90.28
815.955	174.25
816.133	125.1
816.312	155.82
816.49	159.91
816.669	159.91
816.847	137.38
817.026	241.83
817.204	137.38
817.383	116.9
817.561	215.21
817.74	196.78
817.918	100.52
818.097	182.44
818.275	96.43
818.453	170.15
818.632	202.92
818.81	211.11
818.988	108.71
819.167	114.86
819.345	112.81
819.523	84.14
819.701	172.2
819.879	155.82
820.058	51.37
820.236	151.72
820.414	100.52
820.592	178.34
820.77	159.91
820.948	145.58
821.127	47.27
821.305	75.95
821.483	53.42
821.661	190.63
821.839	168.1
822.017	88.23
822.195	145.58
822.373	202.92
822.551	80.04
822.729	225.45
822.907	172.2
823.085	166.06
823.262	51.37
823.44	170.15
823.618	123.05
823.796	159.91
823.974	192.68
824.152	114.86
824.329	69.8
824.507	114.86
824.685	176.3
824.863	82.09
825.04	98.47
825.218	108.71
825.396	55.47
825.574	157.86
825.751	147.62
825.929	137.38
826.107	53.42
826.284	84.14
826.462	100.52
826.639	114.86
826.817	63.66
826.994	135.34
827.172	37.03
827.349	151.72
827.527	143.53
827.704	30.89
827.882	77.99
828.059	98.47
828.237	102.57
828.414	178.34
828.591	34.99
828.769	133.29
828.946	61.61
829.124	135.34
829.301	114.86
829.478	149.67
829.655	190.63
829.833	135.34
830.01	88.23
830.187	94.38
830.364	65.71
830.542	67.75
830.719	67.75
830.896	125.1
831.073	118.95
831.25	67.75
831.427	116.9
831.604	59.56
831.782	57.51
831.959	116.9
832.136	49.32
832.313	118.95
832.49	43.18
832.667	86.19
832.844	37.03
833.021	151.72
833.198	88.23
833.374	88.23
833.551	110.76
833.728	37.03
833.905	116.9
834.082	57.51
834.259	63.66
834.436	98.47
834.612	-59.22
834.789	80.04
834.966	12.46
835.143	127.14
835.319	-20.31
835.496	14.51
835.673	110.76
835.85	41.13
836.026	114.86
836.203	135.34
836.38	125.1
836.556	127.14
836.733	77.99
836.909	77.99
837.086	49.32
837.262	-3.93
837.439	59.56
837.616	-1.88
837.792	55.47
837.968	102.57
838.145	65.71
838.321	55.47
838.498	53.42
838.674	133.29
838.851	102.57
839.027	131.24
839.203	139.43
839.38	139.43
839.556	-3.93
839.732	22.7
839.909	102.57
840.085	125.1
840.261	28.84
840.437	12.46
840.614	73.9
840.79	153.77
840.966	67.75
841.142	123.05
841.318	104.62
841.494	108.71
841.671	30.89
841.847	4.27
842.023	61.61
842.199	61.61
842.375	151.72
842.551	-42.84
842.727	28.84
842.903	73.9
843.079	37.03
843.255	75.95
843.431	92.33
843.607	108.71
843.783	-5.97
843.959	106.67
844.134	57.51
844.31	82.09
844.486	73.9
844.662	2.22
844.838	61.61
845.013	-36.69
845.189	6.31
845.365	45.23
845.541	26.79
845.716	-14.17
845.892	219.3
846.068	37.03
846.244	-53.08
846.419	108.71
846.595	-14.17
846.77	6.31
846.946	69.8
847.122	45.23
847.297	118.95
847.473	131.24
847.648	-3.93
847.824	-5.97
847.999	0.17
848.175	24.75
848.35	86.19
848.526	65.71
848.701	71.85
848.876	20.65
849.052	-8.02
849.227	-12.12
849.403	55.47
849.578	18.6
849.753	30.89
849.929	-3.93
850.104	-46.93
850.279	8.36
850.454	121
850.63	69.8
850.805	-5.97
850.98	92.33
851.155	75.95
851.33	73.9
851.505	-1.88
851.681	90.28
851.856	-51.03
852.031	131.24
852.206	45.23
852.381	-48.98
852.556	-67.41
852.731	-3.93
852.906	51.37
853.081	-12.12
853.256	121
853.431	-1.88
853.606	6.31
853.781	16.55
853.956	14.51
854.131	55.47
854.305	39.08
854.48	32.94
854.655	-5.97
854.83	43.18
855.005	-46.93
855.18	53.42
855.354	55.47
855.529	32.94
855.704	28.84
855.879	86.19
856.053	28.84
856.228	63.66
856.403	-32.6
856.577	-48.98
856.752	-14.17
856.926	-34.64
857.101	49.32
857.276	-3.93
857.45	8.36
857.625	41.13
857.799	80.04
857.974	18.6
858.148	-3.93
858.323	39.08
858.497	45.23
858.672	-28.5
858.846	-10.07
859.02	47.27
859.195	-30.55
859.369	39.08
859.543	30.89
859.718	22.7
859.892	-10.07
860.066	43.18
860.241	-24.4
860.415	-38.74
860.589	6.31
860.763	57.51
860.938	6.31
861.112	-42.84
861.286	-53.08
861.46	22.7
861.634	37.03
861.808	32.94
861.982	-22.36
862.157	-18.26
862.331	-3.93
862.505	20.65
862.679	-75.6
862.853	16.55
863.027	12.46
863.201	112.81
863.375	-5.97
863.549	75.95
863.722	55.47
863.896	137.38
864.07	39.08
864.244	26.79
864.418	-28.5
864.592	2.22
864.766	32.94
864.939	-10.07
865.113	-5.97
865.287	39.08
865.461	30.89
865.634	125.1
865.808	-48.98
865.982	-3.93
866.156	-38.74
866.329	2.22
866.503	8.36
866.676	65.71
866.85	-24.4
867.024	90.28
867.197	-24.4
867.371	61.61
867.544	94.38
867.718	-53.08
867.891	39.08
868.065	2.22
868.238	16.55
868.412	12.46
868.585	22.7
868.759	-46.93
868.932	-10.07
869.105	-57.17
869.279	18.6
869.452	-22.36
869.625	24.75
869.799	-10.07
869.972	-20.31
870.145	-75.6
870.319	-5.97
870.492	12.46
870.665	45.23
870.838	24.75
871.011	-65.36
871.185	2.22
871.358	-26.45
871.531	8.36
871.704	43.18
871.877	12.46
872.05	-32.6
872.223	-34.64
872.396	12.46
872.569	-12.12
872.742	-96.08
872.915	-12.12
873.088	28.84
873.261	-26.45
873.434	57.51
873.607	-18.26
873.78	51.37
873.953	-24.4
874.126	-1.88
874.299	16.55
874.471	-57.17
874.644	-40.79
874.817	75.95
874.99	32.94
875.163	-53.08
875.335	57.51
875.508	22.7
875.681	-8.02
875.853	-30.55
876.026	-59.22
876.199	55.47
876.371	-104.28
876.544	-77.65
876.717	22.7
876.889	-63.32
877.062	18.6
877.234	-34.64
877.407	-14.17
877.579	-34.64
877.752	-18.26
877.924	6.31
878.097	110.76
878.269	-1.88
878.442	30.89
878.614	-38.74
878.786	28.84
878.959	114.86
879.131	100.52
879.303	-14.17
879.476	-44.88
879.648	82.09
879.82	-5.97
879.993	-26.45
880.165	-16.21
880.337	-67.41
880.509	10.41
880.681	2.22
880.854	-8.02
881.026	57.51
881.198	34.99
881.37	-20.31
881.542	-57.17
881.714	57.51
881.886	-3.93
882.058	-12.12
882.23	-20.31
882.402	24.75
882.574	96.43
882.746	53.42
882.918	63.66
883.09	10.41
883.262	63.66
883.434	6.31
883.606	30.89
883.778	-75.6
883.95	102.57
884.122	0.17
884.293	30.89
884.465	37.03
884.637	43.18
884.809	0.17
884.98	-5.97
885.152	18.6
885.324	26.79
885.496	-5.97
885.667	-69.46
885.839	-10.07
886.011	125.1
886.182	-77.65
886.354	16.55
886.525	51.37
886.697	-16.21
886.869	-124.76
887.04	-14.17
887.212	123.05
887.383	118.95
887.555	6.31
887.726	-34.64
887.897	43.18
888.069	45.23
888.24	-38.74
888.412	-51.03
888.583	-18.26
888.754	41.13
888.926	-53.08
889.097	-102.23
889.268	-44.88
889.44	24.75
889.611	8.36
889.782	0.17
889.953	-22.36
890.125	53.42
890.296	-96.08
890.467	-51.03
890.638	8.36
890.809	4.27
890.98	-26.45
891.151	-55.12
891.323	77.99
891.494	-1.88
891.665	-71.51
891.836	-98.13
892.007	47.27
892.178	51.37
892.349	-32.6
892.52	-20.31
892.691	43.18
892.862	-22.36
893.032	-20.31
893.203	-65.36
893.374	-73.56
893.545	39.08
893.716	-38.74
893.887	47.27
894.057	-26.45
894.228	-30.55
894.399	-26.45
894.57	-12.12
894.74	4.27
894.911	-32.6
895.082	4.27
895.253	-57.17
895.423	18.6
895.594	26.79
895.764	-36.69
895.935	-46.93
896.106	-16.21
896.276	34.99
896.447	30.89
896.617	10.41
896.788	-34.64
896.958	-22.36
897.129	-8.02
897.299	8.36
897.47	-8.02
897.64	10.41
897.81	-12.12
897.981	-30.55
898.151	0.17
898.322	6.31
898.492	18.6
898.662	8.36
898.832	-34.64
899.003	75.95
899.173	-55.12
899.343	-22.36
899.513	-30.55
