Data from USB4F104151__21__12-11-41-509.txt Node

Date: Fri Mar 14 12:11:41 EDT 2025
User: louis
Spectrometer: USB4F10415
Trigger mode: 4
Integration Time (sec): 5.000000E-2
Scans to average: 1
Electric dark correction enabled: true
Nonlinearity correction enabled: false
Boxcar width: 0
XAxis mode: Wavelengths
Number of Pixels in Spectrum: 3648
>>>>>Begin Spectral Data<<<<<
178.204	-167.08
178.424	-167.08
178.644	-167.08
178.864	-189.61
179.084	-199.85
179.304	29.52
179.524	2.9
179.744	11.09
179.964	58.2
180.184	41.81
180.404	2.9
180.624	-64.68
180.844	-3.24
181.064	-140.46
181.283	52.05
181.503	-17.58
181.723	27.48
181.943	-85.16
182.163	86.87
182.383	-13.48
182.602	70.48
182.822	88.92
183.042	86.87
183.262	43.86
183.482	50
183.701	33.62
183.921	54.1
184.141	11.09
184.361	70.48
184.58	37.72
184.8	68.44
185.02	-62.63
185.239	105.3
185.459	-19.63
185.679	150.36
185.898	-56.49
186.118	2.9
186.338	-7.34
186.557	90.96
186.777	4.95
186.997	-42.15
187.216	50
187.436	131.92
187.655	95.06
187.875	78.68
188.095	80.72
188.314	47.96
188.534	60.24
188.753	-13.48
188.973	31.57
189.192	95.06
189.412	111.44
189.631	-13.48
189.851	47.96
190.07	97.11
190.29	-17.58
190.509	21.33
190.729	-36.01
190.948	93.01
191.168	205.65
191.387	129.88
191.607	76.63
191.826	99.16
192.045	17.24
192.265	-19.63
192.484	37.72
192.704	-17.58
192.923	-33.96
193.142	121.68
193.362	7
193.581	70.48
193.8	66.39
194.02	9.05
194.239	23.38
194.458	62.29
194.678	-48.3
194.897	39.76
195.116	-3.24
195.335	64.34
195.555	107.35
195.774	-7.34
195.993	111.44
196.212	15.19
196.432	41.81
196.651	7
196.87	-50.35
197.089	74.58
197.308	43.86
197.528	56.15
197.747	7
197.966	-5.29
198.185	68.44
198.404	43.86
198.623	50
198.842	82.77
199.062	93.01
199.281	127.83
199.5	-23.72
199.719	93.01
199.938	76.63
200.157	62.29
200.376	43.86
200.595	70.48
200.814	0.85
201.033	-62.63
201.252	60.24
201.471	97.11
201.69	19.29
201.909	7
202.128	35.67
202.347	25.43
202.566	-23.72
202.785	72.53
203.004	-9.39
203.223	47.96
203.442	58.2
203.661	13.14
203.879	66.39
204.098	84.82
204.317	9.05
204.536	56.15
204.755	15.19
204.974	138.07
205.193	99.16
205.411	205.65
205.63	-31.91
205.849	47.96
206.068	13.14
206.287	15.19
206.505	50
206.724	13.14
206.943	0.85
207.162	-3.24
207.381	64.34
207.599	105.3
207.818	19.29
208.037	-27.82
208.255	0.85
208.474	52.05
208.693	31.57
208.911	-42.15
209.13	99.16
209.349	21.33
209.567	54.1
209.786	64.34
210.005	17.24
210.223	7
210.442	-89.26
210.661	82.77
210.879	80.72
211.098	9.05
211.316	-40.11
211.535	-9.39
211.753	2.9
211.972	15.19
212.191	50
212.409	13.14
212.628	39.76
212.846	50
213.065	95.06
213.283	13.14
213.502	17.24
213.72	68.44
213.938	-72.87
214.157	0.85
214.375	33.62
214.594	78.68
214.812	-50.35
215.031	7
215.249	-50.35
215.467	33.62
215.686	64.34
215.904	119.64
216.122	-9.39
216.341	133.97
216.559	86.87
216.778	148.31
216.996	101.2
217.214	66.39
217.432	9.05
217.651	7
217.869	60.24
218.087	15.19
218.306	23.38
218.524	29.52
218.742	19.29
218.96	23.38
219.179	58.2
219.397	9.05
219.615	119.64
219.833	84.82
220.051	23.38
220.27	97.11
220.488	101.2
220.706	17.24
220.924	9.05
221.142	39.76
221.36	39.76
221.578	119.64
221.796	52.05
222.015	9.05
222.233	23.38
222.451	111.44
222.669	-1.19
222.887	47.96
223.105	-3.24
223.323	-19.63
223.541	17.24
223.759	56.15
223.977	23.38
224.195	103.25
224.413	56.15
224.631	88.92
224.849	45.91
225.067	109.4
225.285	21.33
225.503	50
225.721	-50.35
225.939	-52.39
226.157	43.86
226.375	146.26
226.592	-9.39
226.81	64.34
227.028	43.86
227.246	109.4
227.464	-21.67
227.682	105.3
227.9	-5.29
228.117	60.24
228.335	-11.43
228.553	0.85
228.771	-19.63
228.989	99.16
229.206	41.81
229.424	4.95
229.642	-19.63
229.86	13.14
230.077	35.67
230.295	7
230.513	88.92
230.731	74.58
230.948	54.1
231.166	76.63
231.384	97.11
231.601	45.91
231.819	105.3
232.037	19.29
232.254	-5.29
232.472	-9.39
232.689	35.67
232.907	11.09
233.125	15.19
233.342	19.29
233.56	41.81
233.777	45.91
233.995	43.86
234.213	19.29
234.43	27.48
234.648	7
234.865	13.14
235.083	60.24
235.3	-9.39
235.518	19.29
235.735	105.3
235.953	78.68
236.17	45.91
236.388	54.1
236.605	-3.24
236.822	84.82
237.04	60.24
237.257	17.24
237.475	19.29
237.692	23.38
237.909	54.1
238.127	27.48
238.344	35.67
238.562	50
238.779	2.9
238.996	15.19
239.214	62.29
239.431	82.77
239.648	47.96
239.865	99.16
240.083	84.82
240.3	68.44
240.517	-64.68
240.735	21.33
240.952	72.53
241.169	93.01
241.386	-23.72
241.603	-23.72
241.821	43.86
242.038	54.1
242.255	68.44
242.472	-25.77
242.689	11.09
242.907	78.68
243.124	25.43
243.341	-11.43
243.558	35.67
243.775	37.72
243.992	9.05
244.209	93.01
244.426	95.06
244.643	45.91
244.86	39.76
245.078	37.72
245.295	72.53
245.512	-7.34
245.729	70.48
245.946	80.72
246.163	23.38
246.38	76.63
246.597	13.14
246.814	99.16
247.031	-1.19
247.248	19.29
247.464	117.59
247.681	23.38
247.898	17.24
248.115	21.33
248.332	-11.43
248.549	64.34
248.766	148.31
248.983	68.44
249.2	-19.63
249.417	136.02
249.633	-19.63
249.85	115.54
250.067	52.05
250.284	70.48
250.501	9.05
250.717	97.11
250.934	-19.63
251.151	-36.01
251.368	47.96
251.585	15.19
251.801	-13.48
252.018	43.86
252.235	86.87
252.451	-7.34
252.668	-15.53
252.885	25.43
253.102	-5.29
253.318	-3.24
253.535	39.76
253.752	-11.43
253.968	17.24
254.185	0.85
254.401	82.77
254.618	56.15
254.835	62.29
255.051	95.06
255.268	39.76
255.484	39.76
255.701	4.95
255.917	74.58
256.134	23.38
256.351	27.48
256.567	-40.11
256.784	76.63
257	2.9
257.217	27.48
257.433	70.48
257.65	9.05
257.866	72.53
258.082	-91.31
258.299	-21.67
258.515	41.81
258.732	17.24
258.948	7
259.165	35.67
259.381	41.81
259.597	86.87
259.814	52.05
260.03	-9.39
260.246	68.44
260.463	131.92
260.679	82.77
260.895	86.87
261.112	72.53
261.328	-64.68
261.544	43.86
261.761	219.99
261.977	-1.19
262.193	-56.49
262.409	39.76
262.626	54.1
262.842	-42.15
263.058	72.53
263.274	21.33
263.49	66.39
263.707	25.43
263.923	68.44
264.139	-72.87
264.355	7
264.571	56.15
264.787	56.15
265.004	74.58
265.22	50
265.436	-29.87
265.652	47.96
265.868	127.83
266.084	39.76
266.3	64.34
266.516	-11.43
266.732	66.39
266.948	68.44
267.164	29.52
267.38	21.33
267.596	41.81
267.812	43.86
268.028	7
268.244	-23.72
268.46	-17.58
268.676	-33.96
268.892	86.87
269.108	13.14
269.324	31.57
269.54	-36.01
269.756	80.72
269.972	-76.97
270.188	7
270.403	-11.43
270.619	133.97
270.835	-95.4
271.051	29.52
271.267	41.81
271.483	-9.39
271.698	27.48
271.914	-3.24
272.13	99.16
272.346	0.85
272.562	31.57
272.777	58.2
272.993	41.81
273.209	-44.2
273.425	7
273.64	-17.58
273.856	11.09
274.072	-124.07
274.287	-21.67
274.503	23.38
274.719	97.11
274.934	-23.72
275.15	0.85
275.366	54.1
275.581	-46.25
275.797	33.62
276.012	-9.39
276.228	35.67
276.444	35.67
276.659	82.77
276.875	-17.58
277.09	25.43
277.306	50
277.521	0.85
277.737	-5.29
277.952	29.52
278.168	-1.19
278.383	86.87
278.599	70.48
278.814	66.39
279.03	74.58
279.245	43.86
279.461	50
279.676	119.64
279.892	41.81
280.107	-23.72
280.322	31.57
280.538	15.19
280.753	-48.3
280.969	-1.19
281.184	37.72
281.399	93.01
281.615	25.43
281.83	27.48
282.045	39.76
282.26	62.29
282.476	70.48
282.691	41.81
282.906	11.09
283.122	41.81
283.337	-87.21
283.552	78.68
283.767	-15.53
283.983	15.19
284.198	19.29
284.413	105.3
284.628	-62.63
284.843	2.9
285.058	56.15
285.274	84.82
285.489	4.95
285.704	13.14
285.919	19.29
286.134	31.57
286.349	93.01
286.564	29.52
286.779	136.02
286.995	70.48
287.21	-5.29
287.425	39.76
287.64	-62.63
287.855	-11.43
288.07	-29.87
288.285	43.86
288.5	-25.77
288.715	90.96
288.93	-46.25
289.145	-56.49
289.36	13.14
289.575	25.43
289.79	82.77
290.004	31.57
290.219	80.72
290.434	72.53
290.649	50
290.864	54.1
291.079	39.76
291.294	11.09
291.509	31.57
291.724	29.52
291.938	60.24
292.153	45.91
292.368	-9.39
292.583	82.77
292.798	54.1
293.012	41.81
293.227	78.68
293.442	105.3
293.657	86.87
293.871	138.07
294.086	54.1
294.301	150.36
294.516	95.06
294.73	9.05
294.945	-1.19
295.16	4.95
295.374	121.68
295.589	109.4
295.804	-19.63
296.018	62.29
296.233	47.96
296.447	-7.34
296.662	9.05
296.877	82.77
297.091	-27.82
297.306	84.82
297.52	-3.24
297.735	60.24
297.949	74.58
298.164	113.49
298.378	86.87
298.593	-42.15
298.807	47.96
299.022	52.05
299.236	95.06
299.451	-62.63
299.665	47.96
299.88	23.38
300.094	35.67
300.309	23.38
300.523	25.43
300.737	74.58
300.952	-29.87
301.166	31.57
301.381	-9.39
301.595	-36.01
301.809	62.29
302.024	19.29
302.238	-5.29
302.452	15.19
302.667	56.15
302.881	27.48
303.095	154.45
303.309	66.39
303.524	41.81
303.738	4.95
303.952	11.09
304.166	66.39
304.381	-66.73
304.595	21.33
304.809	43.86
305.023	-17.58
305.237	0.85
305.452	95.06
305.666	23.38
305.88	74.58
306.094	62.29
306.308	68.44
306.522	74.58
306.736	-21.67
306.95	50
307.164	-19.63
307.379	17.24
307.593	117.59
307.807	164.69
308.021	107.35
308.235	82.77
308.449	-76.97
308.663	41.81
308.877	117.59
309.091	-23.72
309.305	97.11
309.519	-27.82
309.733	86.87
309.947	-17.58
310.161	105.3
310.374	101.2
310.588	152.4
310.802	-72.87
311.016	88.92
311.23	-3.24
311.444	-40.11
311.658	56.15
311.872	41.81
312.085	33.62
312.299	9.05
312.513	156.5
312.727	80.72
312.941	15.19
313.154	2.9
313.368	47.96
313.582	21.33
313.796	-1.19
314.009	54.1
314.223	133.97
314.437	99.16
314.651	19.29
314.864	33.62
315.078	27.48
315.292	-15.53
315.505	62.29
315.719	95.06
315.933	-5.29
316.146	60.24
316.36	17.24
316.573	70.48
316.787	27.48
317.001	62.29
317.214	-1.19
317.428	60.24
317.641	-11.43
317.855	50
318.068	72.53
318.282	29.52
318.495	47.96
318.709	7
318.922	19.29
319.136	74.58
319.349	136.02
319.563	-15.53
319.776	76.63
319.99	-3.24
320.203	86.87
320.417	39.76
320.63	23.38
320.843	131.92
321.057	50
321.27	117.59
321.483	64.34
321.697	146.26
321.91	17.24
322.124	33.62
322.337	66.39
322.55	47.96
322.763	66.39
322.977	29.52
323.19	37.72
323.403	-52.39
323.617	45.91
323.83	68.44
324.043	-1.19
324.256	23.38
324.469	72.53
324.683	127.83
324.896	103.25
325.109	13.14
325.322	0.85
325.535	176.98
325.748	-17.58
325.962	39.76
326.175	54.1
326.388	47.96
326.601	74.58
326.814	-25.77
327.027	86.87
327.24	103.25
327.453	-52.39
327.666	62.29
327.879	70.48
328.092	101.2
328.305	66.39
328.518	25.43
328.731	19.29
328.944	136.02
329.157	72.53
329.37	62.29
329.583	47.96
329.796	62.29
330.009	-27.82
330.222	62.29
330.435	80.72
330.648	86.87
330.861	88.92
331.073	-33.96
331.286	39.76
331.499	47.96
331.712	-48.3
331.925	60.24
332.138	-13.48
332.35	68.44
332.563	37.72
332.776	66.39
332.989	-9.39
333.202	0.85
333.414	33.62
333.627	35.67
333.84	54.1
334.053	13.14
334.265	25.43
334.478	-7.34
334.691	47.96
334.903	17.24
335.116	-68.78
335.329	23.38
335.541	2.9
335.754	101.2
335.966	7
336.179	-64.68
336.392	-11.43
336.604	80.72
336.817	-3.24
337.029	-23.72
337.242	21.33
337.454	95.06
337.667	-44.2
337.88	105.3
338.092	54.1
338.305	95.06
338.517	-11.43
338.729	37.72
338.942	133.97
339.154	-9.39
339.367	52.05
339.579	39.76
339.792	7
340.004	80.72
340.217	17.24
340.429	43.86
340.641	27.48
340.854	33.62
341.066	-11.43
341.278	97.11
341.491	174.93
341.703	68.44
341.915	17.24
342.128	62.29
342.34	64.34
342.552	29.52
342.764	93.01
342.977	101.2
343.189	66.39
343.401	111.44
343.613	17.24
343.826	37.72
344.038	25.43
344.25	74.58
344.462	45.91
344.674	82.77
344.886	35.67
345.099	115.54
345.311	60.24
345.523	101.2
345.735	-107.69
345.947	31.57
346.159	-40.11
346.371	43.86
346.583	50
346.795	113.49
347.007	-21.67
347.219	72.53
347.431	-5.29
347.643	78.68
347.855	-79.02
348.067	50
348.279	13.14
348.491	76.63
348.703	140.12
348.915	33.62
349.127	-52.39
349.339	45.91
349.551	25.43
349.763	39.76
349.975	84.82
350.187	101.2
350.399	123.73
350.61	90.96
350.822	43.86
351.034	-9.39
351.246	66.39
351.458	37.72
351.669	82.77
351.881	80.72
352.093	21.33
352.305	93.01
352.517	31.57
352.728	86.87
352.94	109.4
353.152	45.91
353.363	47.96
353.575	50
353.787	113.49
353.999	88.92
354.21	103.25
354.422	25.43
354.633	113.49
354.845	84.82
355.057	-25.77
355.268	78.68
355.48	33.62
355.692	50
355.903	-9.39
356.115	23.38
356.326	-33.96
356.538	76.63
356.749	50
356.961	19.29
357.172	78.68
357.384	19.29
357.595	115.54
357.807	11.09
358.018	43.86
358.23	56.15
358.441	103.25
358.653	56.15
358.864	105.3
359.075	37.72
359.287	70.48
359.498	64.34
359.709	-17.58
359.921	43.86
360.132	11.09
360.344	54.1
360.555	11.09
360.766	68.44
360.977	41.81
361.189	86.87
361.4	33.62
361.611	82.77
361.823	60.24
362.034	9.05
362.245	-17.58
362.456	72.53
362.667	41.81
362.879	-76.97
363.09	35.67
363.301	138.07
363.512	62.29
363.723	74.58
363.935	47.96
364.146	105.3
364.357	0.85
364.568	95.06
364.779	-1.19
364.99	119.64
365.201	31.57
365.412	23.38
365.623	-9.39
365.834	41.81
366.045	86.87
366.256	50
366.467	47.96
366.678	11.09
366.889	4.95
367.1	95.06
367.311	56.15
367.522	58.2
367.733	-46.25
367.944	43.86
368.155	56.15
368.366	93.01
368.577	133.97
368.788	181.07
368.999	13.14
369.209	50
369.42	228.18
369.631	213.84
369.842	113.49
370.053	-19.63
370.264	86.87
370.474	-31.91
370.685	60.24
370.896	4.95
371.107	158.55
371.317	56.15
371.528	76.63
371.739	56.15
371.95	45.91
372.16	117.59
372.371	-50.35
372.582	64.34
372.792	111.44
373.003	70.48
373.214	15.19
373.424	80.72
373.635	21.33
373.846	93.01
374.056	50
374.267	31.57
374.477	58.2
374.688	58.2
374.898	39.76
375.109	39.76
375.319	-13.48
375.53	117.59
375.74	84.82
375.951	39.76
376.161	50
376.372	111.44
376.582	-9.39
376.793	93.01
377.003	52.05
377.214	15.19
377.424	93.01
377.635	-33.96
377.845	68.44
378.055	80.72
378.266	-27.82
378.476	21.33
378.686	31.57
378.897	109.4
379.107	82.77
379.317	121.68
379.528	-7.34
379.738	70.48
379.948	23.38
380.158	9.05
380.369	68.44
380.579	68.44
380.789	54.1
380.999	52.05
381.21	101.2
381.42	109.4
381.63	-27.82
381.84	64.34
382.05	-1.19
382.261	123.73
382.471	52.05
382.681	52.05
382.891	62.29
383.101	129.88
383.311	-54.44
383.521	4.95
383.731	119.64
383.941	76.63
384.151	64.34
384.361	31.57
384.571	21.33
384.781	80.72
384.991	111.44
385.201	113.49
385.411	76.63
385.621	80.72
385.831	101.2
386.041	95.06
386.251	56.15
386.461	64.34
386.671	52.05
386.881	45.91
387.091	19.29
387.301	138.07
387.511	56.15
387.72	117.59
387.93	121.68
388.14	-3.24
388.35	58.2
388.56	97.11
388.769	97.11
388.979	19.29
389.189	4.95
389.399	45.91
389.609	119.64
389.818	90.96
390.028	23.38
390.238	150.36
390.447	25.43
390.657	52.05
390.867	-9.39
391.076	52.05
391.286	93.01
391.496	58.2
391.705	95.06
391.915	158.55
392.125	123.73
392.334	25.43
392.544	152.4
392.753	105.3
392.963	103.25
393.172	78.68
393.382	82.77
393.591	187.22
393.801	17.24
394.01	129.88
394.22	113.49
394.429	17.24
394.639	-50.35
394.848	56.15
395.058	50
395.267	99.16
395.477	109.4
395.686	90.96
395.895	189.27
396.105	207.7
396.314	187.22
396.524	121.68
396.733	148.31
396.942	95.06
397.152	119.64
397.361	160.59
397.57	125.78
397.78	103.25
397.989	78.68
398.198	179.03
398.407	101.2
398.617	78.68
398.826	72.53
399.035	101.2
399.244	164.69
399.453	99.16
399.663	54.1
399.872	101.2
400.081	88.92
400.29	123.73
400.499	78.68
400.708	152.4
400.917	109.4
401.127	138.07
401.336	162.64
401.545	199.51
401.754	101.2
401.963	252.75
402.172	97.11
402.381	74.58
402.59	105.3
402.799	201.55
403.008	174.93
403.217	127.83
403.426	129.88
403.635	103.25
403.844	187.22
404.053	181.07
404.262	82.77
404.471	181.07
404.68	195.41
404.888	156.5
405.097	154.45
405.306	111.44
405.515	156.5
405.724	68.44
405.933	195.41
406.142	209.75
406.35	226.13
406.559	146.26
406.768	131.92
406.977	289.62
407.185	219.99
407.394	226.13
407.603	187.22
407.812	236.37
408.02	291.66
408.229	230.23
408.438	185.17
408.646	140.12
408.855	222.03
409.064	256.85
409.272	244.56
409.481	283.47
409.69	353.1
409.898	265.04
410.107	265.04
410.315	275.28
410.524	336.72
410.733	219.99
410.941	336.72
411.15	338.77
411.358	365.39
411.567	451.41
411.775	349.01
411.984	402.26
412.192	457.55
412.401	357.2
412.609	488.27
412.818	545.61
413.026	453.45
413.234	500.56
413.443	469.84
413.651	480.08
413.86	459.6
414.068	621.39
414.276	602.96
414.485	510.8
414.693	674.64
414.901	742.22
415.11	688.97
415.318	602.96
415.526	783.18
415.734	738.12
415.943	754.51
416.151	832.33
416.359	754.51
416.567	865.1
416.776	1000.26
416.984	959.3
417.192	1035.08
417.4	887.62
417.608	967.49
417.817	1104.71
418.025	1155.91
418.233	1196.87
418.441	1235.78
418.649	1131.33
418.857	1221.44
419.065	1332.03
419.273	1243.97
419.481	1313.6
419.689	1430.34
419.897	1418.05
420.105	1370.94
420.313	1469.25
420.521	1561.41
420.729	1674.04
420.937	1733.43
421.145	1682.24
421.353	1772.35
421.561	1827.64
421.769	1936.18
421.977	1987.38
422.185	2085.69
422.393	2161.46
422.601	2251.57
422.809	2218.8
423.017	2267.95
423.224	2405.17
423.432	2493.23
423.64	2399.02
423.848	2630.45
424.056	2521.9
424.263	2771.76
424.471	2636.59
424.679	2890.54
424.887	3054.37
425.094	3181.35
425.302	3214.12
425.51	3296.04
425.718	3265.32
425.925	3328.8
426.133	3490.59
426.341	3762.97
426.548	3814.17
426.756	3969.82
426.964	3857.18
427.171	4231.96
427.379	4109.08
427.586	4143.89
427.794	4336.4
428.001	4659.98
428.209	4815.63
428.417	4799.24
428.624	4981.51
428.832	5036.81
429.039	4971.27
429.247	5004.04
429.454	5556.99
429.662	6066.94
429.869	5524.23
430.076	5989.11
430.284	5722.88
430.491	6177.53
430.699	6337.27
430.906	6458.1
431.114	6402.8
431.321	6560.5
431.528	6591.22
431.736	7256.81
431.943	7412.45
432.15	7217.9
432.358	7430.88
432.565	7789.28
432.772	7570.15
432.979	8200.92
433.187	8262.36
433.394	8377.05
433.601	8889.04
433.808	9022.16
434.016	8925.9
434.223	9261.77
434.43	9886.4
434.637	9624.26
434.844	10234.55
435.052	10357.43
435.259	10322.62
435.466	10629.81
435.673	10425.01
435.88	11190.95
436.087	11606.69
436.294	11508.39
436.501	11377.32
436.708	11545.25
436.915	11920.03
437.122	12421.78
437.329	12413.59
437.537	12720.79
437.743	12941.97
437.95	12788.37
438.157	13847.17
438.364	13836.93
438.571	14045.82
438.778	14406.27
438.985	15485.55
439.192	14717.56
439.399	15190.64
439.606	14959.22
439.813	15938.15
440.02	16902.74
440.227	16450.14
440.433	16263.77
440.64	16847.44
440.847	16654.94
441.054	17085.01
441.261	18401.85
441.467	18139.71
441.674	18108.99
441.881	19264.05
442.088	18985.52
442.294	18766.39
442.501	19391.02
442.708	19735.08
442.914	20417.05
443.121	21008.92
443.328	20808.22
443.534	22331.9
443.741	21807.62
443.948	21430.8
444.154	23013.88
444.361	22766.07
444.568	22770.17
444.774	22860.28
444.981	23144.95
445.187	23957.99
445.394	24789.47
445.6	24693.21
445.807	27058.62
446.013	25807.31
446.22	25924.04
446.426	27034.04
446.633	27480.5
446.839	28465.57
447.046	27513.27
447.252	28699.04
447.459	28887.45
447.665	28471.71
447.871	30011.79
448.078	31498.61
448.284	29536.66
448.491	30800.26
448.697	31512.95
448.903	32463.21
449.11	32369
449.316	31861.1
449.522	32536.93
449.728	33360.22
449.935	33546.58
450.141	33702.23
450.347	34212.17
450.553	33108.32
450.76	33595.73
450.966	34330.95
451.172	34181.45
451.378	35098.94
451.584	34306.38
451.791	35461.43
451.997	35152.19
452.203	35914.03
452.409	35959.09
452.615	35580.21
452.821	34124.11
453.027	34017.61
453.233	35426.62
453.44	34337.1
453.646	34509.13
453.852	34595.14
454.058	35236.16
454.264	34257.23
454.47	35234.11
454.676	33896.78
454.882	35137.85
455.088	32272.74
455.294	32815.46
455.5	32850.27
455.705	33329.5
455.911	31957.36
456.117	31621.49
456.323	31097.21
456.529	29458.84
456.735	30650.75
456.941	29966.73
457.147	29102.49
457.352	28608.93
457.558	28008.87
457.764	28266.92
457.97	27589.04
458.176	27046.33
458.381	27222.45
458.587	25694.67
458.793	25872.84
458.999	24390.11
459.204	26141.13
459.41	25381.33
459.616	23697.9
459.821	23341.55
460.027	23276.02
460.233	22952.44
460.438	21887.5
460.644	22305.28
460.85	20797.98
461.055	20988.44
461.261	20533.79
461.466	19218.99
461.672	18623.03
461.878	19982.88
462.083	18577.98
462.289	17992.26
462.494	18186.82
462.7	17199.69
462.905	16691.8
463.111	17390.16
463.316	17320.53
463.522	16843.35
463.727	17334.86
463.932	16962.13
464.138	17101.39
464.343	17199.69
464.549	16312.92
464.754	17134.16
464.959	16679.51
465.165	16689.75
465.37	16022.11
465.575	15764.07
465.781	16288.35
465.986	16458.33
466.191	15651.43
466.397	15293.04
466.602	14742.13
466.807	15209.07
467.012	15334
467.218	14922.35
467.423	14971.5
467.628	14930.55
467.833	15616.62
468.038	14975.6
468.244	14633.59
468.449	15143.53
468.654	14869.11
468.859	14557.82
469.064	14398.07
469.269	13681.28
469.474	14029.44
469.679	14680.69
469.885	13644.42
470.09	14088.83
470.295	14150.27
470.5	13589.13
470.705	13605.51
470.91	13525.64
471.115	13251.21
471.32	13427.34
471.525	13380.23
471.73	13187.72
471.935	12972.69
472.139	12620.44
472.344	12503.7
472.549	12718.74
472.754	12380.82
472.959	12343.96
473.164	11950.75
473.369	11907.74
473.574	12286.62
473.778	12243.61
473.983	12096.16
474.188	11907.74
474.393	11492.01
474.598	11651.75
474.802	11311.78
475.007	11322.02
475.212	11309.74
475.417	10902.19
475.621	10996.4
475.826	11096.75
476.031	10648.24
476.235	10324.66
476.44	10656.43
476.645	10433.21
476.849	10291.9
477.054	10173.11
477.259	10310.33
477.463	10291.9
477.668	9919.17
477.872	10060.48
478.077	9786.05
478.282	9593.54
478.486	9595.59
478.691	9636.55
478.895	9525.96
479.1	9460.42
479.304	9329.35
479.509	9188.04
479.713	9312.97
479.918	9138.89
480.122	8962.76
480.326	8915.66
480.531	9190.09
480.735	8921.81
480.94	8778.45
481.144	9239.24
481.348	8778.45
481.553	8977.1
481.757	8651.47
481.961	8960.72
482.166	8661.71
482.37	8710.86
482.574	8665.81
482.778	8639.19
482.983	8927.95
483.187	8585.94
483.391	8878.8
483.595	8786.64
483.8	8522.45
484.004	8809.17
484.208	8995.53
484.412	8729.3
484.616	8993.48
484.821	8858.32
485.025	8461.01
485.229	8798.93
485.433	8770.26
485.637	8747.73
485.841	8565.46
486.045	8516.31
486.249	8655.57
486.453	8661.71
486.657	8528.6
486.861	8635.09
487.065	8522.45
487.269	8669.91
487.473	8581.84
487.677	8778.45
487.881	8970.96
488.085	8606.42
488.289	8833.74
488.493	8698.58
488.697	8981.2
488.901	8630.99
489.105	8753.87
489.309	8821.45
489.512	8839.89
489.716	8854.22
489.92	8925.9
490.124	8858.32
490.328	8960.72
490.531	8927.95
490.735	8936.14
490.939	9044.68
491.143	8987.34
491.346	8753.87
491.55	8936.14
491.754	8856.27
491.958	9030.35
492.161	9091.79
492.365	9050.83
492.569	8948.43
492.772	9190.09
492.976	9231.05
493.18	9050.83
493.383	9382.6
493.587	9507.52
493.79	9577.16
493.994	9190.09
494.197	9583.3
494.401	9403.08
494.605	9515.72
494.808	9611.97
495.012	9898.69
495.215	9839.3
495.419	9847.49
495.622	9726.66
495.825	9960.13
496.029	10097.34
496.232	10205.88
496.436	10218.17
496.639	10562.23
496.843	10111.68
497.046	10558.13
497.249	10773.17
497.453	10795.7
497.656	10742.45
497.859	10836.66
498.063	11000.49
498.266	11463.33
498.469	11324.07
498.673	11260.59
498.876	11541.16
499.079	11588.26
499.282	11518.63
499.485	11815.59
499.689	12059.29
499.892	11977.37
500.095	11977.37
500.298	12391.06
500.501	12389.02
500.705	12679.83
500.908	12663.44
501.111	12591.77
501.314	12911.25
501.517	13097.61
501.72	13351.56
501.923	13073.04
502.126	13427.34
502.329	13972.1
502.532	13640.33
502.735	13924.99
502.938	14029.44
503.141	14123.65
503.344	14123.65
503.547	14422.65
503.75	14619.25
503.953	14756.47
504.156	14801.52
504.359	14983.79
504.562	14889.59
504.765	15211.12
504.968	15444.59
505.17	15659.62
505.373	15626.85
505.576	16167.52
505.779	16280.16
505.982	16126.56
506.185	16370.27
506.387	16646.74
506.59	16560.73
506.793	17287.76
506.996	16892.5
507.198	17390.16
507.401	17336.91
507.604	17472.07
507.807	17973.83
508.009	17918.53
508.212	18096.71
508.415	18229.82
508.617	18635.32
508.82	18586.17
509.022	18514.49
509.225	18903.6
509.428	19159.6
509.63	18924.08
509.833	19108.4
510.035	19712.55
510.238	19788.33
510.44	19786.28
510.643	20337.18
510.845	20412.96
511.048	20304.42
511.25	20810.26
511.453	20714.01
511.655	21391.89
511.858	21441.04
512.06	21299.73
512.262	21641.74
512.465	21563.92
512.667	21887.5
512.87	22235.65
513.072	22184.45
513.274	22706.68
513.477	22567.42
513.679	22667.77
513.881	23208.44
514.084	23536.11
514.286	23464.43
514.488	23570.93
514.69	24134.12
514.893	24101.35
515.095	24263.14
515.297	24480.22
515.499	24279.52
515.701	24750.56
515.904	24963.54
516.106	24934.87
516.308	25412.05
516.51	25424.34
516.712	25364.95
516.914	25797.07
517.116	26018.25
517.318	26313.16
517.52	26321.35
517.722	26329.54
517.925	26530.24
518.127	27193.78
518.329	27142.58
518.531	26915.26
518.733	27693.49
518.935	27689.39
519.136	27842.99
519.338	28123.56
519.54	27963.82
519.742	28262.82
519.944	28373.41
520.146	28709.28
520.348	28715.42
520.55	28895.64
520.752	29127.06
520.954	29723.02
521.155	29512.08
521.357	29817.23
521.559	30122.38
521.761	30359.94
521.963	30282.12
522.164	30814.59
522.366	30398.85
522.568	30689.67
522.77	30777.73
522.971	31168.89
523.173	30900.61
523.375	31199.61
523.576	31156.6
523.778	31121.79
523.98	31674.74
524.181	31719.79
524.383	31562.1
524.584	32239.98
524.786	32254.31
524.988	31943.02
525.189	32377.19
525.391	32442.73
525.592	32807.26
525.794	32485.73
525.995	32170.35
526.197	32481.64
526.398	32663.91
526.6	33046.88
526.801	33302.87
527.003	33239.39
527.204	32928.09
527.406	33390.94
527.607	33249.63
527.808	33261.91
528.01	32772.45
528.211	32999.77
528.412	33974.61
528.614	33395.03
528.815	33567.06
529.016	33839.44
529.218	33468.76
529.419	33794.39
529.62	33624.4
529.822	33579.35
530.023	33911.12
530.224	33919.31
530.425	34191.69
530.626	33567.06
530.828	33540.44
531.029	34163.02
531.23	33980.75
531.431	33771.86
531.632	34081.1
531.833	34365.77
532.035	33749.33
532.236	33982.8
532.437	34042.19
532.638	33821.01
532.839	34410.82
533.04	34062.67
533.241	33696.08
533.442	34351.43
533.643	34277.71
533.844	33802.58
534.045	34410.82
534.246	33696.08
534.447	34117.96
534.648	34183.5
534.849	34324.81
535.05	33722.71
535.251	34040.14
535.451	33859.92
535.652	33691.99
535.853	33976.65
536.054	34259.27
536.255	34111.82
536.456	33845.58
536.657	34326.86
536.857	33954.13
537.058	33970.51
537.259	34425.16
537.46	33814.87
537.66	33837.39
537.861	33907.02
538.062	33837.39
538.263	33861.97
538.463	33829.2
538.664	33913.17
538.865	33534.29
539.065	33974.61
539.266	33837.39
539.466	34003.28
539.667	33491.29
539.868	33890.64
540.068	33759.57
540.269	33442.14
540.469	34142.54
540.67	33747.28
540.87	33962.32
541.071	33728.85
541.271	33796.43
541.472	33599.83
541.672	33614.16
541.873	33263.96
542.073	33012.06
542.274	33651.03
542.474	33378.65
542.675	33372.5
542.875	33857.87
543.075	33390.94
543.276	33032.54
543.476	33431.9
543.676	33245.53
543.877	33005.92
544.077	33001.82
544.277	33565.01
544.478	33392.98
544.678	33345.88
544.878	33044.83
545.078	33358.17
545.279	33333.59
545.479	32903.52
545.679	33288.54
545.879	33337.69
546.079	33274.2
546.28	33042.78
546.48	33145.18
546.68	33120.6
546.88	33231.19
547.08	32868.7
547.28	33030.49
547.48	32801.12
547.68	33042.78
547.88	32905.57
548.081	32969.05
548.281	32940.38
548.481	33003.87
548.681	33319.26
548.881	32934.24
549.081	32629.09
549.28	33206.62
549.48	33216.86
549.68	33096.03
549.88	33409.37
550.08	32373.1
550.28	33220.95
550.48	32907.62
550.68	33063.26
550.88	32637.28
551.08	32522.6
551.279	33016.16
551.479	32633.19
551.679	32565.6
551.879	32502.12
552.079	32760.16
552.278	32729.44
552.478	32641.38
552.678	32477.54
552.878	32940.38
553.077	32682.34
553.277	32469.35
553.477	32680.29
553.676	32420.2
553.876	32565.6
554.076	32325.99
554.275	32651.62
554.475	32141.67
554.674	32440.68
554.874	32745.83
555.074	32323.94
555.273	32313.7
555.473	32446.82
555.672	32260.46
555.872	32428.39
556.071	32303.46
556.271	32563.56
556.47	32493.93
556.67	31900.01
556.869	32452.97
557.068	32528.74
557.268	32166.25
557.467	32156.01
557.667	32289.13
557.866	32293.22
558.065	32117.1
558.265	31902.06
558.464	32067.95
558.663	32647.52
558.863	32012.65
559.062	32498.02
559.261	32020.84
559.461	32475.49
559.66	31955.31
559.859	31988.08
560.058	31773.04
560.258	32037.23
560.457	31908.21
560.656	32207.21
560.855	31762.8
561.054	32014.7
561.253	31867.25
561.453	31852.91
561.652	31875.44
561.851	32129.39
562.05	31629.68
562.249	31760.75
562.448	31887.73
562.647	31652.21
562.846	31697.27
563.045	32012.65
563.244	31461.75
563.443	31674.74
563.642	31437.17
563.841	31502.71
564.04	31388.02
564.239	31584.63
564.438	31590.77
564.637	31474.04
564.836	31756.66
565.035	31152.51
565.234	31529.33
565.432	31394.17
565.631	31304.06
565.83	30949.76
566.029	31275.38
566.228	30994.81
566.427	31248.76
566.625	30716.29
566.824	30839.17
567.023	31078.78
567.222	30525.83
567.42	31299.96
567.619	31215.99
567.818	31224.18
568.016	30744.96
568.215	31103.35
568.414	30945.66
568.612	30714.24
568.811	31086.97
569.01	30822.78
569.208	30638.47
569.407	30730.62
569.605	30593.41
569.804	31166.84
570.002	30515.59
570.201	30706.05
570.4	30187.91
570.598	30257.54
570.797	30351.75
570.995	30589.31
571.193	30112.14
571.392	30910.85
571.59	30323.08
571.789	30192.01
571.987	30388.61
572.186	30280.07
572.384	29864.33
572.582	30079.37
572.781	30331.27
572.979	29798.8
573.177	30355.85
573.376	29940.11
573.574	29931.92
573.772	30198.15
573.971	29739.41
574.169	29657.49
574.367	29768.08
574.565	29999.5
574.763	29538.71
574.962	29645.2
575.16	29155.74
575.358	29526.42
575.556	29157.78
575.754	29708.69
575.952	29407.64
576.151	29499.8
576.349	29125.02
576.547	28912.03
576.745	28883.36
576.943	29219.22
577.141	29116.83
577.339	29309.33
577.537	28881.31
577.735	29219.22
577.933	28774.81
578.131	28850.59
578.329	28922.27
578.527	28797.34
578.725	29180.31
578.923	28690.85
579.121	28459.43
579.319	28631.46
579.516	28756.38
579.714	28852.64
579.912	28533.15
580.11	28369.32
580.308	28553.63
580.506	28307.88
580.704	27761.07
580.901	28008.87
581.099	28684.7
581.297	28125.61
581.495	27875.76
581.692	28238.25
581.89	27810.22
582.088	27988.39
582.285	27881.9
582.483	27931.05
582.681	27677.1
582.878	27754.93
583.076	27476.4
583.274	27570.61
583.471	27423.15
583.669	27718.06
583.866	27505.07
584.064	27630
584.262	26976.7
584.459	27161.01
584.657	27091.38
584.854	27546.03
585.052	26638.78
585.249	27132.34
585.447	27085.24
585.644	26751.42
585.841	26896.83
586.039	26935.74
586.236	26591.68
586.434	26894.78
586.631	26794.43
586.828	26593.73
587.026	26319.3
587.223	26431.94
587.42	26419.65
587.618	26286.53
587.815	25928.14
588.012	25960.91
588.21	26005.96
588.407	26317.25
588.604	25905.61
588.801	26030.54
588.999	25940.43
589.196	26024.39
589.393	25999.82
589.59	25668.05
589.787	25778.64
589.984	25657.81
590.182	25465.3
590.379	25631.18
590.576	25549.26
590.773	25405.91
590.97	25403.86
591.167	25543.12
591.364	24975.83
591.561	25373.14
591.758	25113.05
591.955	24992.22
592.152	25229.78
592.349	25078.23
592.546	25004.5
592.743	24930.78
592.94	24338.91
593.137	24541.66
593.334	24838.62
593.531	24715.74
593.727	24568.29
593.924	24697.31
594.121	24439.26
594.318	24713.69
594.515	24236.52
594.712	24340.96
594.908	24408.54
595.105	24422.88
595.302	23945.7
595.499	24275.43
595.696	24170.98
595.892	23859.69
596.089	24242.66
596.286	24105.45
596.482	23927.27
596.679	23798.25
596.876	23718.38
597.072	23607.79
597.269	23618.03
597.466	23585.26
597.662	23556.59
597.859	23687.66
598.055	23632.36
598.252	23233.01
598.448	23089.65
598.645	23210.48
598.841	22761.98
599.038	23169.52
599.234	22813.18
599.431	22895.1
599.627	22764.03
599.824	23255.54
600.02	22809.08
600.217	22915.58
600.413	22579.71
600.609	22667.77
600.806	22458.88
601.002	22624.76
601.198	22206.98
601.395	22278.66
601.591	22331.9
601.787	22268.42
601.984	22145.54
602.18	22440.45
602.376	22192.64
602.572	22127.11
602.769	21817.86
602.965	22057.48
603.161	21803.53
603.357	21811.72
603.553	21864.97
603.75	21705.23
603.946	21797.38
604.142	21617.16
604.338	21381.65
604.534	21654.03
604.73	21498.38
604.926	21365.26
605.122	21619.21
605.318	21174.8
605.514	21185.04
605.71	21287.44
605.906	21185.04
606.102	21037.59
606.298	21322.26
606.494	21150.23
606.69	21023.25
606.886	21041.68
607.082	20744.73
607.278	20814.36
607.474	20650.52
607.67	20759.06
607.866	20421.15
608.062	20773.4
608.257	20720.15
608.453	20568.6
608.649	20236.83
608.845	20263.46
609.041	20617.75
609.236	20552.22
609.432	20210.21
609.628	20220.45
609.824	20271.65
610.019	20019.75
610.215	20265.5
610.411	20339.23
610.606	20220.45
610.802	20081.19
610.998	20148.77
611.193	20195.87
611.389	19769.9
611.584	20113.95
611.78	19644.97
611.976	19757.61
612.171	20062.76
612.367	19798.57
612.562	19675.69
612.758	19581.48
612.953	19673.64
613.149	19982.88
613.344	19427.88
613.539	19900.97
613.735	19477.04
613.93	19761.7
614.126	19479.08
614.321	19806.76
614.517	19474.99
614.712	19536.43
614.907	19470.89
615.103	19634.73
615.298	19143.22
615.493	19378.73
615.688	19147.31
615.884	19354.16
616.079	18977.33
616.274	19417.65
616.47	18963
616.665	19175.98
616.86	18946.61
617.055	19028.53
617.25	19024.44
617.445	19063.35
617.641	18461.24
617.836	18860.6
618.031	18448.96
618.226	18864.69
618.421	18801.21
618.616	18702.9
618.811	18459.2
619.006	18670.14
619.201	18219.58
619.396	18625.08
619.591	18104.9
619.786	18031.17
619.981	17986.11
620.176	18195.01
620.371	17853
620.566	17846.85
620.761	17971.78
620.956	17926.72
621.151	17611.34
621.346	17769.03
621.541	17373.77
621.735	17691.21
621.93	17424.97
622.125	17183.31
622.32	17025.62
622.515	17224.27
622.709	16855.64
622.904	17193.55
623.099	17062.48
623.294	17107.54
623.488	16843.35
623.683	17027.67
623.878	16433.75
624.072	16616.02
624.267	16472.67
624.462	16462.43
624.656	16226.91
624.851	16192.09
625.046	15979.11
625.24	16061.02
625.435	16116.32
625.629	15891.04
625.824	15622.76
626.018	15766.12
626.213	15340.14
626.407	15581.8
626.602	15438.44
626.796	15428.2
626.991	15366.76
627.185	15188.59
627.38	15182.45
627.574	14838.39
627.768	15086.19
627.963	15100.53
628.157	14977.65
628.352	14936.69
628.546	14525.05
628.74	14701.17
628.935	14508.66
629.129	14297.72
629.323	14275.2
629.517	14582.39
629.712	14285.44
629.906	14252.67
630.1	14230.14
630.294	13961.86
630.489	14015.1
630.683	13939.33
630.877	13646.47
631.071	13599.37
631.265	13814.4
631.459	13515.4
631.653	13470.34
631.848	13408.9
632.042	13306.51
632.236	13462.15
632.43	13283.98
632.624	13265.55
632.818	13292.17
633.012	13005.45
633.206	12905.1
633.4	13396.62
633.594	12915.34
633.788	12769.94
633.982	13036.17
634.176	12706.45
634.369	12784.27
634.563	12819.09
634.757	12495.51
634.951	12456.6
635.145	12434.07
635.339	12579.48
635.533	12069.53
635.726	12153.5
635.92	11899.55
636.114	11897.5
636.308	11932.32
636.501	11987.61
636.695	11938.46
636.889	11862.69
637.083	11823.78
637.276	11612.84
637.47	11485.86
637.664	11573.92
637.857	11651.75
638.051	11266.73
638.244	11625.12
638.438	11143.85
638.632	11449
638.825	11113.13
639.019	11012.78
639.212	10791.6
639.406	11068.08
639.599	11008.69
639.793	10996.4
639.986	10918.57
640.18	10982.06
640.373	10955.44
640.567	10805.94
640.76	10650.29
640.954	10461.88
641.147	10388.15
641.34	10396.34
641.534	10353.34
641.727	10408.63
641.92	10281.66
642.114	10080.96
642.307	10132.15
642.5	10058.43
642.694	9992.89
642.887	9960.13
643.08	10113.72
643.273	9941.69
643.467	9855.68
643.66	9564.87
643.853	9882.3
644.046	9689.79
644.239	9704.13
644.432	9501.38
644.626	9396.93
644.819	9464.52
645.012	9558.72
645.205	9386.69
645.398	9433.8
645.591	9286.34
645.784	9120.46
645.977	9116.36
646.17	9048.78
646.363	9104.07
646.556	8932.05
646.749	8948.43
646.942	9009.87
647.135	8903.37
647.328	8868.56
647.521	8899.28
647.714	8780.5
647.907	8702.67
648.099	8798.93
648.292	8870.61
648.485	8702.67
648.678	8473.3
648.871	8501.97
649.064	8536.79
649.256	8432.34
649.449	8270.55
649.642	8280.79
649.835	8139.48
650.027	8178.39
650.22	8215.26
650.413	8110.81
650.605	8149.72
650.798	8071.9
650.991	7967.45
651.183	7887.58
651.376	7936.73
651.568	7783.13
651.761	7895.77
651.954	7957.21
652.146	7877.34
652.339	7774.94
652.531	7893.72
652.724	7631.58
652.916	7541.47
653.109	7609.06
653.301	7666.4
653.494	7727.84
653.686	7467.75
653.879	7592.67
654.071	7541.47
654.263	7365.35
654.456	7310.05
654.648	7391.97
654.84	7209.7
655.033	7275.24
655.225	7115.5
655.417	7082.73
655.61	7117.54
655.802	7103.21
655.994	7097.07
656.186	6986.47
656.379	7043.82
656.571	6826.73
656.763	6986.47
656.955	6918.89
657.148	6861.55
657.34	6847.21
657.532	6814.45
657.724	6693.62
657.916	6804.21
658.108	6798.06
658.3	6636.27
658.492	6630.13
658.684	6623.98
658.876	6580.98
659.068	6286.07
659.26	6415.09
659.452	6472.43
659.644	6421.24
659.836	6509.3
660.028	6507.25
660.22	6218.49
660.412	6206.2
660.604	6241.01
660.796	6269.69
660.988	6183.67
661.18	6042.36
661.372	6087.42
661.563	6224.63
661.755	6093.56
661.947	5985.02
662.139	6077.18
662.331	5989.11
662.522	6005.5
662.714	6046.46
662.906	5868.28
663.097	5806.84
663.289	5872.38
663.481	5776.13
663.673	5849.85
663.864	5853.95
664.056	5856
664.247	5964.54
664.439	5714.69
664.631	5649.15
664.822	5710.59
665.014	5669.63
665.205	5663.49
665.397	5509.89
665.588	5581.57
665.78	5516.03
665.971	5540.61
666.163	5436.16
666.354	5454.59
666.546	5325.57
666.737	5403.39
666.929	5358.34
667.12	5436.16
667.311	5368.58
667.503	5458.69
667.694	5278.47
667.885	5313.28
668.077	5133.06
668.268	5081.86
668.459	5280.52
668.651	5249.8
668.842	5333.76
669.033	5174.02
669.224	5151.49
669.416	5272.32
669.607	5081.86
669.798	5229.32
669.989	5137.16
670.18	5038.86
670.371	4999.95
670.563	4999.95
670.754	5225.22
670.945	4913.93
671.136	5110.54
671.327	5014.28
671.518	4852.49
671.709	4997.9
671.9	5040.9
672.091	4877.07
672.282	4903.69
672.473	4803.34
672.664	4909.83
672.855	4795.15
673.046	4868.88
673.237	4713.23
673.428	4889.35
673.619	4780.81
673.809	4666.13
674	4864.78
674.191	4885.26
674.382	4934.41
674.573	4774.67
674.764	4702.99
674.954	4776.72
675.145	4649.74
675.336	4707.09
675.527	4512.53
675.717	4803.34
675.908	4631.31
676.099	4889.35
676.289	4551.44
676.48	4647.69
676.671	4698.89
676.861	4604.69
677.052	4477.71
677.243	4737.81
677.433	4512.53
677.624	4571.92
677.814	4504.34
678.005	4557.58
678.195	4778.76
678.386	4705.04
678.576	4518.67
678.767	4553.49
678.957	4547.34
679.148	4643.6
679.338	4530.96
679.529	4553.49
679.719	4356.88
679.909	4623.12
680.1	4664.08
680.29	4561.68
680.481	4553.49
680.671	4549.39
680.861	4606.74
681.052	4586.26
681.242	4471.57
681.432	4483.86
681.622	4739.85
681.813	4444.95
682.003	4621.07
682.193	4494.1
682.383	4498.19
682.573	4500.24
682.764	4526.86
682.954	4563.73
683.144	4619.02
683.334	4479.76
683.524	4371.22
683.714	4621.07
683.904	4449.04
684.094	4473.62
684.284	4412.18
684.474	4430.61
684.664	4391.7
684.854	4475.67
685.044	4471.57
685.234	4371.22
685.424	4385.55
685.614	4322.07
685.804	4594.45
685.994	4283.16
686.184	4410.13
686.374	4307.73
686.564	4352.79
686.753	4240.15
686.943	4191
687.133	4258.58
687.323	4217.62
687.513	4215.57
687.702	4137.75
687.892	4180.76
688.082	4365.07
688.272	4221.72
688.461	4307.73
688.651	4256.53
688.841	4086.55
689.03	4053.78
689.22	4117.27
689.41	4172.57
689.599	3994.39
689.789	4021.02
689.979	3980.06
690.168	4057.88
690.358	3982.1
690.547	4002.58
690.737	3957.53
690.926	3953.43
691.116	3949.34
691.305	4023.06
691.495	3908.38
691.684	4055.83
691.874	3836.7
692.063	3805.98
692.252	3912.47
692.442	3883.8
692.631	3699.48
692.82	3891.99
693.01	3662.62
693.199	3828.51
693.388	3701.53
693.578	3631.9
693.767	3801.88
693.956	3748.64
694.146	3683.1
694.335	3754.78
694.524	3765.02
694.713	3656.48
694.902	3750.68
695.092	3902.23
695.281	3652.38
695.47	3717.92
695.659	3715.87
695.848	3457.82
696.037	3531.55
696.226	3636
696.415	3572.51
696.604	3644.19
696.793	3527.46
696.982	3642.14
697.171	3595.04
697.36	3697.44
697.549	3631.9
697.738	3490.59
697.927	3576.61
698.116	3408.67
698.305	3566.37
698.494	3629.85
698.683	3601.18
698.872	3619.61
699.061	3664.67
699.25	3662.62
699.438	3670.81
699.627	3642.14
699.816	3617.57
700.005	3810.08
700.193	3627.81
700.382	3775.26
700.571	3689.25
700.76	3676.96
700.948	3636
701.137	3623.71
701.326	3580.7
701.514	3681.05
701.703	3533.6
701.892	3564.32
702.08	3805.98
702.269	3689.25
702.457	3545.89
702.646	3771.16
702.834	3636
703.023	3724.06
703.212	3683.1
703.4	3765.02
703.589	3498.78
703.777	3793.69
703.965	3574.56
704.154	3648.29
704.342	3732.25
704.531	3607.33
704.719	3576.61
704.907	3791.64
705.096	3646.24
705.284	3691.29
705.472	3642.14
705.661	3801.88
705.849	3638.05
706.037	3648.29
706.226	3709.72
706.414	3818.27
706.602	3707.68
706.79	3676.96
706.979	3746.59
707.167	3824.41
707.355	3644.19
707.543	3767.07
707.731	3793.69
707.919	3769.12
708.107	3748.64
708.296	3683.1
708.484	3822.36
708.672	3846.94
708.86	3871.51
709.048	3814.17
709.236	3978.01
709.424	3822.36
709.612	3769.12
709.8	3699.48
709.988	3805.98
710.176	3803.93
710.364	3859.23
710.551	3722.01
710.739	3709.72
710.927	3773.21
711.115	3750.68
711.303	3818.27
711.491	3834.65
711.679	3740.44
711.866	3795.74
712.054	3982.1
712.242	3877.66
712.43	3881.75
712.617	3758.88
712.805	3900.19
712.993	3865.37
713.181	3914.52
713.368	3926.81
713.556	3998.49
713.744	3922.71
713.931	3955.48
714.119	4014.87
714.306	3937.05
714.494	3838.75
714.682	3953.43
714.869	3846.94
715.057	4049.69
715.244	3910.43
715.432	3906.33
715.619	3941.15
715.807	3963.67
715.994	3883.8
716.182	3961.62
716.369	3941.15
716.556	4068.12
716.744	3838.75
716.931	3889.95
717.119	3996.44
717.306	3920.67
717.493	3885.85
717.681	3932.95
717.868	3982.1
718.055	3924.76
718.242	3932.95
718.43	3984.15
718.617	3967.77
718.804	4102.93
718.991	4139.8
719.179	3959.58
719.366	3906.33
719.553	4084.5
719.74	4031.26
719.927	4080.41
720.114	4053.78
720.301	4008.73
720.488	3879.71
720.676	3930.91
720.863	4176.66
721.05	4117.27
721.237	4039.45
721.424	4139.8
721.611	4051.74
721.798	3935
721.985	4066.07
722.172	3988.25
722.358	4010.78
722.545	4123.41
722.732	4000.54
722.919	4207.38
723.106	4047.64
723.293	4123.41
723.48	4082.46
723.667	3953.43
723.853	4027.16
724.04	4127.51
724.227	4199.19
724.414	4191
724.6	4055.83
724.787	4231.96
724.974	4082.46
725.161	4080.41
725.347	4004.63
725.534	4176.66
725.72	4018.97
725.907	4147.99
726.094	4053.78
726.28	4125.46
726.467	4215.57
726.653	4119.32
726.84	4170.52
727.027	4301.59
727.213	3973.91
727.4	4119.32
727.586	4088.6
727.773	4133.65
727.959	4166.42
728.145	4143.89
728.332	4201.24
728.518	4066.07
728.705	4160.28
728.891	3982.1
729.077	4033.3
729.264	4178.71
729.45	4088.6
729.636	4182.81
729.823	4150.04
730.009	4191
730.195	4205.33
730.382	4158.23
730.568	4133.65
730.754	4234
730.94	4107.03
731.126	4141.85
731.313	4197.14
731.499	4279.06
731.685	4039.45
731.871	4107.03
732.057	4186.9
732.243	4113.17
732.429	4203.29
732.615	4123.41
732.801	4107.03
732.987	3986.2
733.173	4100.89
733.359	4277.01
733.545	4166.42
733.731	4084.5
733.917	4016.92
734.103	4242.2
734.289	4145.94
734.475	4014.87
734.661	4340.5
734.847	4154.13
735.033	4121.37
735.219	4182.81
735.404	4006.68
735.59	4041.5
735.776	3980.06
735.962	4012.82
736.148	4104.98
736.333	3965.72
736.519	3978.01
736.705	3935
736.89	4043.54
737.076	4131.61
737.262	3932.95
737.447	3887.9
737.633	3986.2
737.819	3975.96
738.004	3859.23
738.19	3894.04
738.375	4037.4
738.561	4139.8
738.747	3943.19
738.932	3863.32
739.118	3945.24
739.303	4014.87
739.489	3922.71
739.674	3986.2
739.859	3840.79
740.045	4010.78
740.23	3855.13
740.416	3646.24
740.601	3769.12
740.786	3715.87
740.972	3701.53
741.157	3752.73
741.342	3762.97
741.528	3654.43
741.713	3953.43
741.898	3758.88
742.084	3687.2
742.269	3674.91
742.454	3842.84
742.639	3615.52
742.824	3636
743.01	3660.57
743.195	3709.72
743.38	3660.57
743.565	3679.01
743.75	3629.85
743.935	3519.26
744.12	3685.15
744.305	3506.98
744.49	3568.41
744.675	3513.12
744.86	3437.34
745.045	3449.63
745.23	3607.33
745.415	3496.74
745.6	3533.6
745.785	3482.4
745.97	3488.54
746.155	3474.21
746.34	3420.96
746.525	3343.14
746.71	3418.91
746.895	3377.95
747.079	3236.64
747.264	3240.74
747.449	3228.45
747.634	3138.34
747.819	3285.8
748.003	3308.32
748.188	3193.64
748.373	3187.49
748.557	3191.59
748.742	3117.86
748.927	3240.74
749.111	3107.62
749.296	3078.95
749.481	3031.85
749.665	3042.09
749.85	3023.66
750.034	3078.95
750.219	2925.35
750.404	2937.64
750.588	3031.85
750.773	2822.95
750.957	2865.96
751.141	2884.39
751.326	2927.4
751.51	2745.13
751.695	2833.19
751.879	2835.24
752.064	2941.74
752.248	2732.84
752.432	2689.84
752.617	2679.6
752.801	2861.87
752.985	2648.88
753.17	2738.99
753.354	2738.99
753.538	2665.26
753.722	2755.37
753.907	2503.47
754.091	2685.74
754.275	2579.25
754.459	2466.61
754.643	2591.53
754.828	2540.33
755.012	2499.38
755.196	2499.38
755.38	2390.83
755.564	2415.41
755.748	2503.47
755.932	2425.65
756.116	2478.9
756.3	2448.18
756.484	2327.35
756.668	2415.41
756.852	2243.38
757.036	2270
757.22	2288.43
757.404	2243.38
757.588	2274.1
757.772	2243.38
757.956	2298.67
758.14	2304.82
758.323	2130.74
758.507	2097.97
758.691	2194.23
758.875	2210.61
759.059	2183.99
759.242	2233.14
759.426	2192.18
759.61	2177.84
759.794	2079.54
759.977	2138.93
760.161	2173.75
760.345	2128.69
760.528	2249.52
760.712	2020.15
760.895	2097.97
761.079	1987.38
761.263	1878.84
761.446	1983.29
761.63	2040.63
761.813	1964.86
761.997	1833.79
762.18	1944.38
762.364	1934.14
762.547	1796.92
762.731	1971
762.914	1927.99
763.098	1915.7
763.281	1796.92
763.464	1741.63
763.648	1954.62
763.831	1745.72
764.015	1825.59
764.198	1850.17
764.381	1794.87
764.564	1930.04
764.748	1807.16
764.931	1809.21
765.114	1831.74
765.297	1860.41
765.481	1768.25
765.664	1692.48
765.847	1731.39
766.03	1678.14
766.213	1684.28
766.397	1743.67
766.58	1751.87
766.763	1841.98
766.946	1741.63
767.129	1608.51
767.312	1753.91
767.495	1633.08
767.678	1776.44
767.861	1743.67
768.044	1678.14
768.227	1735.48
768.41	1637.18
768.593	1569.6
768.776	1522.49
768.959	1624.89
769.142	1645.37
769.324	1538.88
769.507	1639.23
769.69	1530.69
769.873	1600.32
770.056	1743.67
770.239	1534.78
770.421	1549.12
770.604	1545.02
770.787	1459.01
770.97	1495.87
771.152	1493.82
771.335	1598.27
771.518	1528.64
771.7	1618.75
771.883	1573.69
772.066	1446.72
772.248	1473.34
772.431	1545.02
772.613	1452.86
772.796	1454.91
772.978	1495.87
773.161	1485.63
773.343	1399.62
773.526	1477.44
773.708	1487.68
773.891	1383.23
774.073	1436.48
774.256	1354.56
774.438	1399.62
774.621	1420.1
774.803	1452.86
774.985	1348.42
775.168	1426.24
775.35	1258.31
775.532	1336.13
775.715	1301.31
775.897	1309.51
776.079	1368.9
776.261	1332.03
776.444	1266.5
776.626	1200.96
776.808	1231.68
776.99	1092.42
777.173	1233.73
777.355	1186.63
777.537	1211.2
777.719	1219.39
777.901	1129.28
778.083	1192.77
778.265	1127.24
778.447	1223.49
778.629	1164.1
778.811	1020.74
778.993	1143.62
779.175	1241.92
779.357	1069.89
779.539	932.68
779.721	1080.13
779.903	1059.65
780.085	1059.65
780.267	1073.99
780.449	1041.22
780.631	1174.34
780.812	1114.95
780.994	1037.13
781.176	1078.08
781.358	936.78
781.54	959.3
781.721	996.17
781.903	1098.56
782.085	1006.41
782.267	1065.8
782.448	942.92
782.63	951.11
782.812	1033.03
782.993	899.91
783.175	1018.69
783.357	901.96
783.538	914.25
783.72	869.19
783.901	838.47
784.083	789.32
784.264	822.09
784.446	820.04
784.627	875.34
784.809	912.2
784.99	688.97
785.172	817.99
785.353	836.42
785.535	836.42
785.716	834.38
785.897	772.94
786.079	887.62
786.26	850.76
786.441	832.33
786.623	713.55
786.804	738.12
786.985	756.55
787.167	815.94
787.348	713.55
787.529	791.37
787.71	744.27
787.891	807.75
788.073	752.46
788.254	736.07
788.435	809.8
788.616	777.03
788.797	664.4
788.978	682.83
789.159	596.81
789.34	779.08
789.522	717.64
789.703	631.63
789.884	717.64
790.065	688.97
790.246	750.41
790.427	674.64
790.607	668.49
790.788	748.36
790.969	613.2
791.15	615.24
791.331	602.96
791.512	602.96
791.693	602.96
791.874	682.83
792.054	705.35
792.235	752.46
792.416	514.89
792.597	539.47
792.778	652.11
792.958	635.72
793.139	619.34
793.32	643.92
793.5	553.8
793.681	609.1
793.862	680.78
794.042	578.38
794.223	537.42
794.404	535.37
794.584	492.37
794.765	475.98
794.945	537.42
795.126	572.24
795.306	592.72
795.487	555.85
795.667	439.12
795.848	529.23
796.028	549.71
796.209	521.04
796.389	584.52
796.57	547.66
796.75	510.8
796.93	572.24
797.111	478.03
797.291	459.6
797.471	478.03
797.652	416.59
797.832	512.85
798.012	492.37
798.192	531.28
798.373	383.82
798.553	475.98
798.733	451.41
798.913	510.8
799.093	488.27
799.274	504.65
799.454	465.74
799.634	381.78
799.814	531.28
799.994	500.56
800.174	557.9
800.354	449.36
800.534	418.64
800.714	473.93
800.894	420.69
801.074	334.67
801.254	410.45
801.434	539.47
801.614	342.86
801.794	373.58
801.974	1461.06
802.154	334.67
802.334	408.4
802.514	445.26
802.693	351.06
802.873	441.17
803.053	471.89
803.233	416.59
803.413	387.92
803.592	383.82
803.772	342.86
803.952	400.21
804.131	289.62
804.311	535.37
804.491	344.91
804.67	402.26
804.85	324.43
805.03	402.26
805.209	447.31
805.389	346.96
805.568	310.1
805.748	369.49
805.928	414.54
806.107	314.19
806.287	457.55
806.466	383.82
806.646	398.16
806.825	363.34
807.004	359.25
807.184	267.09
807.363	361.3
807.543	414.54
807.722	340.82
807.901	342.86
808.081	320.34
808.26	301.9
808.439	351.06
808.619	426.83
808.798	267.09
808.977	312.14
809.156	334.67
809.336	334.67
809.515	332.62
809.694	334.67
809.873	267.09
810.052	322.38
810.231	265.04
810.411	351.06
810.59	262.99
810.769	277.33
810.948	330.58
811.127	217.94
811.306	301.9
811.485	310.1
811.664	408.4
811.843	275.28
812.022	303.95
812.201	330.58
812.38	293.71
812.559	293.71
812.737	215.89
812.916	213.84
813.095	244.56
813.274	293.71
813.453	308.05
813.632	252.75
813.811	252.75
813.989	277.33
814.168	250.71
814.347	232.27
814.526	250.71
814.704	242.51
814.883	310.1
815.062	154.45
815.24	285.52
815.419	219.99
815.598	267.09
815.776	148.31
815.955	258.9
816.133	164.69
816.312	318.29
816.49	230.23
816.669	254.8
816.847	291.66
817.026	168.79
817.204	260.95
817.383	127.83
817.561	195.41
817.74	244.56
817.918	281.43
818.097	254.8
818.275	224.08
818.453	185.17
818.632	240.47
818.81	201.55
818.988	222.03
819.167	234.32
819.345	260.95
819.523	179.03
819.701	203.6
819.879	195.41
820.058	287.57
820.236	252.75
820.414	262.99
820.592	144.21
820.77	250.71
820.948	164.69
821.127	144.21
821.305	273.23
821.483	201.55
821.661	246.61
821.839	230.23
822.017	193.36
822.195	170.83
822.373	277.33
822.551	142.16
822.729	279.38
822.907	185.17
823.085	209.75
823.262	191.31
823.44	162.64
823.618	248.66
823.796	199.51
823.974	189.27
824.152	105.3
824.329	129.88
824.507	168.79
824.685	158.55
824.863	211.79
825.04	181.07
825.218	230.23
825.396	187.22
825.574	148.31
825.751	138.07
825.929	306
826.107	95.06
826.284	154.45
826.462	129.88
826.639	168.79
826.817	152.4
826.994	125.78
827.172	166.74
827.349	226.13
827.527	166.74
827.704	148.31
827.882	240.47
828.059	150.36
828.237	127.83
828.414	174.93
828.591	82.77
828.769	136.02
828.946	144.21
829.124	154.45
829.301	242.51
829.478	148.31
829.655	160.59
829.833	99.16
830.01	78.68
830.187	181.07
830.364	101.2
830.542	140.12
830.719	162.64
830.896	164.69
831.073	162.64
831.25	119.64
831.427	144.21
831.604	90.96
831.782	54.1
831.959	121.68
832.136	133.97
832.313	203.6
832.49	101.2
832.667	146.26
832.844	148.31
833.021	209.75
833.198	107.35
833.374	136.02
833.551	142.16
833.728	95.06
833.905	164.69
834.082	52.05
834.259	115.54
834.436	230.23
834.612	129.88
834.789	197.46
834.966	111.44
835.143	74.58
835.319	70.48
835.496	82.77
835.673	146.26
835.85	148.31
836.026	150.36
836.203	80.72
836.38	174.93
836.556	138.07
836.733	123.73
836.909	146.26
837.086	103.25
837.262	60.24
837.439	176.98
837.616	86.87
837.792	80.72
837.968	97.11
838.145	78.68
838.321	156.5
838.498	217.94
838.674	150.36
838.851	68.44
839.027	33.62
839.203	68.44
839.38	146.26
839.556	170.83
839.732	144.21
839.909	64.34
840.085	129.88
840.261	62.29
840.437	50
840.614	56.15
840.79	136.02
840.966	121.68
841.142	158.55
841.318	109.4
841.494	131.92
841.671	27.48
841.847	-1.19
842.023	31.57
842.199	52.05
842.375	168.79
842.551	23.38
842.727	62.29
842.903	103.25
843.079	86.87
843.255	205.65
843.431	52.05
843.607	133.97
843.783	68.44
843.959	64.34
844.134	70.48
844.31	68.44
844.486	88.92
844.662	37.72
844.838	50
845.013	99.16
845.189	60.24
845.365	105.3
845.541	90.96
845.716	-19.63
845.892	86.87
846.068	164.69
846.244	-17.58
846.419	25.43
846.595	43.86
846.77	31.57
846.946	101.2
847.122	35.67
847.297	39.76
847.473	144.21
847.648	11.09
847.824	93.01
847.999	25.43
848.175	76.63
848.35	142.16
848.526	136.02
848.701	93.01
848.876	88.92
849.052	62.29
849.227	70.48
849.403	74.58
849.578	21.33
849.753	56.15
849.929	54.1
850.104	-54.44
850.279	35.67
850.454	142.16
850.63	121.68
850.805	56.15
850.98	45.91
851.155	80.72
851.33	64.34
851.505	-27.82
851.681	82.77
851.856	70.48
852.031	164.69
852.206	142.16
852.381	7
852.556	29.52
852.731	172.88
852.906	21.33
853.081	13.14
853.256	119.64
853.431	-9.39
853.606	25.43
853.781	-44.2
853.956	-38.06
854.131	-5.29
854.305	-29.87
854.48	66.39
854.655	76.63
854.83	74.58
855.005	56.15
855.18	47.96
855.354	72.53
855.529	29.52
855.704	-13.48
855.879	72.53
856.053	54.1
856.228	33.62
856.403	13.14
856.577	136.02
856.752	0.85
856.926	47.96
857.101	82.77
857.276	-87.21
857.45	-3.24
857.625	2.9
857.799	29.52
857.974	33.62
858.148	-62.63
858.323	136.02
858.497	43.86
858.672	4.95
858.846	4.95
859.02	136.02
859.195	-95.4
859.369	29.52
859.543	-3.24
859.718	11.09
859.892	52.05
860.066	-38.06
860.241	39.76
860.415	95.06
860.589	-50.35
860.763	70.48
860.938	-36.01
861.112	-36.01
861.286	29.52
861.46	-5.29
861.634	31.57
861.808	80.72
861.982	-7.34
862.157	58.2
862.331	-5.29
862.505	-19.63
862.679	-36.01
862.853	54.1
863.027	31.57
863.201	84.82
863.375	-5.29
863.549	-50.35
863.722	41.81
863.896	88.92
864.07	25.43
864.244	29.52
864.418	47.96
864.592	27.48
864.766	11.09
864.939	31.57
865.113	35.67
865.287	19.29
865.461	11.09
865.634	62.29
865.808	56.15
865.982	58.2
866.156	-13.48
866.329	82.77
866.503	35.67
866.676	-9.39
866.85	105.3
867.024	15.19
867.197	-5.29
867.371	21.33
867.544	-3.24
867.718	-44.2
867.891	76.63
868.065	-5.29
868.238	39.76
868.412	56.15
868.585	60.24
868.759	21.33
868.932	35.67
869.105	2.9
869.279	35.67
869.452	-27.82
869.625	50
869.799	21.33
869.972	-40.11
870.145	39.76
870.319	50
870.492	-17.58
870.665	84.82
870.838	13.14
871.011	-64.68
871.185	-79.02
871.358	33.62
871.531	41.81
871.704	-5.29
871.877	86.87
872.05	66.39
872.223	-48.3
872.396	60.24
872.569	47.96
872.742	-48.3
872.915	60.24
873.088	-23.72
873.261	-9.39
873.434	54.1
873.607	33.62
873.78	-17.58
873.953	-46.25
874.126	-70.83
874.299	13.14
874.471	-11.43
874.644	11.09
874.817	15.19
874.99	58.2
875.163	74.58
875.335	31.57
875.508	56.15
875.681	33.62
875.853	27.48
876.026	19.29
876.199	62.29
876.371	13.14
876.544	-25.77
876.717	2.9
876.889	-36.01
877.062	13.14
877.234	-85.16
877.407	-9.39
877.579	23.38
877.752	11.09
877.924	103.25
878.097	60.24
878.269	4.95
878.442	9.05
878.614	-15.53
878.786	19.29
878.959	-17.58
879.131	7
879.303	-7.34
879.476	25.43
879.648	45.91
879.82	-15.53
879.993	-11.43
880.165	62.29
880.337	-36.01
880.509	-36.01
880.681	-132.26
880.854	-54.44
881.026	52.05
881.198	152.4
881.37	15.19
881.542	7
881.714	0.85
881.886	-9.39
882.058	15.19
882.23	-7.34
882.402	-19.63
882.574	140.12
882.746	64.34
882.918	90.96
883.09	82.77
883.262	43.86
883.434	41.81
883.606	-15.53
883.778	56.15
883.95	117.59
884.122	35.67
884.293	68.44
884.465	35.67
884.637	-21.67
884.809	-15.53
884.98	78.68
885.152	123.73
885.324	72.53
885.496	-27.82
885.667	19.29
885.839	-31.91
886.011	31.57
886.182	-5.29
886.354	11.09
886.525	21.33
886.697	60.24
886.869	-54.44
887.04	-33.96
887.212	-9.39
887.383	123.73
887.555	33.62
887.726	-72.87
887.897	33.62
888.069	27.48
888.24	27.48
888.412	-17.58
888.583	-9.39
888.754	15.19
888.926	-40.11
889.097	29.52
889.268	-60.59
889.44	23.38
889.611	-11.43
889.782	37.72
889.953	-54.44
890.125	47.96
890.296	-13.48
890.467	-11.43
890.638	-52.39
890.809	-7.34
890.98	23.38
891.151	58.2
891.323	41.81
891.494	-5.29
891.665	-19.63
891.836	-3.24
892.007	54.1
892.178	43.86
892.349	39.76
892.52	19.29
892.691	15.19
892.862	-64.68
893.032	-27.82
893.203	25.43
893.374	-13.48
893.545	13.14
893.716	33.62
893.887	64.34
894.057	19.29
894.228	25.43
894.399	0.85
894.57	70.48
894.74	0.85
894.911	15.19
895.082	-52.39
895.253	-5.29
895.423	4.95
895.594	7
895.764	-11.43
895.935	-56.49
896.106	-7.34
896.276	47.96
896.447	23.38
896.617	21.33
896.788	-13.48
896.958	50
897.129	-13.48
897.299	-13.48
897.47	47.96
897.64	13.14
897.81	-27.82
897.981	41.81
898.151	-42.15
898.322	13.14
898.492	-19.63
898.662	-117.93
898.832	47.96
899.003	-33.96
899.173	37.72
899.343	4.95
899.513	-27.82
