Data from USB4F104151__50__12-12-17-705.txt Node

Date: Fri Mar 14 12:12:17 EDT 2025
User: louis
Spectrometer: USB4F10415
Trigger mode: 4
Integration Time (sec): 5.000000E-2
Scans to average: 1
Electric dark correction enabled: true
Nonlinearity correction enabled: false
Boxcar width: 0
XAxis mode: Wavelengths
Number of Pixels in Spectrum: 3648
>>>>>Begin Spectral Data<<<<<
178.204	-177.15
178.424	-177.15
178.644	-177.15
178.864	-179.2
179.084	-173.05
179.304	-37.89
179.524	-17.41
179.744	-27.65
179.964	68.61
180.184	13.31
180.404	-17.41
180.624	-15.36
180.844	1.02
181.064	-21.5
181.283	72.7
181.503	-33.79
181.723	15.36
181.943	-50.18
182.163	60.42
182.383	21.5
182.602	132.09
182.822	56.32
183.042	-19.46
183.262	33.79
183.482	-9.22
183.701	-5.12
183.921	33.79
184.141	72.7
184.361	46.08
184.58	3.07
184.8	101.37
185.02	54.27
185.239	115.71
185.459	87.04
185.679	74.75
185.898	-27.65
186.118	95.23
186.338	72.7
186.557	64.51
186.777	3.07
186.997	52.22
187.216	-27.65
187.436	105.47
187.655	95.23
187.875	117.76
188.095	48.13
188.314	56.32
188.534	117.76
188.753	-21.5
188.973	105.47
189.192	142.33
189.412	-1.02
189.631	54.27
189.851	-11.26
190.07	150.53
190.29	7.17
190.509	-13.31
190.729	37.89
190.948	80.89
191.168	201.72
191.387	95.23
191.607	-5.12
191.826	7.17
192.045	23.55
192.265	27.65
192.484	-46.08
192.704	35.84
192.923	66.56
193.142	134.14
193.362	72.7
193.581	74.75
193.8	89.09
194.02	70.65
194.239	19.46
194.458	66.56
194.678	58.37
194.897	15.36
195.116	52.22
195.335	41.98
195.555	78.85
195.774	-13.31
195.993	72.7
196.212	-23.55
196.432	39.94
196.651	93.18
196.87	3.07
197.089	158.72
197.308	68.61
197.528	87.04
197.747	-58.37
197.966	103.42
198.185	62.46
198.404	21.5
198.623	54.27
198.842	168.96
199.062	87.04
199.281	91.13
199.5	113.66
199.719	82.94
199.938	56.32
200.157	44.03
200.376	64.51
200.595	41.98
200.814	80.89
201.033	-35.84
201.252	105.47
201.471	19.46
201.69	89.09
201.909	105.47
202.128	58.37
202.347	105.47
202.566	56.32
202.785	29.7
203.004	-19.46
203.223	134.14
203.442	54.27
203.661	-35.84
203.879	54.27
204.098	23.55
204.317	25.6
204.536	74.75
204.755	27.65
204.974	31.74
205.193	91.13
205.411	115.71
205.63	13.31
205.849	39.94
206.068	-5.12
206.287	44.03
206.505	111.61
206.724	-5.12
206.943	-17.41
207.162	37.89
207.381	80.89
207.599	29.7
207.818	74.75
208.037	11.26
208.255	-21.5
208.474	66.56
208.693	66.56
208.911	17.41
209.13	54.27
209.349	87.04
209.567	64.51
209.786	142.33
210.005	68.61
210.223	9.22
210.442	-7.17
210.661	52.22
210.879	50.18
211.098	99.33
211.316	29.7
211.535	37.89
211.753	11.26
211.972	58.37
212.191	62.46
212.409	95.23
212.628	66.56
212.846	-39.94
213.065	82.94
213.283	128
213.502	84.99
213.72	103.42
213.938	54.27
214.157	54.27
214.375	62.46
214.594	-7.17
214.812	68.61
215.031	52.22
215.249	56.32
215.467	11.26
215.686	25.6
215.904	107.52
216.122	76.8
216.341	95.23
216.559	25.6
216.778	93.18
216.996	152.57
217.214	13.31
217.432	-21.5
217.651	54.27
217.869	29.7
218.087	84.99
218.306	-19.46
218.524	27.65
218.742	39.94
218.96	62.46
219.179	-35.84
219.397	66.56
219.615	140.29
219.833	70.65
220.051	103.42
220.27	97.28
220.488	128
220.706	109.57
220.924	27.65
221.142	11.26
221.36	113.66
221.578	37.89
221.796	56.32
222.015	-74.75
222.233	46.08
222.451	68.61
222.669	-27.65
222.887	82.94
223.105	68.61
223.323	66.56
223.541	31.74
223.759	64.51
223.977	33.79
224.195	148.48
224.413	115.71
224.631	93.18
224.849	21.5
225.067	162.81
225.285	87.04
225.503	-7.17
225.721	-31.74
225.939	39.94
226.157	97.28
226.375	156.67
226.592	44.03
226.81	50.18
227.028	132.09
227.246	144.38
227.464	93.18
227.682	109.57
227.9	72.7
228.117	23.55
228.335	60.42
228.553	25.6
228.771	84.99
228.989	52.22
229.206	54.27
229.424	54.27
229.642	50.18
229.86	-1.02
230.077	87.04
230.295	91.13
230.513	162.81
230.731	78.85
230.948	95.23
231.166	48.13
231.384	25.6
231.601	74.75
231.819	132.09
232.037	48.13
232.254	70.65
232.472	74.75
232.689	-35.84
232.907	46.08
233.125	-3.07
233.342	5.12
233.56	-50.18
233.777	3.07
233.995	78.85
234.213	27.65
234.43	54.27
234.648	44.03
234.865	44.03
235.083	84.99
235.3	101.37
235.518	80.89
235.735	87.04
235.953	130.05
236.17	64.51
236.388	7.17
236.605	-9.22
236.822	56.32
237.04	123.9
237.257	13.31
237.475	-37.89
237.692	54.27
237.909	23.55
238.127	-29.7
238.344	46.08
238.562	68.61
238.779	17.41
238.996	17.41
239.214	-5.12
239.431	78.85
239.648	13.31
239.865	68.61
240.083	27.65
240.3	76.8
240.517	31.74
240.735	25.6
240.952	54.27
241.169	130.05
241.386	25.6
241.603	44.03
241.821	-44.03
242.038	23.55
242.255	70.65
242.472	31.74
242.689	68.61
242.907	19.46
243.124	64.51
243.341	76.8
243.558	54.27
243.775	11.26
243.992	-3.07
244.209	72.7
244.426	154.62
244.643	-35.84
244.86	1.02
245.078	89.09
245.295	-3.07
245.512	39.94
245.729	27.65
245.946	68.61
246.163	11.26
246.38	54.27
246.597	52.22
246.814	-15.36
247.031	56.32
247.248	62.46
247.464	1.02
247.681	46.08
247.898	78.85
248.115	60.42
248.332	35.84
248.549	158.72
248.766	89.09
248.983	87.04
249.2	113.66
249.417	60.42
249.633	87.04
249.85	109.57
250.067	80.89
250.284	37.89
250.501	56.32
250.717	62.46
250.934	-62.46
251.151	46.08
251.368	15.36
251.585	132.09
251.801	31.74
252.018	58.37
252.235	91.13
252.451	107.52
252.668	17.41
252.885	62.46
253.102	60.42
253.318	37.89
253.535	33.79
253.752	58.37
253.968	-41.98
254.185	-21.5
254.401	31.74
254.618	48.13
254.835	50.18
255.051	93.18
255.268	84.99
255.484	80.89
255.701	46.08
255.917	80.89
256.134	39.94
256.351	9.22
256.567	21.5
256.784	80.89
257	-9.22
257.217	37.89
257.433	35.84
257.65	-21.5
257.866	91.13
258.082	46.08
258.299	56.32
258.515	68.61
258.732	-3.07
258.948	-5.12
259.165	39.94
259.381	-54.27
259.597	11.26
259.814	9.22
260.03	95.23
260.246	72.7
260.463	113.66
260.679	123.9
260.895	-64.51
261.112	52.22
261.328	25.6
261.544	68.61
261.761	103.42
261.977	66.56
262.193	-9.22
262.409	103.42
262.626	64.51
262.842	44.03
263.058	-33.79
263.274	89.09
263.49	17.41
263.707	93.18
263.923	62.46
264.139	-46.08
264.355	25.6
264.571	56.32
264.787	19.46
265.004	82.94
265.22	50.18
265.436	62.46
265.652	5.12
265.868	-29.7
266.084	1.02
266.3	-13.31
266.516	-46.08
266.732	101.37
266.948	27.65
267.164	97.28
267.38	27.65
267.596	50.18
267.812	76.8
268.028	84.99
268.244	-19.46
268.46	27.65
268.676	13.31
268.892	82.94
269.108	-1.02
269.324	-5.12
269.54	54.27
269.756	103.42
269.972	-27.65
270.188	93.18
270.403	-15.36
270.619	76.8
270.835	54.27
271.051	3.07
271.267	82.94
271.483	9.22
271.698	72.7
271.914	-5.12
272.13	62.46
272.346	-62.46
272.562	109.57
272.777	-13.31
272.993	-1.02
273.209	-7.17
273.425	87.04
273.64	-37.89
273.856	91.13
274.072	25.6
274.287	-23.55
274.503	103.42
274.719	80.89
274.934	64.51
275.15	-7.17
275.366	29.7
275.581	-11.26
275.797	82.94
276.012	41.98
276.228	-9.22
276.444	62.46
276.659	107.52
276.875	5.12
277.09	60.42
277.306	5.12
277.521	62.46
277.737	23.55
277.952	64.51
278.168	72.7
278.383	80.89
278.599	-3.07
278.814	70.65
279.03	-7.17
279.245	123.9
279.461	33.79
279.676	132.09
279.892	-37.89
280.107	-50.18
280.322	72.7
280.538	70.65
280.753	5.12
280.969	-31.74
281.184	87.04
281.399	132.09
281.615	93.18
281.83	3.07
282.045	9.22
282.26	-37.89
282.476	9.22
282.691	89.09
282.906	13.31
283.122	-60.42
283.337	17.41
283.552	52.22
283.767	46.08
283.983	109.57
284.198	29.7
284.413	-31.74
284.628	3.07
284.843	-3.07
285.058	60.42
285.274	68.61
285.489	19.46
285.704	87.04
285.919	33.79
286.134	99.33
286.349	44.03
286.564	21.5
286.779	146.43
286.995	15.36
287.21	-25.6
287.425	44.03
287.64	-3.07
287.855	105.47
288.07	15.36
288.285	29.7
288.5	117.76
288.715	29.7
288.93	64.51
289.145	62.46
289.36	33.79
289.575	13.31
289.79	78.85
290.004	23.55
290.219	101.37
290.434	-64.51
290.649	11.26
290.864	-19.46
291.079	23.55
291.294	31.74
291.509	-25.6
291.724	33.79
291.938	9.22
292.153	29.7
292.368	19.46
292.583	39.94
292.798	103.42
293.012	23.55
293.227	37.89
293.442	-37.89
293.657	84.99
293.871	70.65
294.086	19.46
294.301	197.63
294.516	21.5
294.73	146.43
294.945	-19.46
295.16	64.51
295.374	87.04
295.589	64.51
295.804	31.74
296.018	99.33
296.233	80.89
296.447	78.85
296.662	64.51
296.877	70.65
297.091	39.94
297.306	44.03
297.52	23.55
297.735	56.32
297.949	89.09
298.164	66.56
298.378	58.37
298.593	87.04
298.807	25.6
299.022	119.81
299.236	134.14
299.451	66.56
299.665	66.56
299.88	60.42
300.094	62.46
300.309	66.56
300.523	-13.31
300.737	60.42
300.952	54.27
301.166	99.33
301.381	25.6
301.595	50.18
301.809	41.98
302.024	13.31
302.238	-23.55
302.452	93.18
302.667	54.27
302.881	74.75
303.095	144.38
303.309	-1.02
303.524	17.41
303.738	-29.7
303.952	-13.31
304.166	25.6
304.381	-64.51
304.595	76.8
304.809	68.61
305.023	17.41
305.237	41.98
305.452	17.41
305.666	56.32
305.88	82.94
306.094	154.62
306.308	39.94
306.522	109.57
306.736	89.09
306.95	41.98
307.164	101.37
307.379	97.28
307.593	1.02
307.807	93.18
308.021	72.7
308.235	82.94
308.449	-11.26
308.663	-7.17
308.877	171.01
309.091	37.89
309.305	113.66
309.519	-21.5
309.733	95.23
309.947	-9.22
310.161	31.74
310.374	105.47
310.588	99.33
310.802	46.08
311.016	-1.02
311.23	74.75
311.444	-21.5
311.658	103.42
311.872	87.04
312.085	103.42
312.299	11.26
312.513	123.9
312.727	54.27
312.941	44.03
313.154	113.66
313.368	44.03
313.582	11.26
313.796	152.57
314.009	41.98
314.223	105.47
314.437	66.56
314.651	3.07
314.864	128
315.078	27.65
315.292	50.18
315.505	7.17
315.719	84.99
315.933	119.81
316.146	44.03
316.36	-11.26
316.573	82.94
316.787	89.09
317.001	76.8
317.214	-17.41
317.428	125.95
317.641	23.55
317.855	33.79
318.068	60.42
318.282	128
318.495	41.98
318.709	162.81
318.922	89.09
319.136	115.71
319.349	119.81
319.563	64.51
319.776	23.55
319.99	-23.55
320.203	46.08
320.417	46.08
320.63	48.13
320.843	183.29
321.057	89.09
321.27	101.37
321.483	64.51
321.697	89.09
321.91	99.33
322.124	105.47
322.337	19.46
322.55	9.22
322.763	39.94
322.977	-21.5
323.19	44.03
323.403	11.26
323.617	13.31
323.83	56.32
324.043	15.36
324.256	31.74
324.469	60.42
324.683	3.07
324.896	7.17
325.109	3.07
325.322	-128
325.535	87.04
325.748	52.22
325.962	76.8
326.175	41.98
326.388	29.7
326.601	113.66
326.814	87.04
327.027	82.94
327.24	134.14
327.453	-27.65
327.666	78.85
327.879	93.18
328.092	119.81
328.305	89.09
328.518	1.02
328.731	103.42
328.944	60.42
329.157	113.66
329.37	-13.31
329.583	152.57
329.796	119.81
330.009	7.17
330.222	109.57
330.435	125.95
330.648	11.26
330.861	41.98
331.073	84.99
331.286	78.85
331.499	-9.22
331.712	5.12
331.925	123.9
332.138	72.7
332.35	101.37
332.563	50.18
332.776	101.37
332.989	27.65
333.202	87.04
333.414	56.32
333.627	87.04
333.84	13.31
334.053	62.46
334.265	72.7
334.478	29.7
334.691	-1.02
334.903	60.42
335.116	21.5
335.329	60.42
335.541	56.32
335.754	119.81
335.966	-23.55
336.179	56.32
336.392	41.98
336.604	78.85
336.817	82.94
337.029	76.8
337.242	23.55
337.454	66.56
337.667	27.65
337.88	109.57
338.092	72.7
338.305	168.96
338.517	58.37
338.729	132.09
338.942	72.7
339.154	5.12
339.367	25.6
339.579	99.33
339.792	25.6
340.004	99.33
340.217	84.99
340.429	35.84
340.641	-7.17
340.854	60.42
341.066	-7.17
341.278	105.47
341.491	152.57
341.703	44.03
341.915	-21.5
342.128	109.57
342.34	74.75
342.552	39.94
342.764	97.28
342.977	87.04
343.189	48.13
343.401	64.51
343.613	62.46
343.826	95.23
344.038	27.65
344.25	74.75
344.462	48.13
344.674	72.7
344.886	113.66
345.099	70.65
345.311	72.7
345.523	-31.74
345.735	-60.42
345.947	82.94
346.159	84.99
346.371	52.22
346.583	37.89
346.795	140.29
347.007	46.08
347.219	105.47
347.431	35.84
347.643	160.77
347.855	13.31
348.067	87.04
348.279	-19.46
348.491	64.51
348.703	138.24
348.915	27.65
349.127	-50.18
349.339	37.89
349.551	50.18
349.763	64.51
349.975	-23.55
350.187	154.62
350.399	101.37
350.61	-13.31
350.822	64.51
351.034	52.22
351.246	84.99
351.458	113.66
351.669	140.29
351.881	146.43
352.093	99.33
352.305	68.61
352.517	111.61
352.728	93.18
352.94	37.89
353.152	35.84
353.363	25.6
353.575	54.27
353.787	128
353.999	74.75
354.21	56.32
354.422	35.84
354.633	48.13
354.845	46.08
355.057	3.07
355.268	56.32
355.48	15.36
355.692	60.42
355.903	44.03
356.115	1.02
356.326	13.31
356.538	119.81
356.749	60.42
356.961	119.81
357.172	17.41
357.384	-54.27
357.595	150.53
357.807	62.46
358.018	1.02
358.23	-48.13
358.441	95.23
358.653	168.96
358.864	78.85
359.075	33.79
359.287	11.26
359.498	121.85
359.709	111.61
359.921	23.55
360.132	113.66
360.344	52.22
360.555	70.65
360.766	48.13
360.977	-21.5
361.189	152.57
361.4	-31.74
361.611	80.89
361.823	70.65
362.034	39.94
362.245	-11.26
362.456	103.42
362.667	84.99
362.879	-68.61
363.09	119.81
363.301	41.98
363.512	25.6
363.723	25.6
363.935	52.22
364.146	44.03
364.357	105.47
364.568	93.18
364.779	31.74
364.99	160.77
365.201	37.89
365.412	144.38
365.623	13.31
365.834	58.37
366.045	-3.07
366.256	103.42
366.467	74.75
366.678	87.04
366.889	78.85
367.1	52.22
367.311	70.65
367.522	21.5
367.733	93.18
367.944	76.8
368.155	46.08
368.366	105.47
368.577	70.65
368.788	109.57
368.999	7.17
369.209	15.36
369.42	218.11
369.631	173.05
369.842	31.74
370.053	103.42
370.264	54.27
370.474	27.65
370.685	21.5
370.896	46.08
371.107	58.37
371.317	48.13
371.528	68.61
371.739	80.89
371.95	74.75
372.16	128
372.371	27.65
372.582	37.89
372.792	66.56
373.003	60.42
373.214	52.22
373.424	78.85
373.635	60.42
373.846	97.28
374.056	70.65
374.267	58.37
374.477	44.03
374.688	-19.46
374.898	25.6
375.109	23.55
375.319	68.61
375.53	109.57
375.74	117.76
375.951	74.75
376.161	95.23
376.372	136.19
376.582	1.02
376.793	121.85
377.003	58.37
377.214	-7.17
377.424	87.04
377.635	23.55
377.845	68.61
378.055	60.42
378.266	11.26
378.476	113.66
378.686	15.36
378.897	123.9
379.107	84.99
379.317	70.65
379.528	58.37
379.738	158.72
379.948	-25.6
380.158	101.37
380.369	89.09
380.579	72.7
380.789	80.89
380.999	87.04
381.21	87.04
381.42	158.72
381.63	3.07
381.84	37.89
382.05	37.89
382.261	136.19
382.471	93.18
382.681	97.28
382.891	119.81
383.101	68.61
383.311	-9.22
383.521	50.18
383.731	115.71
383.941	87.04
384.151	52.22
384.361	44.03
384.571	39.94
384.781	76.8
384.991	164.86
385.201	128
385.411	23.55
385.621	121.85
385.831	21.5
386.041	87.04
386.251	99.33
386.461	56.32
386.671	48.13
386.881	35.84
387.091	15.36
387.301	91.13
387.511	54.27
387.72	44.03
387.93	1.02
388.14	5.12
388.35	39.94
388.56	111.61
388.769	125.95
388.979	111.61
389.189	54.27
389.399	50.18
389.609	76.8
389.818	173.05
390.028	78.85
390.238	138.24
390.447	99.33
390.657	78.85
390.867	37.89
391.076	-17.41
391.286	119.81
391.496	173.05
391.705	64.51
391.915	152.57
392.125	130.05
392.334	48.13
392.544	138.24
392.753	33.79
392.963	76.8
393.172	58.37
393.382	72.7
393.591	123.9
393.801	113.66
394.01	121.85
394.22	166.91
394.429	50.18
394.639	21.5
394.848	91.13
395.058	111.61
395.267	101.37
395.477	121.85
395.686	115.71
395.895	209.92
396.105	152.57
396.314	95.23
396.524	138.24
396.733	91.13
396.942	148.48
397.152	154.62
397.361	160.77
397.57	136.19
397.78	136.19
397.989	119.81
398.198	160.77
398.407	62.46
398.617	134.14
398.826	134.14
399.035	107.52
399.244	123.9
399.453	78.85
399.663	123.9
399.872	84.99
400.081	123.9
400.29	214.01
400.499	144.38
400.708	148.48
400.917	134.14
401.127	113.66
401.336	115.71
401.545	160.77
401.754	177.15
401.963	166.91
402.172	177.15
402.381	128
402.59	87.04
402.799	193.53
403.008	191.49
403.217	156.67
403.426	142.33
403.635	142.33
403.844	173.05
404.053	195.58
404.262	80.89
404.471	277.5
404.68	156.67
404.888	191.49
405.097	105.47
405.306	173.05
405.515	103.42
405.724	185.34
405.933	199.68
406.142	238.59
406.35	254.97
406.559	177.15
406.768	168.96
406.977	375.8
407.185	214.01
407.394	199.68
407.603	205.82
407.812	295.93
408.02	340.99
408.229	203.77
408.438	297.98
408.646	230.4
408.855	236.54
409.064	287.74
409.272	283.64
409.481	338.94
409.69	232.44
409.898	267.26
410.107	320.51
410.315	355.32
410.524	279.55
410.733	388.09
410.941	345.08
411.15	414.71
411.358	449.53
411.567	578.55
411.775	533.5
411.984	424.95
412.192	472.06
412.401	463.86
412.609	599.03
412.818	506.87
413.026	582.65
413.234	617.46
413.443	627.7
413.651	523.26
413.86	625.65
414.068	658.42
414.276	779.25
414.485	715.77
414.693	809.97
414.901	766.96
415.11	728.05
415.318	723.96
415.526	928.75
415.734	924.66
415.943	791.54
416.151	1010.67
416.359	869.36
416.567	945.14
416.776	992.24
416.984	1129.45
417.192	1149.93
417.4	1149.93
417.608	1068.02
417.817	1168.37
418.025	1229.81
418.233	1358.83
418.441	1147.89
418.649	1266.67
418.857	1436.65
419.065	1471.47
419.273	1348.59
419.481	1489.9
419.689	1565.67
419.897	1571.82
420.105	1666.02
420.313	1743.85
420.521	1793
420.729	1858.53
420.937	1811.43
421.145	1915.87
421.353	1950.69
421.561	2120.67
421.769	2075.62
421.977	2094.05
422.185	2243.55
422.393	2315.23
422.601	2462.68
422.809	2462.68
423.017	2399.2
423.224	2634.71
423.432	2718.68
423.64	2655.19
423.848	2952.15
424.056	2886.61
424.263	3105.74
424.471	3115.98
424.679	3103.7
424.887	3218.38
425.094	3288.01
425.302	3431.37
425.51	3552.2
425.718	3529.67
425.925	3730.38
426.133	3961.8
426.341	4121.54
426.548	4236.22
426.756	4254.66
426.964	4498.36
427.171	4383.68
427.379	4699.06
427.586	4733.88
427.794	4729.78
428.001	5110.71
428.209	5366.7
428.417	5229.49
428.624	5624.75
428.832	5540.78
429.039	5479.34
429.247	5661.61
429.454	6058.92
429.662	6476.7
429.869	6081.44
430.076	6546.33
430.284	6319.01
430.491	6816.66
430.699	7015.32
430.906	6988.69
431.114	7179.15
431.321	7234.45
431.528	7441.29
431.736	7766.92
431.943	8235.91
432.15	8139.65
432.358	8276.87
432.565	8432.51
432.772	8502.14
432.979	9073.53
433.187	9188.21
433.394	9286.51
433.601	9833.32
433.808	10005.35
434.016	9808.75
434.223	10275.68
434.43	10849.11
434.637	10629.98
434.844	11393.87
435.052	11303.76
435.259	11254.61
435.466	11658.06
435.673	11195.22
435.88	12163.91
436.087	12956.47
436.294	12626.75
436.501	12475.2
436.708	12620.61
436.915	12981.05
437.122	13814.57
437.329	13718.32
437.537	14035.75
437.743	14695.2
437.95	14166.82
438.157	15145.75
438.364	15389.46
438.571	15252.25
438.778	15553.3
438.985	16870.14
439.192	16366.34
439.399	16583.43
439.606	16413.45
439.813	17509.11
440.02	18352.87
440.227	17978.09
440.433	18146.03
440.64	18340.58
440.847	18318.06
441.054	18926.3
441.261	20128.46
441.467	19831.51
441.674	20480.71
441.881	21011.14
442.088	20697.8
442.294	20615.88
442.501	21316.28
442.708	21617.33
442.914	22348.46
443.121	23319.2
443.328	22821.54
443.534	24427.15
443.741	23493.27
443.948	23429.79
444.154	25125.5
444.361	24777.35
444.568	25154.18
444.774	25094.79
444.981	25334.4
445.187	26255.98
445.394	27486.81
445.6	26849.89
445.807	29563.45
446.013	28121.68
446.22	28447.31
446.426	29553.21
446.633	29762.11
446.839	31228.45
447.046	29567.55
447.252	31259.17
447.459	31216.16
447.665	31244.84
447.871	32492.05
448.078	34085.37
448.284	32586.25
448.491	32907.79
448.697	34351.6
448.903	35181.03
449.11	34929.13
449.316	34623.98
449.522	35697.12
449.728	36067.8
449.935	36375
450.141	36248.02
450.347	37294.53
450.553	36014.55
450.76	36698.58
450.966	37552.58
451.172	37075.4
451.378	37661.12
451.584	37054.92
451.791	38427.06
451.997	38123.96
452.203	38875.57
452.409	38498.74
452.615	38486.45
452.821	36923.85
453.027	36463.06
453.233	38982.06
453.44	36952.52
453.646	37147.08
453.852	37528
454.058	38519.22
454.264	37194.18
454.47	37962.17
454.676	36755.92
454.882	37970.36
455.088	34843.12
455.294	34845.16
455.5	35977.69
455.705	36094.43
455.911	34462.19
456.117	33925.63
456.323	33841.66
456.529	31603.23
456.735	33229.32
456.941	31830.55
457.147	31744.54
457.352	30591.53
457.558	30267.95
457.764	30347.82
457.97	29825.59
458.176	28871.24
458.381	29129.28
458.587	27802.2
458.793	27525.72
458.999	26221.17
459.204	28240.47
459.41	27316.83
459.616	25322.11
459.821	25707.13
460.027	25492.09
460.233	25041.54
460.438	23593.62
460.644	23806.61
460.85	22821.54
461.055	22465.19
461.261	22489.77
461.466	20597.45
461.672	19999.44
461.878	21490.36
462.083	20030.16
462.289	19653.33
462.494	19573.46
462.7	18594.53
462.905	17994.48
463.111	18868.96
463.316	18547.43
463.522	18248.43
463.727	18608.87
463.932	18137.84
464.138	18076.4
464.343	18119.4
464.549	17476.34
464.754	17902.32
464.959	17887.98
465.165	17890.03
465.37	17240.82
465.575	16792.32
465.781	17208.06
465.986	17425.14
466.191	16640.77
466.397	16550.66
466.602	15545.11
466.807	16190.22
467.012	16268.04
467.218	15825.68
467.423	15770.38
467.628	15825.68
467.833	16929.53
468.038	15829.77
468.244	15354.65
468.449	16139.02
468.654	15553.3
468.859	15356.69
469.064	15194.9
469.269	14687.01
469.474	14789.41
469.679	15178.52
469.885	14662.43
470.09	14789.41
470.295	14740.26
470.5	14170.92
470.705	14611.23
470.91	14058.28
471.115	14017.32
471.32	14375.72
471.525	13996.84
471.73	13787.95
471.935	13775.66
472.139	13456.18
472.344	13251.38
472.549	13544.24
472.754	13077.3
472.959	12858.17
473.164	12485.44
473.369	12512.07
473.574	12837.69
473.778	12886.84
473.983	12493.63
474.188	12528.45
474.393	12057.42
474.598	12008.26
474.802	12184.39
475.007	11656.01
475.212	11828.04
475.417	11375.44
475.621	11340.63
475.826	11375.44
476.031	11268.95
476.235	10797.92
476.44	11045.72
476.645	10759
476.849	10914.65
477.054	10795.87
477.259	10580.83
477.463	10488.67
477.668	10359.65
477.872	10511.2
478.077	10279.78
478.282	10095.46
478.486	10128.23
478.691	9821.03
478.895	9837.42
479.1	9745.26
479.304	9835.37
479.509	9386.86
479.713	9544.56
479.918	9550.7
480.122	9298.8
480.326	9503.6
480.531	9415.54
480.735	9458.54
480.94	9171.83
481.144	9603.95
481.348	8795
481.553	9046.9
481.757	8891.26
481.961	9040.76
482.166	9223.03
482.37	8921.98
482.574	9261.94
482.778	8782.71
482.983	9173.88
483.187	9055.09
483.391	9026.42
483.595	8930.17
483.8	8670.08
484.004	8948.6
484.208	9069.43
484.412	8811.39
484.616	8850.3
484.821	8825.72
485.025	8819.58
485.229	8958.84
485.433	8790.91
485.637	9026.42
485.841	8921.98
486.045	8876.92
486.249	9014.13
486.453	9046.9
486.657	8582.01
486.861	8919.93
487.065	8596.35
487.269	8897.4
487.473	8502.14
487.677	8731.51
487.881	8940.41
488.085	8926.07
488.289	9079.67
488.493	8708.99
488.697	8958.84
488.901	8977.27
489.105	8801.15
489.309	8909.69
489.512	9051
489.716	8795
489.92	9018.23
490.124	8956.79
490.328	8983.41
490.531	8737.66
490.735	9040.76
490.939	8969.08
491.143	9044.85
491.346	9192.31
491.55	9173.88
491.754	9075.57
491.958	9368.43
492.161	9132.92
492.365	9128.82
492.569	9206.64
492.772	9112.44
492.976	9278.32
493.18	9268.08
493.383	9339.76
493.587	9425.78
493.79	9569.13
493.994	9419.63
494.197	9331.57
494.401	9464.69
494.605	9630.57
494.808	9614.19
495.012	9810.79
495.215	9960.3
495.419	9861.99
495.622	9767.79
495.825	9921.38
496.029	9956.2
496.232	10283.88
496.436	10093.41
496.639	10335.07
496.843	10462.05
497.046	10554.21
497.249	10632.03
497.453	10664.8
497.656	10797.92
497.859	10879.83
498.063	10754.91
498.266	11367.25
498.469	11002.71
498.673	11291.48
498.876	11340.63
499.079	11496.27
499.282	11363.15
499.485	11993.93
499.689	11588.43
499.892	11901.77
500.095	12149.57
500.298	12350.28
500.501	12098.38
500.705	12446.53
500.908	12661.57
501.111	12667.71
501.314	12491.59
501.517	12708.67
501.72	12878.65
501.923	13011.77
502.126	13347.64
502.329	13566.77
502.532	13691.7
502.735	13679.41
502.938	14013.23
503.141	13966.12
503.344	14148.39
503.547	14117.67
503.75	14320.42
503.953	14469.92
504.156	14687.01
504.359	14785.31
504.562	14738.21
504.765	15133.47
504.968	15074.07
505.17	15375.13
505.373	15340.31
505.576	15698.7
505.779	15862.54
505.982	15919.89
506.185	16165.64
506.387	15956.75
506.59	16421.64
506.793	16634.63
506.996	16730.88
507.198	17277.69
507.401	16880.38
507.604	17150.71
507.807	17468.15
508.009	17666.8
508.212	17548.02
508.415	17851.12
508.617	18008.81
508.82	18215.66
509.022	18070.25
509.225	18682.59
509.428	18410.22
509.63	18723.55
509.833	18713.31
510.035	19233.5
510.238	19161.82
510.44	19346.14
510.643	19540.69
510.845	19714.77
511.048	19311.32
511.25	19841.75
511.453	20083.41
511.655	20890.31
511.858	20568.77
512.06	20505.29
512.262	20622.02
512.465	20802.24
512.667	20990.66
512.87	21387.96
513.072	21361.34
513.274	21971.63
513.477	22127.28
513.679	21947.06
513.881	22190.77
514.084	22540.97
514.286	22567.59
514.488	22756
514.69	23063.2
514.893	23075.49
515.095	22891.17
515.297	23261.85
515.499	23675.54
515.701	23700.12
515.904	23808.66
516.106	24156.82
516.308	24308.37
516.51	24502.92
516.712	24588.94
516.914	24636.04
517.116	25051.78
517.318	25000.58
517.52	25389.69
517.722	25361.02
517.925	25496.19
518.127	25848.44
518.329	26028.66
518.531	26028.66
518.733	26010.23
518.935	26561.13
519.136	26643.05
519.338	26483.31
519.54	26722.92
519.742	26901.09
519.944	27019.88
520.146	27476.57
520.348	27503.2
520.55	27740.76
520.752	27490.91
520.954	28303.95
521.155	27771.48
521.357	28047.96
521.559	28133.97
521.761	28475.98
521.963	28588.62
522.164	28516.94
522.366	28762.7
522.568	28969.54
522.77	29366.85
522.971	29649.47
523.173	29180.48
523.375	29897.27
523.576	29514.3
523.778	29643.32
523.98	29909.56
524.181	29960.76
524.383	29751.87
524.584	30341.68
524.786	30304.82
524.988	30353.97
525.189	30423.6
525.391	30738.99
525.592	30552.62
525.794	30566.96
525.995	30814.76
526.197	30708.27
526.398	30808.62
526.6	31042.09
526.801	31320.61
527.003	31175.2
527.204	31199.78
527.406	31681.05
527.607	31664.67
527.808	31232.55
528.01	30884.39
528.211	31302.18
528.412	31775.26
528.614	31588.89
528.815	31670.81
529.016	31924.76
529.218	31398.43
529.419	31574.56
529.62	31885.85
529.822	31330.85
530.023	31304.23
530.224	32023.06
530.425	31574.56
530.626	31453.73
530.828	31576.61
531.029	32076.31
531.23	31820.31
531.431	31646.24
531.632	31812.12
531.833	31615.52
532.035	31978.01
532.236	31701.53
532.437	31810.07
532.638	31668.76
532.839	32070.17
533.04	32012.82
533.241	31562.27
533.442	32053.78
533.643	31803.93
533.844	31631.9
534.045	32162.33
534.246	31523.36
534.447	31875.61
534.648	31699.48
534.849	32096.79
535.05	31607.33
535.251	31543.84
535.451	31701.53
535.652	31781.4
535.853	31670.81
536.054	31910.43
536.255	31855.13
536.456	31220.26
536.657	32098.84
536.857	31592.99
537.058	31584.8
537.259	31812.12
537.46	31607.33
537.66	31523.36
537.861	31662.62
538.062	31328.8
538.263	31558.17
538.463	31547.93
538.664	31312.42
538.865	31119.91
539.065	31549.98
539.266	31121.96
539.466	31627.81
539.667	31021.61
539.868	31476.26
540.068	31271.46
540.269	31214.12
540.469	30949.93
540.67	30986.79
540.87	30958.12
541.071	30919.21
541.271	31480.35
541.472	31144.48
541.672	31103.53
541.873	31291.94
542.073	30741.03
542.274	31101.48
542.474	31158.82
542.675	30671.4
542.875	31336.99
543.075	31150.63
543.276	30804.52
543.476	31205.92
543.676	30810.67
543.877	31246.88
544.077	30790.19
544.277	30792.23
544.478	30773.8
544.678	30847.53
544.878	30683.69
545.078	30781.99
545.279	30517.81
545.479	30724.65
545.679	30622.25
545.879	30636.59
546.079	30751.27
546.28	30413.36
546.48	30392.88
546.68	30741.03
546.88	30743.08
547.08	30890.54
547.28	30689.84
547.48	30403.12
547.68	30485.04
547.88	30351.92
548.081	30605.87
548.281	30562.86
548.481	30526
548.681	30466.61
548.881	30392.88
549.081	30390.83
549.28	29897.27
549.48	30188.08
549.68	30259.76
549.88	30640.68
550.08	30036.53
550.28	30315.06
550.48	30374.45
550.68	30556.72
550.88	30136.88
551.08	30194.23
551.279	30116.4
551.479	29782.59
551.679	30249.52
551.879	29997.62
552.079	30390.83
552.278	30194.23
552.478	30120.5
552.678	30014.01
552.878	30052.92
553.077	30192.18
553.277	30028.34
553.477	30521.9
553.676	29995.57
553.876	29962.81
554.076	29712.95
554.275	29878.84
554.475	29674.04
554.674	30210.61
554.874	29864.5
555.074	29694.52
555.273	29954.61
555.473	30077.49
555.672	29377.09
555.872	29612.6
556.071	29862.46
556.271	29932.09
556.47	29626.94
556.67	29448.77
556.869	29489.73
557.068	29463.1
557.268	29262.4
557.467	29471.29
557.667	29502.01
557.866	29364.8
558.065	29665.85
558.265	29557.31
558.464	29416
558.663	29524.54
558.863	29223.49
559.062	29583.93
559.261	28953.16
559.461	29788.73
559.66	29164.1
559.859	29174.34
560.058	28934.73
560.258	29196.87
560.457	28949.06
560.656	29235.78
560.855	28852.81
561.054	29272.64
561.253	29289.03
561.453	29248.07
561.652	29299.26
561.851	28987.97
562.05	28936.77
562.249	28965.45
562.448	29026.89
562.647	28789.32
562.846	28910.15
563.045	29078.08
563.244	28488.27
563.443	28926.53
563.642	28719.69
563.841	28981.83
564.04	28643.91
564.239	29100.61
564.438	28488.27
564.637	28873.29
564.836	29061.7
565.035	28664.39
565.234	28908.1
565.432	28838.47
565.631	28652.11
565.83	28637.77
566.029	28396.11
566.228	28312.14
566.427	28369.49
566.625	28400.21
566.824	28215.89
567.023	28715.59
567.222	28174.93
567.42	28605
567.619	28336.72
567.818	28346.96
568.016	28043.86
568.215	28533.32
568.414	27718.23
568.612	28338.77
568.811	27804.25
569.01	28179.03
569.208	27824.73
569.407	28279.38
569.605	27789.91
569.804	28150.35
570.002	27671.13
570.201	27939.41
570.4	27753.05
570.598	27714.14
570.797	27486.81
570.995	27740.76
571.193	27040.36
571.392	27664.99
571.59	27554.4
571.789	27408.99
571.987	27515.48
572.186	27415.13
572.384	27671.13
572.582	27474.52
572.781	27472.48
572.979	26913.38
573.177	27413.09
573.376	27505.24
573.574	26815.08
573.772	27028.07
573.971	27157.09
574.169	27130.47
574.367	26915.43
574.565	26970.72
574.763	26718.82
574.962	26833.51
575.16	26663.53
575.358	26694.25
575.556	26735.21
575.754	26993.25
575.952	26493.55
576.151	26905.19
576.349	26595.95
576.547	26774.12
576.745	26853.99
576.943	26716.78
577.141	26112.63
577.339	26565.23
577.537	26370.67
577.735	26344.05
577.933	26399.34
578.131	26223.22
578.329	26327.66
578.527	25774.71
578.725	26182.26
578.923	26145.39
579.121	26233.46
579.319	26081.91
579.516	25930.36
579.714	26208.88
579.912	25987.7
580.11	25983.6
580.308	26012.28
580.506	25731.7
580.704	25541.24
580.901	25903.73
581.099	25821.81
581.297	25420.41
581.495	25518.71
581.692	25606.78
581.89	25242.24
582.088	25330.3
582.285	25387.64
582.483	25451.13
582.681	25215.62
582.878	25275.01
583.076	25473.66
583.274	25358.97
583.471	25051.78
583.669	25080.45
583.866	24896.13
584.064	25186.94
584.262	24734.34
584.459	25113.22
584.657	25127.55
584.854	25027.2
585.052	24459.91
585.249	24914.56
585.447	24662.66
585.644	24296.08
585.841	24771.21
586.039	24668.81
586.236	24584.84
586.434	24162.96
586.631	24236.69
586.828	24427.15
587.026	24482.44
587.223	24160.91
587.42	24281.74
587.618	24371.85
587.815	24027.79
588.012	23784.09
588.21	24160.91
588.407	24240.78
588.604	23974.55
588.801	23650.97
588.999	23628.44
589.196	23681.69
589.393	23782.04
589.59	23511.71
589.787	23511.71
589.984	23155.36
590.182	23417.5
590.379	23669.4
590.576	23392.92
590.773	23595.67
590.97	23534.23
591.167	23581.34
591.364	23052.96
591.561	23122.59
591.758	22979.23
591.955	23132.83
592.152	23364.25
592.349	23290.52
592.546	22966.95
592.743	23247.52
592.94	23085.73
593.137	22971.04
593.334	23208.61
593.531	22684.33
593.727	22966.95
593.924	22799.01
594.121	22874.79
594.318	22915.75
594.515	22694.57
594.712	22907.55
594.908	22538.92
595.105	22842.02
595.302	22168.24
595.499	22743.72
595.696	22516.39
595.892	22325.93
596.089	22418.09
596.286	22233.77
596.482	22344.36
596.679	22514.34
596.876	22358.7
597.072	22389.42
597.269	22102.7
597.466	22008.5
597.662	21783.22
597.859	22043.31
598.055	22153.9
598.252	21953.2
598.448	21902
598.645	21996.21
598.841	21930.67
599.038	21748.4
599.234	21801.65
599.431	21985.97
599.627	21519.03
599.824	21734.07
600.02	21316.28
600.217	21988.02
600.413	21697.2
600.609	21402.3
600.806	21455.54
601.002	22018.74
601.198	21643.96
601.395	21328.57
601.591	21377.72
601.787	21422.78
601.984	21377.72
602.18	21463.74
602.376	21183.16
602.572	21320.38
602.769	21181.12
602.965	21021.38
603.161	21131.97
603.357	20984.51
603.553	21035.71
603.75	21256.89
603.946	20894.4
604.142	21064.38
604.338	20564.68
604.534	20900.55
604.73	20716.23
604.926	20761.28
605.122	21301.95
605.318	20638.41
605.514	20798.15
605.71	20669.12
605.906	20873.92
606.102	20728.52
606.298	20736.71
606.494	20835.01
606.69	20718.28
606.886	20732.61
607.082	20654.79
607.278	20710.08
607.474	20505.29
607.67	20746.95
607.866	20165.32
608.062	20685.51
608.257	20847.3
608.453	20314.83
608.649	20843.2
608.845	20409.03
609.041	20226.76
609.236	20591.3
609.432	20320.97
609.628	20462.28
609.824	20570.82
610.019	20286.15
610.215	20386.5
610.411	20675.27
610.606	20218.57
610.802	20585.16
610.998	20613.83
611.193	20226.76
611.389	20511.43
611.584	20413.13
611.78	20126.41
611.976	20394.7
612.171	19968.72
612.367	20277.96
612.562	20372.17
612.758	20036.3
612.953	20071.12
613.149	20210.38
613.344	20337.35
613.539	20646.6
613.735	20282.06
613.93	20171.47
614.126	20019.92
614.321	20230.86
614.517	20409.03
614.712	20314.83
614.907	20228.81
615.103	20269.77
615.298	20208.33
615.493	20320.97
615.688	19946.19
615.884	20630.21
616.079	20146.89
616.274	20234.96
616.47	20237
616.665	20212.43
616.86	20216.52
617.055	20153.04
617.25	19931.86
617.445	20282.06
617.641	19694.29
617.836	19935.95
618.031	19907.28
618.226	19903.18
618.421	19876.56
618.616	19935.95
618.811	19647.19
619.006	19755.73
619.201	19751.63
619.396	19798.74
619.591	19514.07
619.786	19782.35
619.981	19485.4
620.176	19833.55
620.371	19215.07
620.566	19542.74
620.761	19542.74
620.956	19495.64
621.151	19081.95
621.346	19292.89
621.541	18954.97
621.735	19497.69
621.93	18922.21
622.125	18862.82
622.32	18805.47
622.515	18721.51
622.709	19133.15
622.904	18660.07
623.099	18541.29
623.294	18686.69
623.488	18660.07
623.683	18389.74
623.878	18287.34
624.072	18416.36
624.267	18252.52
624.462	17992.43
624.656	18115.31
624.851	18160.36
625.046	17978.09
625.24	18031.34
625.435	17705.71
625.629	17736.43
625.824	17584.88
626.018	18017.01
626.213	17595.12
626.407	17709.81
626.602	17453.81
626.796	17437.43
626.991	17257.21
627.185	17076.99
627.38	17314.55
627.574	16935.68
627.768	16773.89
627.963	16745.22
628.157	16669.44
628.352	16892.67
628.546	16511.75
628.74	16767.74
628.935	16378.63
629.129	16845.57
629.323	16288.52
629.517	16341.77
629.712	16063.24
629.906	16061.19
630.1	15971.08
630.294	16104.2
630.489	16126.73
630.683	16016.14
630.877	15885.07
631.071	15510.29
631.265	15749.9
631.459	15743.76
631.653	15260.44
631.848	15506.2
632.042	15323.93
632.236	15434.52
632.43	15117.08
632.624	15223.58
632.818	14791.45
633.012	15309.59
633.206	15129.37
633.4	15024.92
633.594	15008.54
633.788	14981.92
633.982	14752.54
634.176	15162.14
634.369	14490.4
634.563	14875.42
634.757	14535.46
634.951	14750.49
635.145	14476.07
635.339	14383.91
635.533	14193.45
635.726	14310.18
635.92	14252.84
636.114	14424.87
636.308	13898.54
636.501	13988.65
636.695	13955.88
636.889	13849.39
637.083	13880.11
637.276	13798.19
637.47	13734.7
637.664	13738.8
637.857	13558.58
638.051	13585.2
638.244	13577.01
638.438	13361.97
638.632	13282.1
638.825	13208.37
639.019	13388.6
639.212	13118.26
639.406	13308.72
639.599	12897.08
639.793	13116.22
639.986	12802.88
640.18	12784.44
640.373	12686.14
640.567	12774.21
640.76	12784.44
640.954	12424
641.147	12522.3
641.34	12333.89
641.534	12448.58
641.727	12219.21
641.92	12505.92
642.114	12139.33
642.307	12043.08
642.5	12069.7
642.694	11885.39
642.887	12022.6
643.08	12110.66
643.273	11778.89
643.467	11877.19
643.66	11723.6
643.853	11750.22
644.046	11412.31
644.239	11385.68
644.432	11332.44
644.626	11326.29
644.819	11207.51
645.012	11397.97
645.205	11182.93
645.398	11184.98
645.591	11004.76
645.784	11266.9
645.977	10847.07
646.17	10726.24
646.363	10728.28
646.556	10756.96
646.749	10654.56
646.942	10750.81
647.135	10521.44
647.328	10484.58
647.521	10597.21
647.714	10238.82
647.907	10326.88
648.099	10142.57
648.292	10357.6
648.485	10177.38
648.678	10283.88
648.871	10179.43
649.064	10201.96
649.256	10113.89
649.449	9991.02
649.642	9753.45
649.835	9773.93
650.027	9542.51
650.22	9737.07
650.413	9450.35
650.605	9806.7
650.798	9503.6
650.991	9374.58
651.183	9567.09
651.376	9327.47
651.568	9372.53
651.761	9190.26
651.954	9192.31
652.146	9141.11
652.339	9186.16
652.531	9071.48
652.724	9094.01
652.916	8876.92
653.109	8817.53
653.301	8962.94
653.494	8883.06
653.686	8518.53
653.879	8670.08
654.071	8647.55
654.263	8668.03
654.456	8696.7
654.648	8758.14
654.84	8493.95
655.033	8401.79
655.225	8377.22
655.417	8172.42
655.61	8375.17
655.802	8440.7
655.994	8149.89
656.186	8207.23
656.379	8031.11
656.571	8196.99
656.763	7885.7
656.955	8031.11
657.148	7836.55
657.34	7922.57
657.532	7707.53
657.724	7859.08
657.916	7621.52
658.108	7711.63
658.3	7697.29
658.492	7476.11
658.684	7402.38
658.876	7457.68
659.068	7400.34
659.26	7349.14
659.452	7213.97
659.644	7316.37
659.836	7213.97
660.028	7175.06
660.22	7064.47
660.412	7054.23
660.604	7023.51
660.796	7015.32
660.988	6964.12
661.18	7003.03
661.372	6826.9
661.563	7070.61
661.755	6886.29
661.947	6749.08
662.139	6675.35
662.331	6599.58
662.522	6630.3
662.714	6640.54
662.906	6407.07
663.097	6378.4
663.289	6460.32
663.481	6407.07
663.673	6409.12
663.864	6331.3
664.056	6343.58
664.247	6355.87
664.439	6200.23
664.631	6384.54
664.822	6120.35
665.014	6144.93
665.205	6132.64
665.397	6073.25
665.588	6089.64
665.78	6067.11
665.971	5958.57
666.163	5956.52
666.354	5876.65
666.546	5833.64
666.737	5966.76
666.929	5747.62
667.12	5723.05
667.311	5727.14
667.503	5694.38
667.694	5864.36
667.885	5659.56
668.077	5610.41
668.268	5419.95
668.459	5540.78
668.651	5645.23
668.842	5587.88
669.033	5389.23
669.224	5264.3
669.416	5518.25
669.607	5233.58
669.798	5317.55
669.989	5399.47
670.18	5286.83
670.371	5258.16
670.563	5170.1
670.754	5204.91
670.945	5168.05
671.136	5231.54
671.327	5106.61
671.518	5096.37
671.709	5223.34
671.9	5145.52
672.091	5127.09
672.282	4737.98
672.473	5008.31
672.664	4979.64
672.855	4955.06
673.046	5053.36
673.237	4936.63
673.428	4869.05
673.619	4901.81
673.809	4789.17
674	4858.81
674.191	4811.7
674.382	4801.46
674.573	4656.06
674.764	4797.37
674.954	4922.29
675.145	4707.26
675.336	4762.55
675.527	4690.87
675.717	4789.17
675.908	4750.26
676.099	4600.76
676.289	4672.44
676.48	4570.04
676.671	4494.27
676.861	4588.47
677.052	4510.65
677.243	4606.91
677.433	4516.8
677.624	4623.29
677.814	4543.42
678.005	4430.78
678.195	4430.78
678.386	4475.84
678.576	4383.68
678.767	4436.92
678.957	4477.88
679.148	4387.77
679.338	4252.61
679.529	4424.64
679.719	4307.9
679.909	4416.44
680.1	4277.18
680.29	4369.34
680.481	4195.26
680.671	4307.9
680.861	4346.81
681.052	4342.72
681.242	4318.14
681.432	4328.38
681.622	4346.81
681.813	4336.57
682.003	4307.9
682.193	4133.82
682.383	4346.81
682.573	4242.37
682.764	4133.82
682.954	4254.66
683.144	4072.39
683.334	4264.89
683.524	4213.7
683.714	4146.11
683.904	4113.35
684.094	4123.59
684.284	4082.63
684.474	4043.71
684.664	4029.38
684.854	4221.89
685.044	4008.9
685.234	3986.37
685.424	4080.58
685.614	4105.15
685.804	4154.3
685.994	3986.37
686.184	4154.3
686.374	3969.99
686.564	3937.22
686.753	4109.25
686.943	3826.63
687.133	3965.89
687.323	3926.98
687.513	3953.6
687.702	3916.74
687.892	3859.4
688.082	3912.64
688.272	3933.12
688.461	3931.08
688.651	3906.5
688.841	3820.49
689.03	3883.97
689.22	3806.15
689.41	3812.29
689.599	3763.14
689.789	3748.81
689.979	3871.68
690.168	3800.01
690.358	3742.66
690.547	3785.67
690.737	3670.98
690.926	3765.19
691.116	3623.88
691.305	3740.61
691.495	3767.24
691.684	3636.17
691.874	3679.18
692.063	3611.59
692.252	3642.31
692.442	3638.22
692.631	3763.14
692.82	3660.74
693.01	3658.7
693.199	3642.31
693.388	3548.11
693.578	3503.05
693.767	3654.6
693.956	3658.7
694.146	3529.67
694.335	3556.3
694.524	3517.39
694.713	3570.63
694.902	3564.49
695.092	3562.44
695.281	3589.07
695.47	3476.43
695.659	3494.86
695.848	3523.53
696.037	3464.14
696.226	3570.63
696.415	3408.84
696.604	3677.13
696.793	3670.98
696.982	3523.53
697.171	3613.64
697.36	3572.68
697.549	3484.62
697.738	3498.95
697.927	3541.96
698.116	3599.31
698.305	3515.34
698.494	3625.93
698.683	3615.69
698.872	3709.9
699.061	3527.63
699.25	3578.83
699.438	3623.88
699.627	3324.88
699.816	3537.87
700.005	3597.26
700.193	3447.76
700.382	3517.39
700.571	3541.96
700.76	3515.34
700.948	3595.21
701.137	3537.87
701.326	3587.02
701.514	3357.64
701.703	3480.52
701.892	3496.91
702.08	3517.39
702.269	3603.4
702.457	3386.32
702.646	3505.1
702.834	3425.23
703.023	3621.83
703.212	3517.39
703.4	3658.7
703.589	3408.84
703.777	3517.39
703.965	3517.39
704.154	3527.63
704.342	3396.56
704.531	3541.96
704.719	3498.95
704.907	3531.72
705.096	3380.17
705.284	3501
705.472	3572.68
705.661	3496.91
705.849	3605.45
706.037	3541.96
706.226	3519.43
706.414	3484.62
706.602	3458
706.79	3511.24
706.979	3388.36
707.167	3595.21
707.355	3464.14
707.543	3404.75
707.731	3529.67
707.919	3523.53
708.107	3404.75
708.296	3374.03
708.484	3533.77
708.672	3474.38
708.86	3390.41
709.048	3468.24
709.236	3261.39
709.424	3535.82
709.612	3464.14
709.8	3320.78
709.988	3525.58
710.176	3427.28
710.364	3410.89
710.551	3390.41
710.739	3546.06
710.927	3544.01
711.115	3486.67
711.303	3503.05
711.491	3347.4
711.679	3339.21
711.866	3429.32
712.054	3300.3
712.242	3298.25
712.43	3564.49
712.617	3404.75
712.805	3396.56
712.993	3406.8
713.181	3316.69
713.368	3554.25
713.556	3486.67
713.744	3308.49
713.931	3445.71
714.119	3357.64
714.306	3361.74
714.494	3331.02
714.682	3369.93
714.869	3437.52
715.057	3443.66
715.244	3249.1
715.432	3408.84
715.619	3361.74
715.807	3253.2
715.994	3376.08
716.182	3361.74
716.369	3351.5
716.556	3281.87
716.744	3318.73
716.931	3263.44
717.119	3437.52
717.306	3380.17
717.493	3394.51
717.681	3290.06
717.868	3220.43
718.055	3277.77
718.242	3306.45
718.43	3277.77
718.617	3326.93
718.804	3281.87
718.991	3388.36
719.179	3294.16
719.366	3355.6
719.553	3306.45
719.74	3122.13
719.927	3351.5
720.114	3251.15
720.301	3150.8
720.488	3179.47
720.676	3142.61
720.863	3306.45
721.05	3290.06
721.237	3214.29
721.424	3210.19
721.611	3113.94
721.798	3115.98
721.985	3193.81
722.172	3222.48
722.358	3103.7
722.545	3085.26
722.732	3083.22
722.919	3183.57
723.106	3118.03
723.293	2982.87
723.48	3187.66
723.667	3085.26
723.853	3085.26
724.04	3208.14
724.227	3099.6
724.414	3070.93
724.6	3146.7
724.787	3068.88
724.974	3285.97
725.161	3036.11
725.347	2978.77
725.534	3077.07
725.72	3066.83
725.907	3154.9
726.094	3230.67
726.28	2993.11
726.467	3011.54
726.653	3089.36
726.84	3083.22
727.027	3177.42
727.213	2962.39
727.4	3001.3
727.586	3032.02
727.773	3042.26
727.959	3019.73
728.145	2978.77
728.332	3042.26
728.518	2974.67
728.705	3064.79
728.891	2898.9
729.077	3017.68
729.264	3050.45
729.45	3005.39
729.636	3007.44
729.823	3042.26
730.009	2941.91
730.195	2847.7
730.382	2956.24
730.568	2943.96
730.754	2831.32
730.94	2841.56
731.126	3042.26
731.313	2853.84
731.499	2882.52
731.685	2886.61
731.871	2958.29
732.057	2941.91
732.243	2964.43
732.429	2739.16
732.615	3122.13
732.801	2851.8
732.987	2962.39
733.173	2907.09
733.359	2776.02
733.545	2778.07
733.731	2778.07
733.917	2847.7
734.103	2835.41
734.289	2862.04
734.475	2690.01
734.661	2931.67
734.847	2673.62
735.033	2806.74
735.219	2810.84
735.404	2812.89
735.59	2712.53
735.776	2649.05
735.962	2792.41
736.148	2620.38
736.333	2839.51
736.519	2724.82
736.705	2692.05
736.89	2745.3
737.076	2724.82
737.262	2577.37
737.447	2587.61
737.633	2536.41
737.819	2655.19
738.004	2597.85
738.19	2606.04
738.375	2681.82
738.561	2704.34
738.747	2620.38
738.932	2567.13
739.118	2622.42
739.303	2515.93
739.489	2515.93
739.674	2458.59
739.859	2522.07
740.045	2644.95
740.23	2477.02
740.416	2470.87
740.601	2442.2
740.786	2546.65
740.972	2403.29
741.157	2487.26
741.342	2384.86
741.528	2366.43
741.713	2493.4
741.898	2368.48
742.084	2419.68
742.269	2313.18
742.454	2444.25
742.639	2446.3
742.824	2401.24
743.01	2440.15
743.195	2413.53
743.38	2352.09
743.565	2382.81
743.75	2286.56
743.935	2341.85
744.12	2411.48
744.305	2302.94
744.49	2368.48
744.675	2257.89
744.86	2276.32
745.045	2257.89
745.23	2198.49
745.415	2180.06
745.6	2276.32
745.785	2063.33
745.97	2137.06
746.155	2122.72
746.34	2126.82
746.525	2182.11
746.71	2184.16
746.895	2038.75
747.079	2005.99
747.264	2196.45
747.449	2167.77
747.634	2098.14
747.819	2126.82
748.003	1977.31
748.188	2196.45
748.373	2040.8
748.557	2030.56
748.742	2018.27
748.927	1971.17
749.111	1944.55
749.296	1991.65
749.481	2071.52
749.665	1844.2
749.85	1881.06
750.034	1960.93
750.219	1975.27
750.404	1870.82
750.588	1897.44
750.773	1766.37
750.957	1895.4
751.141	1942.5
751.326	1891.3
751.51	1758.18
751.695	1778.66
751.879	1899.49
752.064	1844.2
752.248	1848.29
752.432	1844.2
752.617	1854.44
752.801	1719.27
752.985	1803.24
753.17	1745.89
753.354	1737.7
753.538	1760.23
753.722	1737.7
753.907	1719.27
754.091	1620.97
754.275	1627.11
754.459	1553.38
754.643	1543.14
754.828	1623.02
755.012	1616.87
755.196	1692.65
755.38	1635.3
755.564	1567.72
755.748	1604.58
755.932	1604.58
756.116	1532.9
756.3	1633.26
756.484	1463.27
756.668	1522.66
756.852	1405.93
757.036	1467.37
757.22	1506.28
757.404	1450.99
757.588	1436.65
757.772	1506.28
757.956	1383.4
758.14	1457.13
758.323	1360.88
758.507	1414.12
758.691	1360.88
758.875	1510.38
759.059	1407.98
759.242	1463.27
759.426	1416.17
759.61	1379.31
759.794	1418.22
759.977	1512.42
760.161	1426.41
760.345	1412.07
760.528	1348.59
760.712	1287.15
760.895	1262.57
761.079	1252.33
761.263	1274.86
761.446	1326.06
761.63	1295.34
761.813	1252.33
761.997	1297.39
762.18	1235.95
762.364	1410.03
762.547	1207.28
762.731	1197.04
762.914	1154.03
763.098	1139.69
763.281	1231.85
763.464	1147.89
763.648	1227.76
763.831	1160.17
764.015	1242.09
764.198	1199.09
764.381	1225.71
764.564	1172.46
764.748	1307.63
764.931	1231.85
765.114	1215.47
765.297	1231.85
765.481	1092.59
765.664	1174.51
765.847	1154.03
766.03	1248.24
766.213	1168.37
766.397	1096.69
766.58	1160.17
766.763	1170.41
766.946	1090.54
767.129	1225.71
767.312	1166.32
767.495	1182.7
767.678	1158.13
767.861	1151.98
768.044	1192.94
768.227	1149.93
768.41	1104.88
768.593	1147.89
768.776	1192.94
768.959	1141.74
769.142	1151.98
769.324	1166.32
769.507	1096.69
769.69	1031.15
769.873	1014.77
770.056	1203.18
770.239	1082.35
770.421	1033.2
770.604	1102.83
770.787	998.38
770.97	1068.02
771.152	1074.16
771.335	1012.72
771.518	1004.53
771.7	1104.88
771.883	1098.74
772.066	1004.53
772.248	973.81
772.431	1039.34
772.613	994.29
772.796	953.33
772.978	1031.15
773.161	1037.3
773.343	889.84
773.526	971.76
773.708	949.23
773.891	928.75
774.073	904.18
774.256	812.02
774.438	986.1
774.621	805.88
774.803	982
774.985	889.84
775.168	994.29
775.35	1016.82
775.532	1018.86
775.715	953.33
775.897	963.57
776.079	883.7
776.261	910.32
776.444	838.64
776.626	883.7
776.808	785.4
776.99	758.77
777.173	908.27
777.355	834.55
777.537	812.02
777.719	838.64
777.901	732.15
778.083	717.81
778.265	797.68
778.447	848.88
778.629	781.3
778.811	769.01
778.993	863.22
779.175	799.73
779.357	791.54
779.539	766.96
779.721	752.63
779.903	750.58
780.085	762.87
780.267	807.92
780.449	705.53
780.631	736.24
780.812	668.66
780.994	726
781.176	873.46
781.358	754.68
781.54	711.67
781.721	715.77
781.903	713.72
782.085	662.52
782.267	760.82
782.448	627.7
782.63	662.52
782.812	605.17
782.993	769.01
783.175	744.44
783.357	619.51
783.538	644.09
783.72	685.05
783.901	617.46
784.083	672.76
784.264	687.09
784.446	582.65
784.627	672.76
784.809	590.84
784.99	539.64
785.172	695.29
785.353	533.5
785.535	601.08
785.716	631.8
785.897	588.79
786.079	525.3
786.26	586.74
786.441	652.28
786.623	508.92
786.804	486.39
786.985	513.02
787.167	545.78
787.348	603.13
787.529	564.22
787.71	660.47
787.891	523.26
788.073	496.63
788.254	510.97
788.435	644.09
788.616	527.35
788.797	429.05
788.978	410.62
789.159	510.97
789.34	588.79
789.522	457.72
789.703	394.23
789.884	523.26
790.065	525.3
790.246	670.71
790.427	467.96
790.607	478.2
790.788	570.36
790.969	424.95
791.15	465.91
791.331	420.86
791.512	482.3
791.693	480.25
791.874	459.77
792.054	521.21
792.235	457.72
792.416	416.76
792.597	388.09
792.778	453.63
792.958	453.63
793.139	429.05
793.32	443.39
793.5	377.85
793.681	525.3
793.862	390.14
794.042	388.09
794.223	412.67
794.404	441.34
794.584	300.03
794.765	408.57
794.945	424.95
795.126	474.1
795.306	424.95
795.487	386.04
795.667	410.62
795.848	377.85
796.028	373.75
796.209	312.32
796.389	429.05
796.57	392.19
796.75	275.45
796.93	349.18
797.111	334.84
797.291	396.28
797.471	279.55
797.652	281.6
797.832	371.71
798.012	404.47
798.192	330.75
798.373	320.51
798.553	345.08
798.733	398.33
798.913	273.4
799.093	295.93
799.274	281.6
799.454	476.15
799.634	297.98
799.814	347.13
799.994	322.56
800.174	306.17
800.354	328.7
800.534	285.69
800.714	330.75
800.894	300.03
801.074	283.64
801.254	248.83
801.434	355.32
801.614	285.69
801.794	302.08
801.974	1135.6
802.154	271.36
802.334	259.07
802.514	236.54
802.693	310.27
802.873	310.27
803.053	312.32
803.233	279.55
803.413	343.03
803.592	224.25
803.772	271.36
803.952	324.6
804.131	222.2
804.311	324.6
804.491	291.84
804.67	265.21
804.85	279.55
805.03	347.13
805.209	322.56
805.389	220.16
805.568	265.21
805.748	293.88
805.928	207.87
806.107	230.4
806.287	297.98
806.466	240.64
806.646	306.17
806.825	259.07
807.004	257.02
807.184	277.5
807.363	250.88
807.543	156.67
807.722	226.3
807.901	283.64
808.081	250.88
808.26	166.91
808.439	293.88
808.619	189.44
808.798	240.64
808.977	183.29
809.156	365.56
809.336	244.73
809.515	226.3
809.694	138.24
809.873	199.68
810.052	242.68
810.231	191.49
810.411	183.29
810.59	287.74
810.769	171.01
810.948	179.2
811.127	164.86
811.306	160.77
811.485	177.15
811.664	257.02
811.843	218.11
812.022	273.4
812.201	187.39
812.38	195.58
812.559	220.16
812.737	207.87
812.916	146.43
813.095	144.38
813.274	211.96
813.453	246.78
813.632	201.72
813.811	175.1
813.989	144.38
814.168	164.86
814.347	132.09
814.526	193.53
814.704	248.83
814.883	289.79
815.062	97.28
815.24	310.27
815.419	185.34
815.598	240.64
815.776	64.51
815.955	158.72
816.133	138.24
816.312	160.77
816.49	146.43
816.669	109.57
816.847	218.11
817.026	168.96
817.204	207.87
817.383	187.39
817.561	111.61
817.74	226.3
817.918	158.72
818.097	158.72
818.275	162.81
818.453	156.67
818.632	168.96
818.81	162.81
818.988	175.1
819.167	179.2
819.345	228.35
819.523	171.01
819.701	130.05
819.879	199.68
820.058	142.33
820.236	181.25
820.414	91.13
820.592	162.81
820.77	119.81
820.948	125.95
821.127	211.96
821.305	199.68
821.483	103.42
821.661	171.01
821.839	150.53
822.017	89.09
822.195	146.43
822.373	242.68
822.551	185.34
822.729	113.66
822.907	66.56
823.085	105.47
823.262	123.9
823.44	166.91
823.618	93.18
823.796	177.15
823.974	89.09
824.152	107.52
824.329	181.25
824.507	64.51
824.685	154.62
824.863	132.09
825.04	189.44
825.218	101.37
825.396	99.33
825.574	197.63
825.751	101.37
825.929	130.05
826.107	60.42
826.284	181.25
826.462	97.28
826.639	54.27
826.817	37.89
826.994	117.76
827.172	136.19
827.349	187.39
827.527	111.61
827.704	162.81
827.882	115.71
828.059	140.29
828.237	119.81
828.414	158.72
828.591	123.9
828.769	162.81
828.946	152.57
829.124	181.25
829.301	128
829.478	171.01
829.655	144.38
829.833	191.49
830.01	91.13
830.187	140.29
830.364	109.57
830.542	105.47
830.719	111.61
830.896	72.7
831.073	103.42
831.25	107.52
831.427	117.76
831.604	125.95
831.782	99.33
831.959	125.95
832.136	80.89
832.313	60.42
832.49	97.28
832.667	113.66
832.844	93.18
833.021	156.67
833.198	164.86
833.374	201.72
833.551	91.13
833.728	76.8
833.905	134.14
834.082	121.85
834.259	181.25
834.436	123.9
834.612	99.33
834.789	84.99
834.966	103.42
835.143	70.65
835.319	3.07
835.496	11.26
835.673	62.46
835.85	99.33
836.026	168.96
836.203	125.95
836.38	80.89
836.556	158.72
836.733	52.22
836.909	150.53
837.086	91.13
837.262	84.99
837.439	89.09
837.616	80.89
837.792	128
837.968	132.09
838.145	15.36
838.321	50.18
838.498	97.28
838.674	93.18
838.851	119.81
839.027	113.66
839.203	117.76
839.38	89.09
839.556	7.17
839.732	101.37
839.909	117.76
840.085	87.04
840.261	66.56
840.437	119.81
840.614	5.12
840.79	117.76
840.966	134.14
841.142	3.07
841.318	9.22
841.494	62.46
841.671	187.39
841.847	109.57
842.023	46.08
842.199	76.8
842.375	134.14
842.551	-37.89
842.727	29.7
842.903	177.15
843.079	125.95
843.255	111.61
843.431	89.09
843.607	113.66
843.783	7.17
843.959	25.6
844.134	31.74
844.31	142.33
844.486	19.46
844.662	15.36
844.838	29.7
845.013	134.14
845.189	109.57
845.365	115.71
845.541	56.32
845.716	33.79
845.892	93.18
846.068	27.65
846.244	-3.07
846.419	31.74
846.595	-19.46
846.77	-9.22
846.946	128
847.122	-13.31
847.297	62.46
847.473	89.09
847.648	23.55
847.824	91.13
847.999	15.36
848.175	64.51
848.35	54.27
848.526	97.28
848.701	15.36
848.876	72.7
849.052	58.37
849.227	101.37
849.403	52.22
849.578	46.08
849.753	54.27
849.929	5.12
850.104	-3.07
850.279	-5.12
850.454	31.74
850.63	29.7
850.805	68.61
850.98	-27.65
851.155	9.22
851.33	130.05
851.505	44.03
851.681	146.43
851.856	17.41
852.031	72.7
852.206	95.23
852.381	82.94
852.556	41.98
852.731	91.13
852.906	74.75
853.081	48.13
853.256	146.43
853.431	39.94
853.606	17.41
853.781	35.84
853.956	17.41
854.131	136.19
854.305	-52.22
854.48	-17.41
854.655	-5.12
854.83	80.89
855.005	17.41
855.18	48.13
855.354	89.09
855.529	25.6
855.704	50.18
855.879	66.56
856.053	27.65
856.228	101.37
856.403	23.55
856.577	82.94
856.752	-66.56
856.926	27.65
857.101	82.94
857.276	-27.65
857.45	56.32
857.625	46.08
857.799	11.26
857.974	41.98
858.148	39.94
858.323	60.42
858.497	95.23
858.672	33.79
858.846	-5.12
859.02	107.52
859.195	-97.28
859.369	5.12
859.543	54.27
859.718	44.03
859.892	58.37
860.066	66.56
860.241	70.65
860.415	35.84
860.589	15.36
860.763	52.22
860.938	-46.08
861.112	3.07
861.286	-7.17
861.46	-1.02
861.634	9.22
861.808	-3.07
861.982	-41.98
862.157	11.26
862.331	-7.17
862.505	9.22
862.679	35.84
862.853	29.7
863.027	27.65
863.201	158.72
863.375	68.61
863.549	68.61
863.722	74.75
863.896	119.81
864.07	27.65
864.244	-3.07
864.418	54.27
864.592	35.84
864.766	52.22
864.939	78.85
865.113	60.42
865.287	103.42
865.461	84.99
865.634	27.65
865.808	-21.5
865.982	3.07
866.156	-74.75
866.329	19.46
866.503	13.31
866.676	27.65
866.85	64.51
867.024	35.84
867.197	119.81
867.371	56.32
867.544	44.03
867.718	39.94
867.891	46.08
868.065	1.02
868.238	66.56
868.412	44.03
868.585	3.07
868.759	11.26
868.932	-19.46
869.105	-3.07
869.279	46.08
869.452	25.6
869.625	121.85
869.799	-35.84
869.972	-35.84
870.145	23.55
870.319	11.26
870.492	-9.22
870.665	7.17
870.838	-23.55
871.011	-5.12
871.185	91.13
871.358	-17.41
871.531	31.74
871.704	68.61
871.877	25.6
872.05	19.46
872.223	-29.7
872.396	84.99
872.569	76.8
872.742	33.79
872.915	84.99
873.088	15.36
873.261	-27.65
873.434	99.33
873.607	74.75
873.78	132.09
873.953	-58.37
874.126	9.22
874.299	-3.07
874.471	70.65
874.644	1.02
874.817	68.61
874.99	82.94
875.163	1.02
875.335	66.56
875.508	11.26
875.681	156.67
875.853	-39.94
876.026	7.17
876.199	84.99
876.371	-27.65
876.544	-21.5
876.717	52.22
876.889	62.46
877.062	3.07
877.234	-21.5
877.407	-13.31
877.579	5.12
877.752	46.08
877.924	11.26
878.097	44.03
878.269	13.31
878.442	74.75
878.614	82.94
878.786	95.23
878.959	15.36
879.131	-23.55
879.303	-52.22
879.476	50.18
879.648	29.7
879.82	80.89
879.993	7.17
880.165	19.46
880.337	13.31
880.509	130.05
880.681	-17.41
880.854	29.7
881.026	58.37
881.198	89.09
881.37	27.65
881.542	13.31
881.714	25.6
881.886	-66.56
882.058	-27.65
882.23	33.79
882.402	-13.31
882.574	15.36
882.746	25.6
882.918	107.52
883.09	70.65
883.262	7.17
883.434	82.94
883.606	33.79
883.778	46.08
883.95	99.33
884.122	-11.26
884.293	158.72
884.465	56.32
884.637	9.22
884.809	-60.42
884.98	11.26
885.152	62.46
885.324	11.26
885.496	-48.13
885.667	-33.79
885.839	-7.17
886.011	89.09
886.182	7.17
886.354	21.5
886.525	-13.31
886.697	37.89
886.869	-52.22
887.04	21.5
887.212	80.89
887.383	105.47
887.555	52.22
887.726	52.22
887.897	19.46
888.069	41.98
888.24	95.23
888.412	7.17
888.583	-21.5
888.754	-23.55
888.926	27.65
889.097	-13.31
889.268	-66.56
889.44	-7.17
889.611	-21.5
889.782	-11.26
889.953	13.31
890.125	101.37
890.296	-52.22
890.467	3.07
890.638	21.5
890.809	-25.6
890.98	-64.51
891.151	29.7
891.323	113.66
891.494	-7.17
891.665	52.22
891.836	-72.7
892.007	35.84
892.178	23.55
892.349	29.7
892.52	25.6
892.691	54.27
892.862	11.26
893.032	-3.07
893.203	21.5
893.374	46.08
893.545	17.41
893.716	-50.18
893.887	66.56
894.057	-17.41
894.228	25.6
894.399	-3.07
894.57	80.89
894.74	-21.5
894.911	33.79
895.082	29.7
895.253	11.26
895.423	33.79
895.594	99.33
895.764	25.6
895.935	-76.8
896.106	-19.46
896.276	1.02
896.447	33.79
896.617	-44.03
896.788	-125.95
896.958	95.23
897.129	41.98
897.299	9.22
897.47	93.18
897.64	48.13
897.81	-37.89
897.981	119.81
898.151	-21.5
898.322	93.18
898.492	44.03
898.662	-52.22
898.832	-37.89
899.003	91.13
899.173	48.13
899.343	5.12
899.513	-19.46
