Data from USB4F104151__24__12-11-42-459.txt Node

Date: Fri Mar 14 12:11:42 EDT 2025
User: louis
Spectrometer: USB4F10415
Trigger mode: 4
Integration Time (sec): 5.000000E-2
Scans to average: 1
Electric dark correction enabled: true
Nonlinearity correction enabled: false
Boxcar width: 0
XAxis mode: Wavelengths
Number of Pixels in Spectrum: 3648
>>>>>Begin Spectral Data<<<<<
178.204	-311.63
178.424	-311.63
178.644	-311.63
178.864	-229.71
179.084	-254.29
179.304	42.67
179.524	-20.82
179.744	-4.44
179.964	34.47
180.184	-2.39
180.404	-33.11
180.624	-31.06
180.844	-47.44
181.064	-29.01
181.283	87.72
181.503	-55.64
181.723	59.05
181.943	-84.31
182.163	36.52
182.383	18.09
182.602	40.62
182.822	36.52
183.042	32.43
183.262	-4.44
183.482	-2.39
183.701	1.71
183.921	65.19
184.141	-16.73
184.361	46.76
184.58	-80.21
184.8	36.52
185.02	-26.96
185.239	18.09
185.459	24.23
185.679	26.28
185.898	-0.34
186.118	79.53
186.338	-57.68
186.557	36.52
186.777	20.14
186.997	-72.02
187.216	22.19
187.436	81.58
187.655	38.57
187.875	-14.68
188.095	65.19
188.314	40.62
188.534	83.63
188.753	-55.64
188.973	11.95
189.192	50.86
189.412	18.09
189.631	32.43
189.851	-41.3
190.07	44.71
190.29	-8.53
190.509	-31.06
190.729	44.71
190.948	48.81
191.168	163.5
191.387	75.43
191.607	-24.92
191.826	1.71
192.045	-26.96
192.265	11.95
192.484	-45.4
192.704	73.39
192.923	-53.59
193.142	110.25
193.362	34.47
193.581	65.19
193.8	126.63
194.02	-31.06
194.239	22.19
194.458	-14.68
194.678	59.05
194.897	-16.73
195.116	59.05
195.335	20.14
195.555	-0.34
195.774	-6.49
195.993	61.1
196.212	24.23
196.432	20.14
196.651	-2.39
196.87	22.19
197.089	165.54
197.308	1.71
197.528	18.09
197.747	-41.3
197.966	79.53
198.185	54.95
198.404	-31.06
198.623	9.9
198.842	7.85
199.062	95.91
199.281	61.1
199.5	-4.44
199.719	63.15
199.938	5.8
200.157	36.52
200.376	54.95
200.595	83.63
200.814	24.23
201.033	32.43
201.252	136.87
201.471	-20.82
201.69	16.04
201.909	54.95
202.128	83.63
202.347	48.81
202.566	28.33
202.785	69.29
203.004	-12.63
203.223	165.54
203.442	65.19
203.661	5.8
203.879	16.04
204.098	95.91
204.317	-76.12
204.536	42.67
204.755	34.47
204.974	18.09
205.193	38.57
205.411	108.2
205.63	11.95
205.849	77.48
206.068	52.91
206.287	3.75
206.505	42.67
206.724	-29.01
206.943	26.28
207.162	9.9
207.381	77.48
207.599	7.85
207.818	-8.53
208.037	-10.58
208.255	24.23
208.474	-39.25
208.693	26.28
208.911	-72.02
209.13	32.43
209.349	1.71
209.567	18.09
209.786	48.81
210.005	46.76
210.223	26.28
210.442	11.95
210.661	52.91
210.879	-6.49
211.098	-29.01
211.316	138.92
211.535	61.1
211.753	42.67
211.972	114.34
212.191	-29.01
212.409	26.28
212.628	-4.44
212.846	-24.92
213.065	20.14
213.283	36.52
213.502	-20.82
213.72	-4.44
213.938	32.43
214.157	38.57
214.375	34.47
214.594	-10.58
214.812	9.9
215.031	-26.96
215.249	3.75
215.467	1.71
215.686	73.39
215.904	79.53
216.122	13.99
216.341	-22.87
216.559	59.05
216.778	102.06
216.996	13.99
217.214	65.19
217.432	-72.02
217.651	-65.88
217.869	-37.2
218.087	38.57
218.306	-24.92
218.524	40.62
218.742	-10.58
218.96	89.77
219.179	3.75
219.397	-2.39
219.615	59.05
219.833	83.63
220.051	-16.73
220.27	-47.44
220.488	65.19
220.706	32.43
220.924	13.99
221.142	-12.63
221.36	20.14
221.578	73.39
221.796	13.99
222.015	-4.44
222.233	18.09
222.451	34.47
222.669	-78.16
222.887	24.23
223.105	-24.92
223.323	22.19
223.541	-92.5
223.759	50.86
223.977	-47.44
224.195	38.57
224.413	57
224.631	79.53
224.849	61.1
225.067	136.87
225.285	9.9
225.503	-6.49
225.721	-78.16
225.939	-49.49
226.157	79.53
226.375	106.15
226.592	28.33
226.81	20.14
227.028	61.1
227.246	165.54
227.464	-53.59
227.682	52.91
227.9	42.67
228.117	40.62
228.335	-57.68
228.553	-6.49
228.771	44.71
228.989	87.72
229.206	32.43
229.424	93.87
229.642	-10.58
229.86	-35.16
230.077	81.58
230.295	52.91
230.513	167.59
230.731	9.9
230.948	71.34
231.166	77.48
231.384	-61.78
231.601	3.75
231.819	63.15
232.037	-33.11
232.254	-14.68
232.472	-6.49
232.689	-2.39
232.907	54.95
233.125	71.34
233.342	-96.6
233.56	42.67
233.777	-22.87
233.995	24.23
234.213	106.15
234.43	40.62
234.648	61.1
234.865	32.43
235.083	52.91
235.3	-26.96
235.518	9.9
235.735	73.39
235.953	61.1
236.17	-31.06
236.388	-31.06
236.605	-8.53
236.822	104.11
237.04	30.38
237.257	18.09
237.475	-39.25
237.692	9.9
237.909	28.33
238.127	-29.01
238.344	67.24
238.562	32.43
238.779	-33.11
238.996	13.99
239.214	16.04
239.431	7.85
239.648	-45.4
239.865	32.43
240.083	69.29
240.3	34.47
240.517	38.57
240.735	30.38
240.952	91.82
241.169	3.75
241.386	-31.06
241.603	24.23
241.821	-14.68
242.038	93.87
242.255	67.24
242.472	-31.06
242.689	-12.63
242.907	44.71
243.124	-4.44
243.341	-0.34
243.558	1.71
243.775	-43.35
243.992	-106.84
244.209	-8.53
244.426	87.72
244.643	71.34
244.86	-67.92
245.078	36.52
245.295	-4.44
245.512	34.47
245.729	30.38
245.946	1.71
246.163	-26.96
246.38	-37.2
246.597	61.1
246.814	26.28
247.031	-6.49
247.248	28.33
247.464	52.91
247.681	11.95
247.898	63.15
248.115	50.86
248.332	5.8
248.549	18.09
248.766	118.44
248.983	42.67
249.2	-4.44
249.417	-0.34
249.633	-4.44
249.85	83.63
250.067	34.47
250.284	18.09
250.501	34.47
250.717	32.43
250.934	-63.83
251.151	13.99
251.368	-43.35
251.585	93.87
251.801	38.57
252.018	-33.11
252.235	26.28
252.451	-14.68
252.668	16.04
252.885	102.06
253.102	-29.01
253.318	-6.49
253.535	5.8
253.752	18.09
253.968	26.28
254.185	7.85
254.401	-6.49
254.618	32.43
254.835	-41.3
255.051	118.44
255.268	36.52
255.484	57
255.701	54.95
255.917	120.49
256.134	16.04
256.351	-4.44
256.567	-72.02
256.784	52.91
257	44.71
257.217	7.85
257.433	46.76
257.65	44.71
257.866	-14.68
258.082	-49.49
258.299	-26.96
258.515	-24.92
258.732	16.04
258.948	24.23
259.165	57
259.381	3.75
259.597	69.29
259.814	24.23
260.03	-61.78
260.246	-51.54
260.463	52.91
260.679	77.48
260.895	-29.01
261.112	85.67
261.328	9.9
261.544	30.38
261.761	87.72
261.977	-2.39
262.193	-55.64
262.409	28.33
262.626	3.75
262.842	52.91
263.058	-80.21
263.274	59.05
263.49	42.67
263.707	26.28
263.923	16.04
264.139	32.43
264.355	-24.92
264.571	120.49
264.787	32.43
265.004	54.95
265.22	44.71
265.436	42.67
265.652	61.1
265.868	28.33
266.084	79.53
266.3	5.8
266.516	26.28
266.732	16.04
266.948	59.05
267.164	38.57
267.38	77.48
267.596	40.62
267.812	112.3
268.028	46.76
268.244	-57.68
268.46	18.09
268.676	50.86
268.892	18.09
269.108	-47.44
269.324	-39.25
269.54	-26.96
269.756	44.71
269.972	-59.73
270.188	65.19
270.403	-82.26
270.619	-31.06
270.835	-12.63
271.051	-39.25
271.267	-4.44
271.483	-63.83
271.698	50.86
271.914	63.15
272.13	75.43
272.346	36.52
272.562	-53.59
272.777	36.52
272.993	-29.01
273.209	42.67
273.425	24.23
273.64	-43.35
273.856	42.67
274.072	-106.84
274.287	22.19
274.503	59.05
274.719	-24.92
274.934	-4.44
275.15	-47.44
275.366	-35.16
275.581	-2.39
275.797	16.04
276.012	50.86
276.228	-78.16
276.444	-0.34
276.659	42.67
276.875	-29.01
277.09	-43.35
277.306	-16.73
277.521	5.8
277.737	-20.82
277.952	-16.73
278.168	24.23
278.383	30.38
278.599	46.76
278.814	50.86
279.03	28.33
279.245	52.91
279.461	40.62
279.676	-4.44
279.892	-29.01
280.107	-63.83
280.322	44.71
280.538	3.75
280.753	9.9
280.969	11.95
281.184	11.95
281.399	69.29
281.615	-33.11
281.83	81.58
282.045	-78.16
282.26	-90.45
282.476	28.33
282.691	32.43
282.906	-8.53
283.122	50.86
283.337	-33.11
283.552	-12.63
283.767	-63.83
283.983	112.3
284.198	28.33
284.413	46.76
284.628	-8.53
284.843	-59.73
285.058	59.05
285.274	3.75
285.489	-74.07
285.704	87.72
285.919	-55.64
286.134	-65.88
286.349	-59.73
286.564	16.04
286.779	46.76
286.995	-39.25
287.21	-55.64
287.425	26.28
287.64	11.95
287.855	-26.96
288.07	-82.26
288.285	36.52
288.5	38.57
288.715	-18.77
288.93	22.19
289.145	-10.58
289.36	-39.25
289.575	-45.4
289.79	-20.82
290.004	34.47
290.219	97.96
290.434	-24.92
290.649	13.99
290.864	40.62
291.079	-43.35
291.294	16.04
291.509	9.9
291.724	-2.39
291.938	24.23
292.153	-24.92
292.368	-2.39
292.583	22.19
292.798	63.15
293.012	57
293.227	-29.01
293.442	-55.64
293.657	7.85
293.871	69.29
294.086	-0.34
294.301	11.95
294.516	32.43
294.73	24.23
294.945	-8.53
295.16	-0.34
295.374	46.76
295.589	61.1
295.804	-12.63
296.018	36.52
296.233	63.15
296.447	3.75
296.662	7.85
296.877	85.67
297.091	44.71
297.306	3.75
297.52	36.52
297.735	28.33
297.949	26.28
298.164	40.62
298.378	18.09
298.593	-59.73
298.807	-98.64
299.022	34.47
299.236	16.04
299.451	-16.73
299.665	18.09
299.88	61.1
300.094	-14.68
300.309	52.91
300.523	30.38
300.737	-4.44
300.952	61.1
301.166	1.71
301.381	-76.12
301.595	-14.68
301.809	-20.82
302.024	-35.16
302.238	5.8
302.452	57
302.667	-26.96
302.881	67.24
303.095	50.86
303.309	22.19
303.524	32.43
303.738	63.15
303.952	-14.68
304.166	42.67
304.381	-16.73
304.595	63.15
304.809	-22.87
305.023	75.43
305.237	1.71
305.452	-14.68
305.666	-6.49
305.88	32.43
306.094	83.63
306.308	18.09
306.522	73.39
306.736	-14.68
306.95	18.09
307.164	36.52
307.379	-0.34
307.593	50.86
307.807	40.62
308.021	46.76
308.235	28.33
308.449	-22.87
308.663	57
308.877	114.34
309.091	-59.73
309.305	34.47
309.519	-29.01
309.733	114.34
309.947	-76.12
310.161	11.95
310.374	32.43
310.588	38.57
310.802	-24.92
311.016	-53.59
311.23	-4.44
311.444	-2.39
311.658	52.91
311.872	52.91
312.085	50.86
312.299	100.01
312.513	-4.44
312.727	18.09
312.941	-18.77
313.154	73.39
313.368	67.24
313.582	50.86
313.796	44.71
314.009	3.75
314.223	-0.34
314.437	-14.68
314.651	16.04
314.864	-12.63
315.078	-45.4
315.292	-102.74
315.505	-6.49
315.719	20.14
315.933	63.15
316.146	-6.49
316.36	-119.12
316.573	104.11
316.787	24.23
317.001	34.47
317.214	-39.25
317.428	-0.34
317.641	-57.68
317.855	-14.68
318.068	-18.77
318.282	9.9
318.495	140.97
318.709	67.24
318.922	-45.4
319.136	71.34
319.349	24.23
319.563	67.24
319.776	-14.68
319.99	-61.78
320.203	44.71
320.417	-16.73
320.63	57
320.843	163.5
321.057	16.04
321.27	-12.63
321.483	16.04
321.697	42.67
321.91	20.14
322.124	-49.49
322.337	61.1
322.55	13.99
322.763	-8.53
322.977	34.47
323.19	9.9
323.403	16.04
323.617	-26.96
323.83	16.04
324.043	-14.68
324.256	-20.82
324.469	16.04
324.683	91.82
324.896	61.1
325.109	24.23
325.322	22.19
325.535	93.87
325.748	38.57
325.962	32.43
326.175	18.09
326.388	-2.39
326.601	57
326.814	3.75
327.027	52.91
327.24	124.58
327.453	-35.16
327.666	44.71
327.879	54.95
328.092	-41.3
328.305	65.19
328.518	-6.49
328.731	5.8
328.944	9.9
329.157	75.43
329.37	-104.79
329.583	140.97
329.796	138.92
330.009	-41.3
330.222	65.19
330.435	5.8
330.648	7.85
330.861	16.04
331.073	-0.34
331.286	97.96
331.499	95.91
331.712	3.75
331.925	34.47
332.138	22.19
332.35	46.76
332.563	11.95
332.776	95.91
332.989	-18.77
333.202	-33.11
333.414	24.23
333.627	24.23
333.84	-18.77
334.053	-2.39
334.265	-16.73
334.478	11.95
334.691	-37.2
334.903	18.09
335.116	16.04
335.329	67.24
335.541	61.1
335.754	116.39
335.966	57
336.179	-47.44
336.392	-14.68
336.604	13.99
336.817	95.91
337.029	-22.87
337.242	9.9
337.454	52.91
337.667	-2.39
337.88	91.82
338.092	-33.11
338.305	-37.2
338.517	-61.78
338.729	1.71
338.942	28.33
339.154	-0.34
339.367	-10.58
339.579	91.82
339.792	-74.07
340.004	140.97
340.217	24.23
340.429	9.9
340.641	-59.73
340.854	44.71
341.066	46.76
341.278	38.57
341.491	100.01
341.703	54.95
341.915	-14.68
342.128	59.05
342.34	-6.49
342.552	44.71
342.764	-31.06
342.977	7.85
343.189	106.15
343.401	24.23
343.613	-39.25
343.826	-14.68
344.038	-29.01
344.25	69.29
344.462	-14.68
344.674	46.76
344.886	18.09
345.099	7.85
345.311	18.09
345.523	24.23
345.735	-18.77
345.947	65.19
346.159	77.48
346.371	44.71
346.583	-4.44
346.795	130.73
347.007	-37.2
347.219	54.95
347.431	-49.49
347.643	93.87
347.855	-39.25
348.067	104.11
348.279	-16.73
348.491	69.29
348.703	-59.73
348.915	34.47
349.127	30.38
349.339	97.96
349.551	-18.77
349.763	54.95
349.975	61.1
350.187	59.05
350.399	77.48
350.61	46.76
350.822	-6.49
351.034	63.15
351.246	65.19
351.458	61.1
351.669	26.28
351.881	48.81
352.093	130.73
352.305	22.19
352.517	48.81
352.728	114.34
352.94	46.76
353.152	7.85
353.363	-57.68
353.575	-2.39
353.787	67.24
353.999	-84.31
354.21	118.44
354.422	28.33
354.633	-49.49
354.845	73.39
355.057	108.2
355.268	54.95
355.48	-14.68
355.692	-2.39
355.903	44.71
356.115	-39.25
356.326	-20.82
356.538	97.96
356.749	32.43
356.961	106.15
357.172	-24.92
357.384	-22.87
357.595	149.16
357.807	-29.01
358.018	5.8
358.23	-12.63
358.441	108.2
358.653	-10.58
358.864	48.81
359.075	-24.92
359.287	61.1
359.498	38.57
359.709	42.67
359.921	20.14
360.132	79.53
360.344	57
360.555	26.28
360.766	79.53
360.977	26.28
361.189	40.62
361.4	77.48
361.611	71.34
361.823	50.86
362.034	38.57
362.245	13.99
362.456	50.86
362.667	54.95
362.879	-4.44
363.09	71.34
363.301	118.44
363.512	71.34
363.723	1.71
363.935	-20.82
364.146	108.2
364.357	5.8
364.568	24.23
364.779	-29.01
364.99	57
365.201	28.33
365.412	57
365.623	-20.82
365.834	71.34
366.045	-2.39
366.256	59.05
366.467	30.38
366.678	3.75
366.889	89.77
367.1	-55.64
367.311	46.76
367.522	-24.92
367.733	54.95
367.944	-33.11
368.155	-8.53
368.366	69.29
368.577	83.63
368.788	57
368.999	-0.34
369.209	83.63
369.42	177.83
369.631	91.82
369.842	-6.49
370.053	-8.53
370.264	81.58
370.474	-16.73
370.685	85.67
370.896	-65.88
371.107	57
371.317	-0.34
371.528	16.04
371.739	42.67
371.95	5.8
372.16	26.28
372.371	42.67
372.582	34.47
372.792	7.85
373.003	32.43
373.214	1.71
373.424	81.58
373.635	81.58
373.846	61.1
374.056	61.1
374.267	11.95
374.477	54.95
374.688	-12.63
374.898	44.71
375.109	73.39
375.319	71.34
375.53	50.86
375.74	-6.49
375.951	16.04
376.161	-0.34
376.372	50.86
376.582	-29.01
376.793	24.23
377.003	54.95
377.214	36.52
377.424	24.23
377.635	7.85
377.845	46.76
378.055	65.19
378.266	34.47
378.476	13.99
378.686	5.8
378.897	-35.16
379.107	65.19
379.317	-4.44
379.528	-39.25
379.738	77.48
379.948	-53.59
380.158	54.95
380.369	50.86
380.579	-24.92
380.789	11.95
380.999	38.57
381.21	34.47
381.42	132.78
381.63	57
381.84	30.38
382.05	28.33
382.261	204.46
382.471	79.53
382.681	11.95
382.891	163.5
383.101	20.14
383.311	5.8
383.521	-0.34
383.731	65.19
383.941	73.39
384.151	9.9
384.361	67.24
384.571	32.43
384.781	91.82
384.991	61.1
385.201	124.58
385.411	-35.16
385.621	79.53
385.831	-33.11
386.041	59.05
386.251	83.63
386.461	79.53
386.671	69.29
386.881	3.75
387.091	-24.92
387.301	81.58
387.511	50.86
387.72	73.39
387.93	1.71
388.14	1.71
388.35	32.43
388.56	38.57
388.769	-4.44
388.979	30.38
389.189	-16.73
389.399	65.19
389.609	32.43
389.818	13.99
390.028	63.15
390.238	73.39
390.447	1.71
390.657	-0.34
390.867	112.3
391.076	48.81
391.286	140.97
391.496	13.99
391.705	5.8
391.915	28.33
392.125	50.86
392.334	20.14
392.544	30.38
392.753	-33.11
392.963	38.57
393.172	110.25
393.382	54.95
393.591	155.3
393.801	28.33
394.01	75.43
394.22	34.47
394.429	48.81
394.639	71.34
394.848	50.86
395.058	71.34
395.267	16.04
395.477	104.11
395.686	77.48
395.895	71.34
396.105	124.58
396.314	183.98
396.524	102.06
396.733	71.34
396.942	67.24
397.152	173.74
397.361	100.01
397.57	18.09
397.78	28.33
397.989	40.62
398.198	143.02
398.407	63.15
398.617	48.81
398.826	18.09
399.035	34.47
399.244	87.72
399.453	73.39
399.663	114.34
399.872	40.62
400.081	50.86
400.29	159.4
400.499	-2.39
400.708	181.93
400.917	102.06
401.127	93.87
401.336	95.91
401.545	171.69
401.754	110.25
401.963	108.2
402.172	114.34
402.381	44.71
402.59	104.11
402.799	132.78
403.008	59.05
403.217	138.92
403.426	173.74
403.635	95.91
403.844	67.24
404.053	145.06
404.262	116.39
404.471	212.65
404.68	46.76
404.888	106.15
405.097	159.4
405.306	132.78
405.515	196.26
405.724	153.26
405.933	192.17
406.142	118.44
406.35	231.08
406.559	110.25
406.768	126.63
406.977	202.41
407.185	192.17
407.394	198.31
407.603	136.87
407.812	208.55
408.02	198.31
408.229	171.69
408.438	210.6
408.646	190.12
408.855	206.5
409.064	233.13
409.272	192.17
409.481	247.46
409.69	229.03
409.898	263.85
410.107	259.75
410.315	231.08
410.524	190.12
410.733	347.81
410.941	304.81
411.15	382.63
411.358	345.77
411.567	384.68
411.775	321.19
411.984	466.6
412.192	435.88
412.401	446.12
412.609	495.27
412.818	554.66
413.026	462.5
413.234	509.6
413.443	546.47
413.651	581.28
413.86	550.56
414.068	573.09
414.276	622.24
414.485	603.81
414.693	730.78
414.901	767.65
415.11	661.15
415.318	741.02
415.526	704.16
415.734	673.44
415.943	786.08
416.151	755.36
416.359	822.94
416.567	861.85
416.776	960.16
416.984	904.86
417.192	894.62
417.4	915.1
417.608	962.2
417.817	984.73
418.025	1076.89
418.233	1234.58
418.441	1138.33
418.649	1101.47
418.857	1201.82
419.065	1296.02
419.273	1312.41
419.481	1265.3
419.689	1453.72
419.897	1443.48
420.105	1443.48
420.313	1523.35
420.521	1564.31
420.729	1625.75
420.937	1728.14
421.145	1707.66
421.353	1848.97
421.561	1836.69
421.769	1906.32
421.977	1988.24
422.185	2014.86
422.393	2096.78
422.601	2156.17
422.809	2334.34
423.017	2258.57
423.224	2371.21
423.432	2514.56
423.64	2467.46
423.848	2829.95
424.056	2545.28
424.263	2901.63
424.471	2832
424.679	2965.12
424.887	3018.36
425.094	3116.67
425.302	3081.85
425.51	3163.77
425.718	3317.37
425.925	3464.82
426.133	3438.2
426.341	3661.43
426.548	3737.2
426.756	3972.72
426.964	3923.57
427.171	4105.84
427.379	4193.9
427.586	4300.39
427.794	4474.47
428.001	4808.29
428.209	4642.4
428.417	5002.85
428.624	4963.93
428.832	5144.16
429.039	5082.72
429.247	5088.86
429.454	5600.85
429.662	5832.27
429.869	5467.74
430.076	5824.08
430.284	5836.37
430.491	6100.56
430.699	6405.7
430.906	6309.45
431.114	6538.82
431.321	6676.04
431.528	6960.7
431.736	7102.01
431.943	7484.98
432.15	7374.39
432.358	7294.52
432.565	7945.78
432.772	7554.62
432.979	8310.32
433.187	8277.55
433.394	8414.76
433.601	9113.12
433.808	8889.89
434.016	8898.08
434.223	9242.14
434.43	9756.18
434.637	9602.58
434.844	10251.79
435.052	10485.26
435.259	10534.41
435.466	10591.75
435.673	10550.79
435.88	11081.22
436.087	11691.51
436.294	11744.76
436.501	11412.99
436.708	11548.15
436.915	12140.02
437.122	12858.85
437.329	12770.79
437.537	12955.11
437.743	13018.6
437.95	13161.95
438.157	13714.91
438.364	14247.38
438.571	14067.16
438.778	14327.25
438.985	15584.7
439.192	15312.32
439.399	15359.42
439.606	15060.42
439.813	15898.04
440.02	16962.98
440.227	16750
440.433	16414.13
440.64	17116.58
440.847	16635.31
441.054	17638.81
441.261	18625.93
441.467	18242.96
441.674	18509.2
441.881	19533.18
442.088	19258.76
442.294	19105.16
442.501	19455.36
442.708	20147.58
442.914	20483.44
443.121	21464.42
443.328	21290.34
443.534	22480.21
443.741	21826.91
443.948	21413.22
444.154	23457.09
444.361	23143.75
444.568	23297.35
444.774	23027.02
444.981	23620.93
445.187	24040.76
445.394	24855.86
445.6	25081.13
445.807	27360.52
446.013	26156.32
446.22	26533.14
446.426	27696.39
446.633	27684.1
446.839	28640.5
447.046	27514.12
447.252	29054.19
447.459	29267.18
447.665	28896.5
447.871	30244.06
448.078	31608.01
448.284	30211.29
448.491	30704.85
448.697	31739.08
448.903	32484.54
449.11	32943.28
449.316	32027.84
449.522	32976.05
449.728	33686.7
449.935	33911.97
450.141	34038.95
450.347	34383.01
450.553	33563.82
450.76	34088.1
450.966	34788.5
451.172	34858.13
451.378	35511.44
451.584	34663.58
451.791	35677.32
451.997	35247.25
452.203	36199.55
452.409	36476.03
452.615	36232.32
452.821	34608.28
453.027	34426.01
453.233	36220.03
453.44	34903.19
453.646	34993.3
453.852	34970.77
454.058	35708.04
454.264	34651.29
454.47	35251.34
454.676	34335.9
454.882	35685.51
455.088	32435.39
455.294	32974
455.5	33240.24
455.705	33533.1
455.911	32505.02
456.117	31743.17
456.323	31225.04
456.529	29461.74
456.735	31053.01
456.941	30190.81
457.147	29717.73
457.352	28706.04
457.558	28067.07
457.764	28589.3
457.97	27872.51
458.176	27346.19
458.381	26926.35
458.587	26015.01
458.793	25906.46
458.999	24218.94
459.204	26213.66
459.41	25451.81
459.616	23928.13
459.821	23856.45
460.027	23981.37
460.233	23176.52
460.438	22082.91
460.644	22482.26
460.85	21478.75
461.055	20974.95
461.261	20942.19
461.466	19367.3
461.672	18640.27
461.878	20020.6
462.083	18994.57
462.289	18355.6
462.494	18064.79
462.7	17384.87
462.905	17112.49
463.111	17595.81
463.316	17468.83
463.522	17307.04
463.727	17423.78
463.932	17286.56
464.138	17223.08
464.343	17280.42
464.549	16641.45
464.754	17071.53
464.959	17204.64
465.165	16772.52
465.37	16033.21
465.575	15623.61
465.781	16401.84
465.986	16442.8
466.191	16039.35
466.397	15705.53
466.602	15064.52
466.807	15377.86
467.012	15482.3
467.218	15259.07
467.423	14935.49
467.628	15171.01
467.833	15846.84
468.038	15431.1
468.244	14702.03
468.449	15189.44
468.654	14794.18
468.859	14720.46
469.064	14859.72
469.269	13936.09
469.474	14106.07
469.679	14618.06
469.885	14032.34
470.09	14106.07
470.295	14038.48
470.5	13768.15
470.705	13843.93
470.91	13440.48
471.115	13555.16
471.32	13626.84
471.525	13659.61
471.73	13413.85
471.935	13166.05
472.139	12656.11
472.344	12918.25
472.549	12635.63
472.754	12750.31
472.959	12527.08
473.164	12283.38
473.369	12031.48
473.574	12398.06
473.778	12226.03
473.983	12174.83
474.188	12123.63
474.393	11496.96
474.598	11757.05
474.802	11453.95
475.007	11554.3
475.212	11435.52
475.417	11081.22
475.621	11001.35
475.826	10870.28
476.031	10958.34
476.235	10462.73
476.44	10731.01
476.645	10632.71
476.849	10782.21
477.054	10294.8
477.259	9999.89
477.463	10450.44
477.668	9905.68
477.872	9965.07
478.077	9795.09
478.282	9754.13
478.486	9811.48
478.691	9547.29
478.895	9606.68
479.1	9487.9
479.304	9444.89
479.509	9125.41
479.713	9442.84
479.918	9143.84
480.122	9096.74
480.326	9305.63
480.531	9080.35
480.735	8984.1
480.94	8947.23
481.144	9362.97
481.348	8724.01
481.553	9039.39
481.757	8619.56
481.961	8932.9
482.166	9053.73
482.37	8973.86
482.574	8640.04
482.778	8662.57
482.983	8830.5
483.187	8715.81
483.391	8810.02
483.595	8801.83
483.8	8744.49
484.004	8795.68
484.208	8912.42
484.412	8846.88
484.616	8703.53
484.821	8855.08
485.025	8576.55
485.229	8816.16
485.433	8613.42
485.637	8871.46
485.841	8750.63
486.045	8777.25
486.249	8730.15
486.453	8660.52
486.657	8752.68
486.861	8615.46
487.065	8597.03
487.269	9027.1
487.473	8312.36
487.677	8767.01
487.881	8930.85
488.085	8832.55
488.289	8832.55
488.493	8631.85
488.697	8867.36
488.901	8789.54
489.105	8869.41
489.309	8783.4
489.512	8865.32
489.716	8912.42
489.92	8984.1
490.124	8836.64
490.328	8939.04
490.531	9096.74
490.735	9010.72
490.939	9090.59
491.143	8898.08
491.346	9113.12
491.55	8941.09
491.754	9104.93
491.958	9266.72
492.161	9068.06
492.365	9291.29
492.569	9109.02
492.772	9299.48
492.976	9365.02
493.18	9408.03
493.383	9344.54
493.587	9328.16
493.79	9627.16
493.994	9313.82
494.197	9438.75
494.401	9610.78
494.605	9709.08
494.808	9829.91
495.012	9852.44
495.215	9922.07
495.419	9895.44
495.622	9930.26
495.825	10147.34
496.029	9989.65
496.232	10438.16
496.436	10188.3
496.639	10575.37
496.843	10464.78
497.046	10667.53
497.249	10845.7
497.453	10880.52
497.656	10823.17
497.859	11032.07
498.063	11038.21
498.266	11492.86
498.469	11382.27
498.673	11423.23
498.876	11433.47
499.079	11697.66
499.282	11695.61
499.485	11949.56
499.689	11994.61
499.892	12283.38
500.095	12180.98
500.298	12516.84
500.501	12387.82
500.705	12731.88
500.908	12846.57
501.111	12981.73
501.314	12963.3
501.517	13127.14
501.72	13352.41
501.923	13387.23
502.126	13581.79
502.329	13700.57
502.532	13809.11
502.735	13805.02
502.938	14185.94
503.141	14163.41
503.344	14335.44
503.547	14482.89
503.75	14814.66
503.953	14980.55
504.156	15041.99
504.359	15117.76
504.562	15113.67
504.765	15640
504.968	15699.39
505.17	15525.31
505.373	15846.84
505.576	16203.19
505.779	16178.61
505.982	16448.94
506.185	16754.09
506.387	16721.32
506.59	16844.2
506.793	17202.6
506.996	17186.21
507.198	17446.3
507.401	17454.5
507.604	17749.4
507.807	17986.97
508.009	18257.3
508.212	18326.93
508.415	18484.62
508.617	18736.52
508.82	18873.74
509.022	18679.18
509.225	19217.8
509.428	19283.33
509.63	19508.61
509.833	19623.3
510.035	19948.92
510.238	19912.06
510.44	20067.7
510.643	20151.67
510.845	20391.28
511.048	20546.93
511.25	20796.78
511.453	20856.17
511.655	21646.69
511.858	21445.99
512.06	21493.09
512.262	21355.88
512.465	21585.25
512.667	22043.99
512.87	22015.32
513.072	22283.61
513.274	22797.65
513.477	22789.45
513.679	23264.58
513.881	23379.27
514.084	23338.31
514.286	23469.38
514.488	23567.68
514.69	24296.76
514.893	24292.66
515.095	24274.23
515.297	24489.27
515.499	24763.7
515.701	25101.61
515.904	25070.89
516.106	25206.06
516.308	25345.32
516.51	25703.71
516.712	25642.28
516.914	25867.55
517.116	26408.22
517.318	26354.97
517.52	26678.55
517.722	26604.82
517.925	26961.17
518.127	27204.88
518.329	27211.02
518.531	27049.23
518.733	27847.94
518.935	27966.72
519.136	28005.63
519.338	28493.05
519.54	28046.59
519.742	28734.71
519.944	28910.83
520.146	29172.97
520.348	29435.11
520.55	29273.32
520.752	29353.19
520.954	29777.12
521.155	29512.94
521.357	30006.5
521.559	30328.03
521.761	30504.15
521.963	30250.21
522.164	30573.78
522.366	30514.39
522.568	31585.48
522.77	30919.89
522.971	31272.14
523.173	31139.02
523.375	31296.72
523.576	31513.8
523.778	31626.44
523.98	31923.4
524.181	32093.38
524.383	31947.97
524.584	32373.95
524.786	32314.56
524.988	32181.44
525.189	32638.14
525.391	32687.29
525.592	32810.17
525.794	33068.21
525.995	32785.59
526.197	33211.57
526.398	32922.8
526.6	33111.22
526.801	33066.16
527.003	33551.53
527.204	33664.17
527.406	33539.24
527.607	33684.65
527.808	33856.68
528.01	33299.63
528.211	33332.4
528.412	34053.28
528.614	33975.46
528.815	33838.25
529.016	34696.35
529.218	33694.89
529.419	34124.96
529.62	34157.73
529.822	34020.52
530.023	33883.3
530.224	34325.66
530.425	33907.88
530.626	33911.97
530.828	33914.02
531.029	34708.63
531.23	34030.76
531.431	34567.32
531.632	34342.05
531.833	34602.14
532.035	34366.62
532.236	34387.1
532.437	34411.68
532.638	34366.62
532.839	34526.36
533.04	34401.44
533.241	34061.47
533.442	34550.94
533.643	34397.34
533.844	34135.2
534.045	34368.67
534.246	34110.63
534.447	34473.12
534.648	34182.31
534.849	34294.94
535.05	34084
535.251	34393.25
535.451	34067.62
535.652	34290.85
535.853	34315.42
536.054	34423.97
536.255	34315.42
536.456	33914.02
536.657	34466.97
536.857	34165.92
537.058	34073.76
537.259	34622.62
537.46	34237.6
537.66	33868.97
537.861	34225.31
538.062	33776.81
538.263	34065.57
538.463	33940.64
538.664	34292.9
538.865	34041
539.065	34077.86
539.266	33893.54
539.466	34313.38
539.667	34090.15
539.868	34223.26
540.068	33905.83
540.269	34165.92
540.469	34501.79
540.67	33983.65
540.87	33899.69
541.071	33914.02
541.271	34028.71
541.472	33778.86
541.672	33883.3
541.873	33803.43
542.073	33340.59
542.274	34325.66
542.474	33670.31
542.675	33524.91
542.875	33805.48
543.075	33692.84
543.276	33047.73
543.476	33993.89
543.676	33864.87
543.877	33916.07
544.077	33959.08
544.277	33662.12
544.478	33389.74
544.678	33578.15
544.878	33469.61
545.078	33529
545.279	33303.73
545.479	33430.7
545.679	33586.35
545.879	33340.59
546.079	33522.86
546.28	33848.49
546.48	33066.16
546.68	33316.01
546.88	33287.34
547.08	33471.66
547.28	33510.57
547.48	33137.84
547.68	33768.62
547.88	33154.22
548.081	33469.61
548.281	33330.35
548.481	33385.65
548.681	33445.04
548.881	33387.69
549.081	33410.22
549.28	32957.62
549.48	33189.04
549.68	33107.12
549.88	33664.17
550.08	33279.15
550.28	33111.22
550.48	33152.18
550.68	33404.08
550.88	33088.69
551.08	33090.74
551.279	33057.97
551.479	33049.78
551.679	33148.08
551.879	32933.04
552.079	33193.14
552.278	33047.73
552.478	32969.91
552.678	33217.71
552.878	33318.06
553.077	32789.69
553.277	32646.33
553.477	33387.69
553.676	32785.59
553.876	33047.73
554.076	32826.55
554.275	32687.29
554.475	32453.82
554.674	32869.56
554.874	32928.95
555.074	33008.82
555.273	32642.23
555.473	32718.01
555.672	32595.13
555.872	32734.39
556.071	32799.93
556.271	32910.52
556.47	32627.9
556.67	32441.53
556.869	32648.38
557.068	32394.43
557.268	32363.71
557.467	32300.22
557.667	32535.74
557.866	32488.63
558.065	32423.1
558.265	32431.29
558.464	32384.19
558.663	32996.53
558.863	32285.89
559.062	32902.32
559.261	32246.97
559.461	32855.22
559.66	32308.41
559.859	32177.34
560.058	31993.03
560.258	32398.52
560.457	32079.04
560.656	32691.38
560.855	32242.88
561.054	32425.15
561.253	32175.3
561.453	32412.86
561.652	32072.9
561.851	32535.74
562.05	31947.97
562.249	31763.65
562.448	32079.04
562.647	31900.87
562.846	32242.88
563.045	31913.16
563.244	31630.54
563.443	32124.1
563.642	31384.78
563.841	31708.36
564.04	31433.93
564.239	32060.61
564.438	31829.19
564.637	31775.94
564.836	31833.28
565.035	31386.83
565.234	31335.63
565.432	31517.9
565.631	31882.44
565.83	31579.34
566.029	31509.71
566.228	31489.23
566.427	31491.27
566.625	31460.55
566.824	31421.64
567.023	31546.57
567.222	30790.87
567.42	31624.39
567.619	31276.24
567.818	31599.82
568.016	31130.83
568.215	31493.32
568.414	31177.93
568.612	31655.11
568.811	31036.63
569.01	31081.68
569.208	31186.13
569.407	30954.71
569.605	30821.59
569.804	31296.72
570.002	31081.68
570.201	31003.86
570.4	30739.67
570.598	30850.26
570.797	30803.16
570.995	30506.2
571.193	30557.4
571.392	30790.87
571.59	30311.64
571.789	30524.63
571.987	30641.37
572.186	30518.49
572.384	30219.49
572.582	30422.23
572.781	30385.37
572.979	30278.88
573.177	30313.69
573.376	30659.8
573.574	30285.02
573.772	30270.68
573.971	30289.12
574.169	30258.4
574.367	29662.44
574.565	30143.71
574.763	29676.77
574.962	29891.81
575.16	29603.05
575.358	29961.44
575.556	29373.67
575.754	29918.43
575.952	29533.42
576.151	29785.32
576.349	29299.95
576.547	29510.89
576.745	29412.59
576.943	29607.14
577.141	29385.96
577.339	29525.22
577.537	29244.65
577.735	29226.22
577.933	29082.86
578.131	29170.93
578.329	28794.1
578.527	28687.6
578.725	28847.35
578.923	28722.42
579.121	28857.59
579.319	28675.32
579.516	28916.98
579.714	28919.03
579.912	28957.94
580.11	28751.09
580.308	28724.47
580.506	28230.91
580.704	27913.47
580.901	28429.56
581.099	28740.85
581.297	28175.61
581.495	28450.04
581.692	28181.76
581.89	27710.72
582.088	28050.69
582.285	28065.02
582.483	28069.12
582.681	28208.38
582.878	27921.66
583.076	27798.79
583.274	28130.56
583.471	27649.28
583.669	27374.86
583.866	27747.59
584.064	27436.3
584.262	27268.36
584.459	27464.97
584.657	27280.65
584.854	27718.92
585.052	27127.05
585.249	27350.28
585.447	27385.1
585.644	26891.54
585.841	27067.66
586.039	27442.44
586.236	27131.15
586.434	26918.16
586.631	27151.63
586.828	26766.61
587.026	26774.8
587.223	26623.25
587.42	26690.84
587.618	26629.4
587.815	26537.24
588.012	26248.47
588.21	26252.57
588.407	26561.81
588.604	26580.25
588.801	26332.44
588.999	26021.15
589.196	26119.45
589.393	25961.76
589.59	25974.05
589.787	26146.08
589.984	25738.53
590.182	25711.91
590.379	25677.09
590.576	25621.8
590.773	25892.13
590.97	25605.41
591.167	25689.38
591.364	25249.07
591.561	25720.1
591.758	25124.14
591.955	25451.81
592.152	25531.69
592.349	25009.45
592.546	25214.25
592.743	25312.55
592.94	24907.05
593.137	24816.94
593.334	25152.81
593.531	24487.22
593.727	24929.58
593.924	24757.55
594.121	24620.34
594.318	24745.27
594.515	24356.15
594.712	24638.77
594.908	24325.43
595.105	24560.95
595.302	24683.83
595.499	24300.86
595.696	24206.65
595.892	23979.32
596.089	24440.12
596.286	24137.02
596.482	23831.87
596.679	23985.47
596.876	24067.39
597.072	23758.14
597.269	23813.44
597.466	23588.16
597.662	23557.44
597.859	23864.64
598.055	23745.86
598.252	23532.87
598.448	23670.08
598.645	23489.86
598.841	23162.19
599.038	23297.35
599.234	23201.1
599.431	23170.38
599.627	22904.14
599.824	23205.19
600.02	22859.09
600.217	22920.52
600.413	22906.19
600.609	22795.6
600.806	22943.05
601.002	22723.92
601.198	22574.42
601.395	22467.92
601.591	22256.98
601.787	22279.51
601.984	22488.4
602.18	22328.66
602.376	22179.16
602.572	22127.96
602.769	22117.72
602.965	22164.82
603.161	22082.91
603.357	21886.3
603.553	21914.97
603.75	21798.24
603.946	22046.04
604.142	21837.15
604.338	21763.42
604.534	21855.58
604.73	21751.13
604.926	21708.13
605.122	21636.45
605.318	21144.94
605.514	21544.29
605.71	21470.56
605.906	21220.71
606.102	21325.16
606.298	21024.11
606.494	21448.04
606.69	21224.81
606.886	20995.43
607.082	21063.02
607.278	21218.66
607.474	20753.77
607.67	21065.07
607.866	20800.88
608.062	21077.35
608.257	20796.78
608.453	20727.15
608.649	20825.45
608.845	20706.67
609.041	20585.84
609.236	20573.55
609.432	20516.21
609.628	20469.11
609.824	20643.18
610.019	20458.87
610.215	20424.05
610.411	20327.8
610.606	20387.19
610.802	20409.72
610.998	20039.03
611.193	20462.96
611.389	19987.83
611.584	20364.66
611.78	20100.47
611.976	19930.49
612.171	19881.34
612.367	20161.91
612.562	20202.87
612.758	19432.83
612.953	19465.6
613.149	20018.55
613.344	19817.85
613.539	20069.75
613.735	19447.17
613.93	19676.54
614.126	19912.06
614.321	19619.2
614.517	19778.94
614.712	19545.47
614.907	19375.49
615.103	19815.8
615.298	19301.76
615.493	19522.94
615.688	19064.2
615.884	19651.97
616.079	19312
616.274	19645.82
616.47	19295.62
616.665	19428.74
616.86	19266.95
617.055	19105.16
617.25	19101.06
617.445	19225.99
617.641	18701.71
617.836	18996.62
618.031	18738.57
618.226	19162.5
618.421	18732.43
618.616	18896.27
618.811	18417.04
619.006	18904.46
619.201	18335.12
619.396	18730.38
619.591	18345.36
619.786	18572.69
619.981	17931.67
620.176	18333.07
620.371	18224.53
620.566	18017.69
620.761	18054.55
620.956	18146.71
621.151	17847.71
621.346	17989.02
621.541	17163.68
621.735	17679.77
621.93	17272.23
622.125	17587.61
622.32	17241.51
622.515	17087.91
622.709	17053.09
622.904	17005.99
623.099	16983.46
623.294	16885.16
623.488	16721.32
623.683	16836.01
623.878	16582.06
624.072	16455.09
624.267	16418.22
624.462	16510.38
624.656	16506.29
624.851	16199.09
625.046	16154.04
625.24	16328.11
625.435	15982.01
625.629	16100.79
625.824	15771.07
626.018	15953.34
626.213	15484.35
626.407	15775.16
626.602	15224.26
626.796	15404.48
626.991	15771.07
627.185	15336.9
627.38	15539.65
627.574	15453.63
627.768	15058.37
627.963	14906.82
628.157	14941.64
628.352	15101.38
628.546	14511.57
628.74	14773.71
628.935	14742.99
629.129	14697.93
629.323	14581.2
629.517	14187.99
629.712	14169.55
629.906	14155.22
630.1	14142.93
630.294	14403.02
630.489	14040.53
630.683	14169.55
630.877	13905.37
631.071	13813.21
631.265	14011.86
631.459	13544.92
631.653	13622.75
631.848	13731.29
632.042	13456.86
632.236	13409.76
632.43	13336.03
632.624	13487.58
632.818	13489.63
633.012	13120.99
633.206	13037.03
633.4	13215.2
633.594	12996.07
633.788	12912.1
633.982	12742.12
634.176	12850.66
634.369	12672.49
634.563	12500.46
634.757	12402.16
634.951	12445.16
635.145	12494.32
635.339	12791.27
635.533	12346.86
635.726	12348.91
635.92	12223.98
636.114	12281.33
636.308	12123.63
636.501	11900.41
636.695	12140.02
636.889	11843.06
637.083	11785.72
637.276	11587.07
637.47	11716.09
637.664	11625.98
637.857	11769.34
638.051	11453.95
638.244	11625.98
638.438	11238.91
638.632	11470.33
638.825	11208.19
639.019	11296.25
639.212	11171.33
639.406	11222.53
639.599	10923.52
639.793	10989.06
639.986	10950.15
640.18	10761.73
640.373	10579.47
640.567	10645
640.76	10636.81
640.954	10636.81
641.147	10593.8
641.34	10483.21
641.534	10540.55
641.727	10436.11
641.92	10389
642.114	10366.48
642.307	10313.23
642.5	10167.82
642.694	10126.86
642.887	9999.89
643.08	10262.03
643.273	10051.09
643.467	9829.91
643.66	9850.39
643.853	9702.93
644.046	9797.14
644.239	9571.86
644.432	9647.64
644.626	9707.03
644.819	9647.64
645.012	9623.06
645.205	9487.9
645.398	9522.71
645.591	9307.68
645.784	9319.96
645.977	9158.17
646.17	9367.07
646.363	9172.51
646.556	8836.64
646.749	9152.03
646.942	9184.8
647.135	8908.32
647.328	8859.17
647.521	9053.73
647.714	8732.2
647.907	8672.81
648.099	8818.21
648.292	8988.19
648.485	8674.85
648.678	8478.25
648.871	8584.74
649.064	8515.11
649.256	8554.02
649.449	8287.79
649.642	8603.18
649.835	8259.12
650.027	8209.97
650.22	8341.04
650.413	8281.64
650.605	8289.84
650.798	8336.94
650.991	8019.5
651.183	7962.16
651.376	7822.9
651.568	7956.02
651.761	7966.26
651.954	7917.11
652.146	7964.21
652.339	7845.43
652.531	7958.07
652.724	7757.36
652.916	7585.33
653.109	7642.68
653.301	7708.21
653.494	7575.1
653.686	7616.05
653.879	7425.59
654.071	7444.03
654.263	7423.55
654.456	7407.16
654.648	7364.15
654.84	7386.68
655.033	7343.67
655.225	7194.17
655.417	7200.32
655.61	7306.81
655.802	7290.43
655.994	7296.57
656.186	7110.21
656.379	7093.82
656.571	6927.94
656.763	7026.24
656.955	6981.18
657.148	6972.99
657.34	6936.13
657.532	6774.34
657.724	6819.39
657.916	6669.89
658.108	6901.31
658.3	6719.04
658.492	6696.52
658.684	6643.27
658.876	6749.76
659.068	6481.48
659.26	6579.78
659.452	6565.45
659.644	6671.94
659.836	6340.17
660.028	6407.75
660.22	6430.28
660.412	6205
660.604	6221.39
660.796	6368.84
660.988	6321.74
661.18	6426.18
661.372	5957.2
661.563	6307.4
661.755	6006.35
661.947	6059.6
662.139	5920.34
662.331	6028.88
662.522	6051.41
662.714	5942.86
662.906	5875.28
663.097	5869.14
663.289	5893.71
663.481	5942.86
663.673	5795.41
663.864	5776.98
664.056	5936.72
664.247	5838.42
664.439	5799.51
664.631	5731.92
664.822	5721.68
665.014	5662.29
665.205	5766.74
665.397	5764.69
665.588	5652.05
665.78	5549.65
665.971	5629.52
666.163	5658.2
666.354	5459.54
666.546	5375.58
666.737	5498.45
666.929	5527.13
667.12	5369.43
667.311	5484.12
667.503	5246.55
667.694	5391.96
667.885	5351
668.077	5340.76
668.268	5045.85
668.459	5088.86
668.651	5039.71
668.842	5264.99
669.033	5152.35
669.224	5178.97
669.416	5316.19
669.607	5113.44
669.798	5111.39
669.989	5267.03
670.18	5092.96
670.371	5066.33
670.563	4959.84
670.754	5062.24
670.945	5178.97
671.136	5000.8
671.327	5076.57
671.518	5027.42
671.709	4972.13
671.9	5152.35
672.091	4939.36
672.282	4953.7
672.473	4890.21
672.664	4974.17
672.855	4806.24
673.046	4771.43
673.237	4861.54
673.428	4896.35
673.619	4918.88
673.809	4851.3
674	4970.08
674.191	4752.99
674.382	4736.61
674.573	4847.2
674.764	4884.06
674.954	4744.8
675.145	4730.47
675.336	4687.46
675.527	4675.17
675.717	4765.28
675.908	4718.18
676.099	4658.79
676.289	5039.71
676.48	4515.43
676.671	4644.45
676.861	4732.51
677.052	4507.24
677.243	4644.45
677.433	4589.16
677.624	4771.43
677.814	4658.79
678.005	4734.56
678.195	4589.16
678.386	4742.75
678.576	4574.82
678.767	4566.63
678.957	4560.49
679.148	4712.03
679.338	4722.27
679.529	4580.96
679.719	4548.2
679.909	4636.26
680.1	4537.96
680.29	4605.54
680.481	4574.82
680.671	4591.2
680.861	4615.78
681.052	4623.97
681.242	4443.75
681.432	4554.34
681.622	4599.4
681.813	4605.54
682.003	4572.77
682.193	4554.34
682.383	4482.66
682.573	4669.03
682.764	4560.49
682.954	4488.81
683.144	4691.56
683.334	4605.54
683.524	4554.34
683.714	4560.49
683.904	4484.71
684.094	4546.15
684.284	4519.53
684.474	4593.25
684.664	4562.53
684.854	4501.09
685.044	4488.81
685.234	4341.35
685.424	4456.04
685.614	4286.06
685.804	4486.76
685.994	4474.47
686.184	4472.42
686.374	4458.09
686.564	4474.47
686.753	4443.75
686.943	4316.78
687.133	4345.45
687.323	4288.11
687.513	4396.65
687.702	4367.98
687.892	4357.74
688.082	4132.46
688.272	4292.2
688.461	4208.23
688.651	4111.98
688.841	4197.99
689.03	4077.16
689.22	4238.95
689.41	4204.14
689.599	4042.35
689.789	4099.69
689.979	4118.12
690.168	4161.13
690.358	3987.05
690.547	4116.08
690.737	4093.55
690.926	4050.54
691.116	3843.7
691.305	4030.06
691.495	3929.71
691.684	3825.26
691.874	3810.93
692.063	3909.23
692.252	3835.5
692.442	3997.29
692.631	3741.3
692.82	3989.1
693.01	3790.45
693.199	3855.98
693.388	3782.26
693.578	3753.59
693.767	3792.5
693.956	3720.82
694.146	3761.78
694.335	3704.43
694.524	3694.19
694.713	3763.83
694.902	3835.5
695.092	3743.35
695.281	3645.04
695.47	3694.19
695.659	3737.2
695.848	3696.24
696.037	3583.6
696.226	3614.32
696.415	3542.64
696.604	3704.43
696.793	3573.36
696.982	3702.39
697.171	3706.48
697.36	3595.89
697.549	3561.08
697.738	3597.94
697.927	3522.16
698.116	3749.49
698.305	3669.62
698.494	3747.44
698.683	3640.95
698.872	3718.77
699.061	3628.66
699.25	3559.03
699.438	3616.37
699.627	3587.7
699.816	3749.49
700.005	3620.47
700.193	3530.36
700.382	3671.67
700.571	3612.28
700.76	3696.24
700.948	3796.59
701.137	3731.06
701.326	3782.26
701.514	3530.36
701.703	3694.19
701.892	3669.62
702.08	3825.26
702.269	3593.84
702.457	3688.05
702.646	3567.22
702.834	3550.84
703.023	3569.27
703.212	3821.17
703.4	3683.95
703.589	3729.01
703.777	3718.77
703.965	3669.62
704.154	3669.62
704.342	3649.14
704.531	3788.4
704.719	3587.7
704.907	3868.27
705.096	3806.83
705.284	3610.23
705.472	3911.28
705.661	3749.49
705.849	3800.69
706.037	3884.66
706.226	3753.59
706.414	3763.83
706.602	3741.3
706.79	3892.85
706.979	3735.15
707.167	3767.92
707.355	3610.23
707.543	3782.26
707.731	3796.59
707.919	3892.85
708.107	3698.29
708.296	3892.85
708.484	3743.35
708.672	3763.83
708.86	3765.87
709.048	3759.73
709.236	3810.93
709.424	3821.17
709.612	3915.37
709.8	3808.88
709.988	3860.08
710.176	3954.29
710.364	3800.69
710.551	3810.93
710.739	3919.47
710.927	3792.5
711.115	3774.07
711.303	3958.38
711.491	3931.76
711.679	3845.74
711.866	3927.66
712.054	3970.67
712.242	3915.37
712.43	4015.73
712.617	3890.8
712.805	3999.34
712.993	3909.23
713.181	3704.43
713.368	3950.19
713.556	3776.11
713.744	4056.68
713.931	4114.03
714.119	3821.17
714.306	4028.01
714.494	3915.37
714.682	3954.29
714.869	3833.46
715.057	3853.94
715.244	3925.61
715.432	3817.07
715.619	3864.18
715.807	3923.57
715.994	3944.05
716.182	3890.8
716.369	4023.92
716.556	3862.13
716.744	4032.11
716.931	3985.01
717.119	4003.44
717.306	3956.33
717.493	3929.71
717.681	3976.81
717.868	3964.53
718.055	4105.84
718.242	4087.4
718.43	4085.36
718.617	4097.64
718.804	4034.16
718.991	4126.32
719.179	4114.03
719.366	4036.21
719.553	4101.74
719.74	4111.98
719.927	4208.23
720.114	4036.21
720.301	4015.73
720.488	3925.61
720.676	3976.81
720.863	4126.32
721.05	4193.9
721.237	4114.03
721.424	4040.3
721.611	4095.6
721.798	4114.03
721.985	4103.79
722.172	3960.43
722.358	4259.43
722.545	4243.05
722.732	4089.45
722.919	4275.82
723.106	4093.55
723.293	4163.18
723.48	4208.23
723.667	4077.16
723.853	4165.23
724.04	4279.91
724.227	4200.04
724.414	4169.32
724.6	4224.62
724.787	4097.64
724.974	4238.95
725.161	4189.8
725.347	4087.4
725.534	4214.38
725.72	4111.98
725.907	4146.8
726.094	4150.89
726.28	4005.49
726.467	4062.83
726.653	4093.55
726.84	4097.64
727.027	4236.91
727.213	4124.27
727.4	4189.8
727.586	4159.08
727.773	4087.4
727.959	4226.67
728.145	4232.81
728.332	4212.33
728.518	4173.42
728.705	4075.12
728.891	4054.64
729.077	4105.84
729.264	4284.01
729.45	4130.41
729.636	4177.51
729.823	4042.35
730.009	4116.08
730.195	4230.76
730.382	4277.87
730.568	4208.23
730.754	3937.9
730.94	4134.51
731.126	4077.16
731.313	4161.13
731.499	4177.51
731.685	4130.41
731.871	4249.19
732.057	4216.43
732.243	4263.53
732.429	4249.19
732.615	4189.8
732.801	4148.84
732.987	4134.51
733.173	4191.85
733.359	4167.28
733.545	4157.04
733.731	4116.08
733.917	4210.28
734.103	4177.51
734.289	4210.28
734.475	4144.75
734.661	4228.71
734.847	4097.64
735.033	4105.84
735.219	4159.08
735.404	4091.5
735.59	4079.21
735.776	4138.6
735.962	4036.21
736.148	4003.44
736.333	4095.6
736.519	4126.32
736.705	4085.36
736.89	4062.83
737.076	4015.73
737.262	4062.83
737.447	4122.22
737.633	3970.67
737.819	4126.32
738.004	3958.38
738.19	4060.78
738.375	3927.66
738.561	4146.8
738.747	3860.08
738.932	4058.73
739.118	4007.53
739.303	4011.63
739.489	3970.67
739.674	3901.04
739.859	3909.23
740.045	3868.27
740.23	3819.12
740.416	3808.88
740.601	3903.09
740.786	3831.41
740.972	3890.8
741.157	3716.72
741.342	3862.13
741.528	3724.91
741.713	3839.6
741.898	3827.31
742.084	3882.61
742.269	3767.92
742.454	3659.38
742.639	3788.4
742.824	3688.05
743.01	3970.67
743.195	3870.32
743.38	3690.1
743.565	3624.56
743.75	3671.67
743.935	3604.08
744.12	3782.26
744.305	3458.68
744.49	3698.29
744.675	3622.52
744.86	3438.2
745.045	3659.38
745.23	3530.36
745.415	3438.2
745.6	3544.69
745.785	3528.31
745.97	3518.07
746.155	3417.72
746.34	3530.36
746.525	3360.38
746.71	3556.98
746.895	3243.64
747.079	3485.3
747.264	3378.81
747.449	3516.02
747.634	3360.38
747.819	3327.61
748.003	3231.35
748.188	3192.44
748.373	3157.63
748.557	3202.68
748.742	3180.15
748.927	3266.17
749.111	3169.91
749.296	3131
749.481	3147.39
749.665	3196.54
749.85	2977.41
750.034	3028.6
750.219	2950.78
750.404	3092.09
750.588	2954.88
750.773	2893.44
750.957	2975.36
751.141	2807.42
751.326	2852.48
751.51	2877.05
751.695	2799.23
751.879	2842.24
752.064	2819.71
752.248	2850.43
752.432	2803.33
752.617	2778.75
752.801	2825.86
752.985	2668.16
753.17	2809.47
753.354	2649.73
753.538	2580.1
753.722	2793.09
753.907	2662.02
754.091	2621.06
754.275	2641.54
754.459	2573.96
754.643	2573.96
754.828	2485.89
755.012	2551.43
755.196	2434.69
755.38	2451.08
755.564	2481.8
755.748	2412.17
755.932	2444.93
756.116	2385.54
756.3	2449.03
756.484	2342.53
756.668	2422.41
756.852	2217.61
757.036	2442.89
757.22	2387.59
757.404	2334.34
757.588	2262.66
757.772	2317.96
757.956	2203.27
758.14	2410.12
758.323	2143.88
758.507	2215.56
758.691	2162.31
758.875	2174.6
759.059	2217.61
759.242	2086.54
759.426	2061.96
759.61	2119.31
759.794	2072.2
759.977	2178.7
760.161	2104.97
760.345	2143.88
760.528	2115.21
760.712	1986.19
760.895	2141.83
761.079	1994.38
761.263	1990.28
761.446	2025.1
761.63	1951.37
761.813	1945.23
761.997	2010.76
762.18	1947.28
762.364	1914.51
762.547	1914.51
762.731	1904.27
762.914	1828.49
763.098	1808.02
763.281	1873.55
763.464	1980.04
763.648	1838.73
763.831	1857.17
764.015	1914.51
764.198	1916.56
764.381	1883.79
764.564	1828.49
764.748	1855.12
764.931	1840.78
765.114	1662.61
765.297	1924.75
765.481	1744.53
765.664	1728.14
765.847	1722
766.03	1762.96
766.213	1748.62
766.397	1769.1
766.58	1705.62
766.763	1765.01
766.946	1762.96
767.129	1814.16
767.312	1695.38
767.495	1750.67
767.678	1666.71
767.861	1640.08
768.044	1631.89
768.227	1676.95
768.41	1681.04
768.593	1654.42
768.776	1656.47
768.959	1652.37
769.142	1681.04
769.324	1613.46
769.507	1707.66
769.69	1549.97
769.873	1666.71
770.056	1709.71
770.239	1609.36
770.421	1609.36
770.604	1597.07
770.787	1674.9
770.97	1502.87
771.152	1468.05
771.335	1603.22
771.518	1556.11
771.7	1478.29
771.883	1556.11
772.066	1433.24
772.248	1537.68
772.431	1595.03
772.613	1433.24
772.796	1490.58
772.978	1502.87
773.161	1599.12
773.343	1429.14
773.526	1455.76
773.708	1369.75
773.891	1396.37
774.073	1326.74
774.256	1353.37
774.438	1433.24
774.621	1406.61
774.803	1404.57
774.985	1210.01
775.168	1427.09
775.35	1308.31
775.532	1386.13
775.715	1273.5
775.897	1277.59
776.079	1302.17
776.261	1365.65
776.444	1203.86
776.626	1205.91
776.808	1255.06
776.99	1214.1
777.173	1242.78
777.355	1148.57
777.537	1185.43
777.719	1119.9
777.901	1150.62
778.083	1207.96
778.265	1167
778.447	1216.15
778.629	1007.26
778.811	1169.05
778.993	1089.18
779.175	1123.99
779.357	1128.09
779.539	1068.7
779.721	1091.23
779.903	1138.33
780.085	1158.81
780.267	1025.69
780.449	1181.34
780.631	1066.65
780.812	1078.94
780.994	1138.33
781.176	1033.88
781.358	956.06
781.54	1042.07
781.721	1062.55
781.903	1040.03
782.085	1021.6
782.267	1037.98
782.448	947.87
782.63	951.96
782.812	992.92
782.993	964.25
783.175	970.4
783.357	839.33
783.538	908.96
783.72	835.23
783.901	874.14
784.083	814.75
784.264	1001.12
784.446	822.94
784.627	849.57
784.809	847.52
784.99	900.76
785.172	872.09
785.353	806.56
785.535	894.62
785.716	839.33
785.897	853.66
786.079	753.31
786.26	827.04
786.441	812.7
786.623	657.06
786.804	736.93
786.985	749.22
787.167	724.64
787.348	802.46
787.529	763.55
787.71	804.51
787.891	777.89
788.073	702.11
788.254	683.68
788.435	720.54
788.616	738.98
788.797	628.39
788.978	673.44
789.159	683.68
789.34	781.98
789.522	788.13
789.703	673.44
789.884	609.95
790.065	743.07
790.246	747.17
790.427	712.35
790.607	618.15
790.788	685.73
790.969	706.21
791.15	655.01
791.331	659.1
791.512	679.58
791.693	562.85
791.874	556.71
792.054	683.68
792.235	640.67
792.416	573.09
792.597	544.42
792.778	532.13
792.958	655.01
793.139	620.19
793.32	542.37
793.5	511.65
793.681	644.77
793.862	493.22
794.042	540.32
794.223	417.44
794.404	521.89
794.584	466.6
794.765	573.09
794.945	511.65
795.126	558.75
795.306	597.67
795.487	542.37
795.667	593.57
795.848	501.41
796.028	460.45
796.209	595.62
796.389	628.39
796.57	482.98
796.75	474.79
796.93	476.84
797.111	405.16
797.291	433.83
797.471	530.08
797.652	515.75
797.832	495.27
798.012	513.7
798.192	429.73
798.373	335.53
798.553	444.07
798.733	464.55
798.913	384.68
799.093	499.36
799.274	384.68
799.454	425.64
799.634	468.64
799.814	429.73
799.994	419.49
800.174	444.07
800.354	515.75
800.534	378.53
800.714	401.06
800.894	378.53
801.074	374.44
801.254	435.88
801.434	403.11
801.614	423.59
801.794	351.91
801.974	1435.28
802.154	360.1
802.334	409.25
802.514	296.61
802.693	417.44
802.873	394.92
803.053	450.21
803.233	362.15
803.413	321.19
803.592	386.72
803.772	384.68
803.952	323.24
804.131	343.72
804.311	403.11
804.491	423.59
804.67	341.67
804.85	360.1
805.03	343.72
805.209	468.64
805.389	360.1
805.568	392.87
805.748	396.96
805.928	333.48
806.107	386.72
806.287	257.7
806.466	300.71
806.646	253.61
806.825	327.33
807.004	345.77
807.184	366.25
807.363	356.01
807.543	356.01
807.722	313
807.901	378.53
808.081	331.43
808.26	192.17
808.439	390.82
808.619	313
808.798	325.29
808.977	333.48
809.156	274.09
809.336	364.2
809.515	298.66
809.694	186.02
809.873	292.52
810.052	384.68
810.231	276.13
810.411	319.14
810.59	300.71
810.769	370.34
810.948	298.66
811.127	233.13
811.306	255.65
811.485	261.8
811.664	278.18
811.843	263.85
812.022	306.85
812.201	218.79
812.38	224.94
812.559	267.94
812.737	194.22
812.916	192.17
813.095	181.93
813.274	237.22
813.453	229.03
813.632	282.28
813.811	292.52
813.989	89.77
814.168	298.66
814.347	269.99
814.526	253.61
814.704	286.37
814.883	276.13
815.062	173.74
815.24	308.9
815.419	241.32
815.598	206.5
815.776	153.26
815.955	384.68
816.133	112.3
816.312	294.57
816.49	194.22
816.669	208.55
816.847	239.27
817.026	212.65
817.204	204.46
817.383	208.55
817.561	239.27
817.74	210.6
817.918	241.32
818.097	214.7
818.275	106.15
818.453	188.07
818.632	222.89
818.81	210.6
818.988	134.82
819.167	218.79
819.345	202.41
819.523	190.12
819.701	153.26
819.879	198.31
820.058	198.31
820.236	206.5
820.414	159.4
820.592	167.59
820.77	147.11
820.948	190.12
821.127	196.26
821.305	218.79
821.483	181.93
821.661	169.64
821.839	167.59
822.017	126.63
822.195	163.5
822.373	241.32
822.551	257.7
822.729	224.94
822.907	202.41
823.085	147.11
823.262	145.06
823.44	165.54
823.618	97.96
823.796	198.31
823.974	204.46
824.152	153.26
824.329	175.78
824.507	175.78
824.685	188.07
824.863	226.98
825.04	157.35
825.218	202.41
825.396	149.16
825.574	122.54
825.751	122.54
825.929	186.02
826.107	124.58
826.284	143.02
826.462	190.12
826.639	83.63
826.817	128.68
826.994	118.44
827.172	93.87
827.349	278.18
827.527	226.98
827.704	122.54
827.882	136.87
828.059	108.2
828.237	157.35
828.414	95.91
828.591	54.95
828.769	149.16
828.946	104.11
829.124	163.5
829.301	165.54
829.478	163.5
829.655	159.4
829.833	110.25
830.01	100.01
830.187	177.83
830.364	155.3
830.542	138.92
830.719	165.54
830.896	128.68
831.073	167.59
831.25	110.25
831.427	130.73
831.604	100.01
831.782	120.49
831.959	61.1
832.136	106.15
832.313	97.96
832.49	93.87
832.667	110.25
832.844	104.11
833.021	83.63
833.198	108.2
833.374	83.63
833.551	114.34
833.728	112.3
833.905	75.43
834.082	18.09
834.259	63.15
834.436	179.88
834.612	93.87
834.789	165.54
834.966	181.93
835.143	120.49
835.319	85.67
835.496	110.25
835.673	169.64
835.85	149.16
836.026	118.44
836.203	114.34
836.38	110.25
836.556	-0.34
836.733	52.91
836.909	253.61
837.086	36.52
837.262	7.85
837.439	83.63
837.616	118.44
837.792	63.15
837.968	79.53
838.145	9.9
838.321	54.95
838.498	52.91
838.674	120.49
838.851	30.38
839.027	100.01
839.203	114.34
839.38	73.39
839.556	54.95
839.732	48.81
839.909	11.95
840.085	85.67
840.261	36.52
840.437	153.26
840.614	32.43
840.79	61.1
840.966	67.24
841.142	38.57
841.318	46.76
841.494	122.54
841.671	38.57
841.847	83.63
842.023	36.52
842.199	30.38
842.375	79.53
842.551	26.28
842.727	3.75
842.903	50.86
843.079	95.91
843.255	169.64
843.431	5.8
843.607	69.29
843.783	-2.39
843.959	59.05
844.134	36.52
844.31	124.58
844.486	50.86
844.662	110.25
844.838	73.39
845.013	75.43
845.189	120.49
845.365	143.02
845.541	93.87
845.716	36.52
845.892	89.77
846.068	52.91
846.244	36.52
846.419	65.19
846.595	20.14
846.77	-26.96
846.946	71.34
847.122	-16.73
847.297	20.14
847.473	83.63
847.648	54.95
847.824	7.85
847.999	-22.87
848.175	50.86
848.35	7.85
848.526	163.5
848.701	57
848.876	77.48
849.052	93.87
849.227	52.91
849.403	-45.4
849.578	7.85
849.753	48.81
849.929	130.73
850.104	-47.44
850.279	18.09
850.454	97.96
850.63	65.19
850.805	11.95
850.98	75.43
851.155	-51.54
851.33	18.09
851.505	40.62
851.681	130.73
851.856	32.43
852.031	50.86
852.206	-0.34
852.381	26.28
852.556	-2.39
852.731	30.38
852.906	52.91
853.081	-65.88
853.256	134.82
853.431	-29.01
853.606	-0.34
853.781	18.09
853.956	-51.54
854.131	48.81
854.305	-16.73
854.48	-14.68
854.655	-6.49
854.83	36.52
855.005	-2.39
855.18	26.28
855.354	3.75
855.529	85.67
855.704	59.05
855.879	48.81
856.053	5.8
856.228	89.77
856.403	36.52
856.577	71.34
856.752	-0.34
856.926	30.38
857.101	13.99
857.276	-74.07
857.45	-18.77
857.625	-4.44
857.799	-31.06
857.974	61.1
858.148	-51.54
858.323	20.14
858.497	38.57
858.672	24.23
858.846	-55.64
859.02	26.28
859.195	-59.73
859.369	-8.53
859.543	32.43
859.718	9.9
859.892	46.76
860.066	-22.87
860.241	20.14
860.415	-35.16
860.589	13.99
860.763	22.19
860.938	34.47
861.112	69.29
861.286	-65.88
861.46	1.71
861.634	-33.11
861.808	71.34
861.982	34.47
862.157	16.04
862.331	-33.11
862.505	42.67
862.679	-35.16
862.853	-80.21
863.027	5.8
863.201	91.82
863.375	16.04
863.549	46.76
863.722	9.9
863.896	-29.01
864.07	-69.97
864.244	42.67
864.418	57
864.592	11.95
864.766	-20.82
864.939	-57.68
865.113	-47.44
865.287	9.9
865.461	-20.82
865.634	-0.34
865.808	-2.39
865.982	57
866.156	-82.26
866.329	-61.78
866.503	-59.73
866.676	81.58
866.85	1.71
867.024	-6.49
867.197	116.39
867.371	20.14
867.544	38.57
867.718	1.71
867.891	95.91
868.065	-16.73
868.238	-31.06
868.412	44.71
868.585	-6.49
868.759	-10.58
868.932	-49.49
869.105	-65.88
869.279	-20.82
869.452	-67.92
869.625	28.33
869.799	34.47
869.972	-49.49
870.145	34.47
870.319	30.38
870.492	50.86
870.665	-35.16
870.838	-43.35
871.011	-98.64
871.185	-6.49
871.358	-22.87
871.531	-2.39
871.704	-24.92
871.877	-4.44
872.05	-43.35
872.223	-14.68
872.396	71.34
872.569	50.86
872.742	-14.68
872.915	22.19
873.088	28.33
873.261	-90.45
873.434	-10.58
873.607	16.04
873.78	16.04
873.953	-14.68
874.126	-18.77
874.299	34.47
874.471	-90.45
874.644	-26.96
874.817	3.75
874.99	40.62
875.163	-26.96
875.335	-14.68
875.508	-20.82
875.681	-10.58
875.853	-4.44
876.026	7.85
876.199	26.28
876.371	22.19
876.544	46.76
876.717	9.9
876.889	-82.26
877.062	93.87
877.234	-26.96
877.407	34.47
877.579	32.43
877.752	-39.25
877.924	46.76
878.097	38.57
878.269	-8.53
878.442	-14.68
878.614	79.53
878.786	-20.82
878.959	1.71
879.131	-4.44
879.303	20.14
879.476	-16.73
879.648	18.09
879.82	-12.63
879.993	-31.06
880.165	-0.34
880.337	-82.26
880.509	52.91
880.681	-86.36
880.854	-55.64
881.026	-10.58
881.198	57
881.37	-39.25
881.542	-82.26
881.714	22.19
881.886	54.95
882.058	-18.77
882.23	-4.44
882.402	-24.92
882.574	57
882.746	7.85
882.918	38.57
883.09	-12.63
883.262	-12.63
883.434	22.19
883.606	-112.98
883.778	-8.53
883.95	95.91
884.122	-51.54
884.293	-12.63
884.465	-41.3
884.637	79.53
884.809	-57.68
884.98	-39.25
885.152	11.95
885.324	-8.53
885.496	-22.87
885.667	-63.83
885.839	-49.49
886.011	42.67
886.182	52.91
886.354	67.24
886.525	9.9
886.697	75.43
886.869	-82.26
887.04	1.71
887.212	67.24
887.383	112.3
887.555	-31.06
887.726	-47.44
887.897	22.19
888.069	-33.11
888.24	71.34
888.412	-47.44
888.583	-14.68
888.754	-41.3
888.926	-106.84
889.097	-12.63
889.268	-123.22
889.44	-16.73
889.611	-37.2
889.782	-4.44
889.953	-129.36
890.125	3.75
890.296	-51.54
890.467	-14.68
890.638	20.14
890.809	-22.87
890.98	3.75
891.151	1.71
891.323	11.95
891.494	-14.68
891.665	9.9
891.836	-51.54
892.007	-33.11
892.178	50.86
892.349	-45.4
892.52	-67.92
892.691	36.52
892.862	30.38
893.032	-69.97
893.203	-84.31
893.374	59.05
893.545	40.62
893.716	-51.54
893.887	26.28
894.057	-24.92
894.228	-16.73
894.399	-117.08
894.57	57
894.74	-55.64
894.911	7.85
895.082	-29.01
895.253	-55.64
895.423	-49.49
895.594	-10.58
895.764	30.38
895.935	5.8
896.106	-14.68
896.276	-33.11
896.447	52.91
896.617	-47.44
896.788	-43.35
896.958	-10.58
897.129	-18.77
897.299	-63.83
897.47	104.11
897.64	120.49
897.81	-22.87
897.981	-18.77
898.151	-63.83
898.322	-65.88
898.492	40.62
898.662	-65.88
898.832	-63.83
899.003	13.99
899.173	-0.34
899.343	-37.2
899.513	-67.92
