Data from USB4F104151__36__12-11-59-208.txt Node

Date: Fri Mar 14 12:11:59 EDT 2025
User: louis
Spectrometer: USB4F10415
Trigger mode: 4
Integration Time (sec): 5.000000E-2
Scans to average: 1
Electric dark correction enabled: true
Nonlinearity correction enabled: false
Boxcar width: 0
XAxis mode: Wavelengths
Number of Pixels in Spectrum: 3648
>>>>>Begin Spectral Data<<<<<
178.204	-295.59
178.424	-295.59
178.644	-295.59
178.864	-215.72
179.084	-219.82
179.304	1.37
179.524	-21.16
179.744	46.42
179.964	50.52
180.184	5.46
180.404	-33.45
180.624	-21.16
180.844	-37.55
181.064	-84.65
181.283	9.56
181.503	15.7
181.723	68.95
181.943	-62.12
182.163	56.66
182.383	5.46
182.602	42.32
182.822	89.43
183.042	1.37
183.262	5.46
183.482	-82.6
183.701	23.89
183.921	-10.92
184.141	-86.7
184.361	44.37
184.58	-21.16
184.8	-27.31
185.02	-4.78
185.239	19.8
185.459	83.28
185.679	97.62
185.898	-60.07
186.118	58.71
186.338	-19.11
186.557	68.95
186.777	23.89
186.997	-0.68
187.216	-86.7
187.436	50.52
187.655	64.85
187.875	-27.31
188.095	5.46
188.314	-29.35
188.534	89.43
188.753	5.46
188.973	-37.55
189.192	130.39
189.412	17.75
189.631	93.52
189.851	-58.03
190.07	105.81
190.29	-49.83
190.509	3.41
190.729	-17.07
190.948	105.81
191.168	179.54
191.387	25.94
191.607	-19.11
191.826	-0.68
192.045	-6.83
192.265	34.13
192.484	11.61
192.704	-47.79
192.923	25.94
193.142	81.24
193.362	77.14
193.581	60.76
193.8	21.85
194.02	81.24
194.239	-2.73
194.458	-27.31
194.678	79.19
194.897	-0.68
195.116	85.33
195.335	50.52
195.555	81.24
195.774	27.99
195.993	17.75
196.212	-33.45
196.432	-31.4
196.651	3.41
196.87	19.8
197.089	161.11
197.308	17.75
197.528	136.53
197.747	-88.75
197.966	15.7
198.185	87.38
198.404	-23.21
198.623	77.14
198.842	15.7
199.062	48.47
199.281	-4.78
199.5	32.08
199.719	21.85
199.938	-2.73
200.157	11.61
200.376	58.71
200.595	144.72
200.814	64.85
201.033	-92.84
201.252	79.19
201.471	7.51
201.69	19.8
201.909	3.41
202.128	25.94
202.347	50.52
202.566	-2.73
202.785	27.99
203.004	27.99
203.223	144.72
203.442	21.85
203.661	-45.74
203.879	13.65
204.098	46.42
204.317	-4.78
204.536	15.7
204.755	-0.68
204.974	23.89
205.193	-43.69
205.411	159.06
205.63	52.56
205.849	-6.83
206.068	75.09
206.287	-15.02
206.505	73.04
206.724	1.37
206.943	-58.03
207.162	27.99
207.381	42.32
207.599	-45.74
207.818	-19.11
208.037	11.61
208.255	-33.45
208.474	21.85
208.693	48.47
208.911	-8.87
209.13	50.52
209.349	87.38
209.567	120.15
209.786	122.2
210.005	38.23
210.223	56.66
210.442	-119.46
210.661	27.99
210.879	-4.78
211.098	-19.11
211.316	19.8
211.535	42.32
211.753	44.37
211.972	30.04
212.191	73.04
212.409	34.13
212.628	58.71
212.846	-15.02
213.065	30.04
213.283	32.08
213.502	54.61
213.72	-8.87
213.938	-21.16
214.157	27.99
214.375	3.41
214.594	-17.07
214.812	-12.97
215.031	-33.45
215.249	25.94
215.467	-35.5
215.686	5.46
215.904	60.76
216.122	-2.73
216.341	50.52
216.559	-119.46
216.778	30.04
216.996	25.94
217.214	3.41
217.432	3.41
217.651	-27.31
217.869	3.41
218.087	-39.59
218.306	5.46
218.524	-29.35
218.742	-12.97
218.96	-27.31
219.179	-29.35
219.397	-37.55
219.615	126.29
219.833	19.8
220.051	15.7
220.27	81.24
220.488	93.52
220.706	44.37
220.924	-0.68
221.142	5.46
221.36	-2.73
221.578	-12.97
221.796	73.04
222.015	62.8
222.233	34.13
222.451	128.34
222.669	-115.37
222.887	23.89
223.105	-33.45
223.323	17.75
223.541	-45.74
223.759	60.76
223.977	17.75
224.195	101.72
224.413	15.7
224.631	21.85
224.849	3.41
225.067	99.67
225.285	-21.16
225.503	7.51
225.721	-39.59
225.939	-49.83
226.157	42.32
226.375	136.53
226.592	32.08
226.81	-62.12
227.028	120.15
227.246	91.48
227.464	34.13
227.682	105.81
227.9	58.71
228.117	-45.74
228.335	-25.26
228.553	3.41
228.771	15.7
228.989	7.51
229.206	19.8
229.424	36.18
229.642	27.99
229.86	-31.4
230.077	44.37
230.295	-25.26
230.513	-2.73
230.731	58.71
230.948	81.24
231.166	87.38
231.384	36.18
231.601	-80.55
231.819	103.76
232.037	-0.68
232.254	-15.02
232.472	27.99
232.689	5.46
232.907	75.09
233.125	50.52
233.342	13.65
233.56	-0.68
233.777	-6.83
233.995	32.08
234.213	101.72
234.43	52.56
234.648	42.32
234.865	13.65
235.083	25.94
235.3	21.85
235.518	-8.87
235.735	42.32
235.953	75.09
236.17	38.23
236.388	13.65
236.605	34.13
236.822	71
237.04	81.24
237.257	50.52
237.475	-92.84
237.692	42.32
237.909	19.8
238.127	-17.07
238.344	15.7
238.562	54.61
238.779	-109.22
238.996	-17.07
239.214	56.66
239.431	83.28
239.648	30.04
239.865	19.8
240.083	60.76
240.3	62.8
240.517	-62.12
240.735	85.33
240.952	19.8
241.169	62.8
241.386	7.51
241.603	-31.4
241.821	-27.31
242.038	36.18
242.255	19.8
242.472	44.37
242.689	-21.16
242.907	62.8
243.124	30.04
243.341	15.7
243.558	-23.21
243.775	-88.75
243.992	-12.97
244.209	44.37
244.426	73.04
244.643	62.8
244.86	38.23
245.078	7.51
245.295	-80.55
245.512	-4.78
245.729	-55.98
245.946	-19.11
246.163	66.9
246.38	38.23
246.597	25.94
246.814	-19.11
247.031	58.71
247.248	38.23
247.464	-10.92
247.681	-2.73
247.898	-62.12
248.115	-45.74
248.332	-27.31
248.549	27.99
248.766	50.52
248.983	40.28
249.2	34.13
249.417	44.37
249.633	-49.83
249.85	99.67
250.067	34.13
250.284	3.41
250.501	62.8
250.717	99.67
250.934	-47.79
251.151	-0.68
251.368	60.76
251.585	54.61
251.801	1.37
252.018	-0.68
252.235	32.08
252.451	-35.5
252.668	-29.35
252.885	87.38
253.102	85.33
253.318	25.94
253.535	81.24
253.752	68.95
253.968	-43.69
254.185	25.94
254.401	9.56
254.618	-6.83
254.835	68.95
255.051	73.04
255.268	50.52
255.484	-17.07
255.701	23.89
255.917	54.61
256.134	60.76
256.351	27.99
256.567	46.42
256.784	-0.68
257	-47.79
257.217	64.85
257.433	27.99
257.65	27.99
257.866	93.52
258.082	-98.99
258.299	-53.93
258.515	68.95
258.732	17.75
258.948	-60.07
259.165	17.75
259.381	-4.78
259.597	124.24
259.814	-8.87
260.03	27.99
260.246	-37.55
260.463	30.04
260.679	75.09
260.895	-4.78
261.112	60.76
261.328	1.37
261.544	-12.97
261.761	150.87
261.977	21.85
262.193	17.75
262.409	25.94
262.626	60.76
262.842	-27.31
263.058	40.28
263.274	-33.45
263.49	-4.78
263.707	17.75
263.923	54.61
264.139	-0.68
264.355	7.51
264.571	11.61
264.787	11.61
265.004	50.52
265.22	23.89
265.436	15.7
265.652	-37.55
265.868	-27.31
266.084	-8.87
266.3	-6.83
266.516	-25.26
266.732	46.42
266.948	-23.21
267.164	9.56
267.38	62.8
267.596	13.65
267.812	62.8
268.028	64.85
268.244	-60.07
268.46	30.04
268.676	89.43
268.892	25.94
269.108	-2.73
269.324	38.23
269.54	7.51
269.756	101.72
269.972	-70.31
270.188	32.08
270.403	-35.5
270.619	30.04
270.835	-27.31
271.051	9.56
271.267	-43.69
271.483	11.61
271.698	89.43
271.914	7.51
272.13	54.61
272.346	-4.78
272.562	25.94
272.777	73.04
272.993	-47.79
273.209	-33.45
273.425	46.42
273.64	9.56
273.856	103.76
274.072	-12.97
274.287	-39.59
274.503	-8.87
274.719	23.89
274.934	34.13
275.15	-17.07
275.366	56.66
275.581	40.28
275.797	-10.92
276.012	46.42
276.228	7.51
276.444	17.75
276.659	120.15
276.875	-55.98
277.09	19.8
277.306	7.51
277.521	58.71
277.737	5.46
277.952	19.8
278.168	9.56
278.383	30.04
278.599	46.42
278.814	83.28
279.03	68.95
279.245	101.72
279.461	-29.35
279.676	17.75
279.892	-35.5
280.107	-33.45
280.322	7.51
280.538	62.8
280.753	-45.74
280.969	60.76
281.184	21.85
281.399	54.61
281.615	15.7
281.83	27.99
282.045	-45.74
282.26	-58.03
282.476	11.61
282.691	27.99
282.906	48.47
283.122	58.71
283.337	-17.07
283.552	42.32
283.767	-107.18
283.983	9.56
284.198	-84.65
284.413	136.53
284.628	-66.22
284.843	30.04
285.058	15.7
285.274	93.52
285.489	-78.51
285.704	134.48
285.919	-23.21
286.134	9.56
286.349	-10.92
286.564	23.89
286.779	85.33
286.995	19.8
287.21	-27.31
287.425	68.95
287.64	-37.55
287.855	3.41
288.07	-12.97
288.285	19.8
288.5	87.38
288.715	99.67
288.93	60.76
289.145	-35.5
289.36	87.38
289.575	-19.11
289.79	-4.78
290.004	19.8
290.219	11.61
290.434	-41.64
290.649	-29.35
290.864	-29.35
291.079	-8.87
291.294	13.65
291.509	30.04
291.724	-4.78
291.938	-21.16
292.153	-29.35
292.368	-8.87
292.583	-23.21
292.798	71
293.012	-55.98
293.227	46.42
293.442	19.8
293.657	75.09
293.871	15.7
294.086	62.8
294.301	101.72
294.516	52.56
294.73	42.32
294.945	-84.65
295.16	11.61
295.374	109.91
295.589	71
295.804	27.99
296.018	27.99
296.233	79.19
296.447	-23.21
296.662	-21.16
296.877	124.24
297.091	5.46
297.306	42.32
297.52	15.7
297.735	32.08
297.949	13.65
298.164	30.04
298.378	-19.11
298.593	-101.03
298.807	-45.74
299.022	44.37
299.236	46.42
299.451	-70.31
299.665	-19.11
299.88	48.47
300.094	-10.92
300.309	-29.35
300.523	42.32
300.737	-21.16
300.952	48.47
301.166	42.32
301.381	-68.27
301.595	-43.69
301.809	-19.11
302.024	-37.55
302.238	-47.79
302.452	40.28
302.667	30.04
302.881	36.18
303.095	95.57
303.309	62.8
303.524	77.14
303.738	32.08
303.952	3.41
304.166	62.8
304.381	-74.41
304.595	136.53
304.809	-33.45
305.023	-37.55
305.237	105.81
305.452	-66.22
305.666	36.18
305.88	25.94
306.094	1.37
306.308	85.33
306.522	23.89
306.736	1.37
306.95	32.08
307.164	103.76
307.379	40.28
307.593	25.94
307.807	42.32
308.021	27.99
308.235	1.37
308.449	-21.16
308.663	48.47
308.877	136.53
309.091	71
309.305	103.76
309.519	-51.88
309.733	46.42
309.947	-41.64
310.161	-55.98
310.374	27.99
310.588	114
310.802	-6.83
311.016	3.41
311.23	9.56
311.444	15.7
311.658	9.56
311.872	118.1
312.085	68.95
312.299	-4.78
312.513	42.32
312.727	-60.07
312.941	-8.87
313.154	50.52
313.368	-47.79
313.582	-39.59
313.796	-27.31
314.009	-0.68
314.223	79.19
314.437	3.41
314.651	36.18
314.864	-86.7
315.078	-10.92
315.292	-23.21
315.505	-23.21
315.719	60.76
315.933	40.28
316.146	27.99
316.36	-12.97
316.573	60.76
316.787	44.37
317.001	44.37
317.214	-45.74
317.428	15.7
317.641	13.65
317.855	-12.97
318.068	5.46
318.282	32.08
318.495	114
318.709	15.7
318.922	-0.68
319.136	83.28
319.349	58.71
319.563	50.52
319.776	54.61
319.99	-0.68
320.203	21.85
320.417	-8.87
320.63	-47.79
320.843	77.14
321.057	-31.4
321.27	36.18
321.483	-21.16
321.697	83.28
321.91	-31.4
322.124	-64.17
322.337	-2.73
322.55	-29.35
322.763	9.56
322.977	58.71
323.19	54.61
323.403	30.04
323.617	9.56
323.83	87.38
324.043	25.94
324.256	11.61
324.469	-12.97
324.683	91.48
324.896	-62.12
325.109	15.7
325.322	3.41
325.535	42.32
325.748	73.04
325.962	-0.68
326.175	-25.26
326.388	-17.07
326.601	9.56
326.814	-49.83
327.027	34.13
327.24	62.8
327.453	-45.74
327.666	75.09
327.879	73.04
328.092	97.62
328.305	5.46
328.518	-68.27
328.731	7.51
328.944	25.94
329.157	3.41
329.37	-31.4
329.583	54.61
329.796	91.48
330.009	-10.92
330.222	52.56
330.435	46.42
330.648	1.37
330.861	54.61
331.073	32.08
331.286	42.32
331.499	-53.93
331.712	-8.87
331.925	-47.79
332.138	27.99
332.35	-12.97
332.563	1.37
332.776	34.13
332.989	-70.31
333.202	-23.21
333.414	27.99
333.627	11.61
333.84	52.56
334.053	5.46
334.265	-6.83
334.478	-10.92
334.691	-25.26
334.903	11.61
335.116	3.41
335.329	75.09
335.541	-0.68
335.754	56.66
335.966	17.75
336.179	68.95
336.392	-23.21
336.604	91.48
336.817	85.33
337.029	-17.07
337.242	-8.87
337.454	-0.68
337.667	-17.07
337.88	99.67
338.092	58.71
338.305	138.58
338.517	-33.45
338.729	58.71
338.942	109.91
339.154	30.04
339.367	-43.69
339.579	68.95
339.792	-53.93
340.004	64.85
340.217	23.89
340.429	68.95
340.641	34.13
340.854	-6.83
341.066	19.8
341.278	118.1
341.491	171.35
341.703	75.09
341.915	-4.78
342.128	5.46
342.34	-2.73
342.552	7.51
342.764	46.42
342.977	46.42
343.189	-27.31
343.401	-10.92
343.613	-12.97
343.826	9.56
344.038	3.41
344.25	-2.73
344.462	-15.02
344.674	38.23
344.886	-6.83
345.099	32.08
345.311	52.56
345.523	1.37
345.735	7.51
345.947	17.75
346.159	3.41
346.371	46.42
346.583	-21.16
346.795	111.96
347.007	-35.5
347.219	13.65
347.431	32.08
347.643	60.76
347.855	64.85
348.067	87.38
348.279	23.89
348.491	-53.93
348.703	19.8
348.915	19.8
349.127	-29.35
349.339	21.85
349.551	-8.87
349.763	13.65
349.975	-45.74
350.187	66.9
350.399	107.86
350.61	54.61
350.822	87.38
351.034	34.13
351.246	36.18
351.458	73.04
351.669	73.04
351.881	3.41
352.093	85.33
352.305	89.43
352.517	50.52
352.728	32.08
352.94	38.23
353.152	95.57
353.363	17.75
353.575	5.46
353.787	36.18
353.999	66.9
354.21	126.29
354.422	38.23
354.633	44.37
354.845	19.8
355.057	-17.07
355.268	23.89
355.48	40.28
355.692	9.56
355.903	13.65
356.115	-4.78
356.326	-15.02
356.538	109.91
356.749	60.76
356.961	42.32
357.172	-15.02
357.384	-76.46
357.595	75.09
357.807	-105.13
358.018	62.8
358.23	62.8
358.441	136.53
358.653	-4.78
358.864	-10.92
359.075	-51.88
359.287	62.8
359.498	32.08
359.709	7.51
359.921	36.18
360.132	132.44
360.344	-10.92
360.555	-8.87
360.766	58.71
360.977	17.75
361.189	11.61
361.4	-72.36
361.611	21.85
361.823	91.48
362.034	21.85
362.245	-29.35
362.456	-12.97
362.667	58.71
362.879	54.61
363.09	-2.73
363.301	103.76
363.512	62.8
363.723	13.65
363.935	-0.68
364.146	71
364.357	58.71
364.568	122.2
364.779	-25.26
364.99	99.67
365.201	-25.26
365.412	116.05
365.623	-49.83
365.834	97.62
366.045	-8.87
366.256	58.71
366.467	-15.02
366.678	40.28
366.889	60.76
367.1	79.19
367.311	54.61
367.522	17.75
367.733	73.04
367.944	75.09
368.155	48.47
368.366	42.32
368.577	77.14
368.788	118.1
368.999	9.56
369.209	58.71
369.42	136.53
369.631	136.53
369.842	9.56
370.053	-10.92
370.264	46.42
370.474	7.51
370.685	15.7
370.896	79.19
371.107	81.24
371.317	68.95
371.528	-82.6
371.739	107.86
371.95	23.89
372.16	77.14
372.371	-51.88
372.582	-15.02
372.792	105.81
373.003	146.77
373.214	-6.83
373.424	91.48
373.635	-27.31
373.846	120.15
374.056	-0.68
374.267	71
374.477	89.43
374.688	-0.68
374.898	-8.87
375.109	50.52
375.319	9.56
375.53	138.58
375.74	118.1
375.951	40.28
376.161	36.18
376.372	99.67
376.582	-15.02
376.793	95.57
377.003	-15.02
377.214	-0.68
377.424	3.41
377.635	91.48
377.845	-15.02
378.055	-4.78
378.266	-2.73
378.476	75.09
378.686	36.18
378.897	101.72
379.107	11.61
379.317	54.61
379.528	30.04
379.738	91.48
379.948	11.61
380.158	75.09
380.369	-6.83
380.579	109.91
380.789	64.85
380.999	95.57
381.21	85.33
381.42	181.59
381.63	-70.31
381.84	107.86
382.05	58.71
382.261	118.1
382.471	79.19
382.681	56.66
382.891	99.67
383.101	11.61
383.311	9.56
383.521	30.04
383.731	73.04
383.941	52.56
384.151	87.38
384.361	-45.74
384.571	46.42
384.781	48.47
384.991	107.86
385.201	111.96
385.411	87.38
385.621	97.62
385.831	3.41
386.041	32.08
386.251	95.57
386.461	-6.83
386.671	30.04
386.881	75.09
387.091	-55.98
387.301	132.44
387.511	89.43
387.72	54.61
387.93	23.89
388.14	-15.02
388.35	66.9
388.56	111.96
388.769	38.23
388.979	50.52
389.189	46.42
389.399	50.52
389.609	56.66
389.818	58.71
390.028	23.89
390.238	165.2
390.447	-45.74
390.657	50.52
390.867	83.28
391.076	21.85
391.286	71
391.496	73.04
391.705	42.32
391.915	130.39
392.125	103.76
392.334	23.89
392.544	105.81
392.753	66.9
392.963	-15.02
393.172	107.86
393.382	-58.03
393.591	103.76
393.801	-15.02
394.01	148.82
394.22	109.91
394.429	40.28
394.639	128.34
394.848	111.96
395.058	103.76
395.267	62.8
395.477	118.1
395.686	83.28
395.895	101.72
396.105	169.3
396.314	52.56
396.524	36.18
396.733	9.56
396.942	95.57
397.152	34.13
397.361	181.59
397.57	48.47
397.78	40.28
397.989	197.97
398.198	189.78
398.407	27.99
398.617	114
398.826	-0.68
399.035	85.33
399.244	130.39
399.453	40.28
399.663	111.96
399.872	138.58
400.081	85.33
400.29	167.25
400.499	130.39
400.708	101.72
400.917	85.33
401.127	114
401.336	77.14
401.545	202.07
401.754	122.2
401.963	118.1
402.172	148.82
402.381	30.04
402.59	56.66
402.799	38.23
403.008	132.44
403.217	103.76
403.426	73.04
403.635	-8.87
403.844	134.48
404.053	103.76
404.262	111.96
404.471	216.4
404.68	202.07
404.888	79.19
405.097	97.62
405.306	97.62
405.515	130.39
405.724	138.58
405.933	187.73
406.142	202.07
406.35	228.69
406.559	173.39
406.768	183.63
406.977	224.59
407.185	238.93
407.394	169.3
407.603	132.44
407.812	132.44
408.02	261.46
408.229	214.35
408.438	257.36
408.646	191.83
408.855	277.84
409.064	271.7
409.272	290.13
409.481	386.38
409.69	247.12
409.898	243.03
410.107	304.46
410.315	259.41
410.524	271.7
410.733	365.9
410.941	392.53
411.15	406.86
411.358	357.71
411.567	435.53
411.775	439.63
411.984	417.1
412.192	517.45
412.401	425.29
412.609	539.98
412.818	476.49
413.026	505.17
413.234	503.12
413.443	548.17
413.651	472.4
413.86	578.89
414.068	617.8
414.276	632.14
414.485	595.28
414.693	664.91
414.901	783.69
415.11	726.35
415.318	705.87
415.526	724.3
415.734	841.03
415.943	793.93
416.151	871.75
416.359	838.98
416.567	804.17
416.776	937.29
416.984	906.57
417.192	1062.21
417.4	951.62
417.608	920.9
417.817	1023.3
418.025	1074.5
418.233	1185.09
418.441	1004.87
418.649	1144.13
418.857	1312.07
419.065	1307.97
419.273	1203.52
419.481	1353.02
419.689	1467.71
419.897	1561.92
420.105	1434.94
420.313	1580.35
420.521	1705.28
420.729	1656.12
420.937	1658.17
421.145	1760.57
421.353	1867.06
421.561	1928.5
421.769	1983.8
421.977	2143.54
422.185	1975.61
422.393	2245.94
422.601	2233.65
422.809	2315.57
423.017	2219.32
423.224	2448.69
423.432	2602.29
423.64	2518.32
423.848	2741.55
424.056	2614.57
424.263	2868.52
424.471	2923.82
424.679	3001.64
424.887	3083.56
425.094	3198.24
425.302	3269.92
425.51	3317.03
425.718	3396.9
425.925	3478.82
426.133	3470.62
426.341	3716.38
426.548	3867.93
426.756	3990.81
426.964	3960.09
427.171	4250.9
427.379	4261.14
427.586	4365.59
427.794	4455.7
428.001	4918.54
428.209	4875.53
428.417	4975.88
428.624	5242.12
428.832	5217.54
429.039	5154.05
429.247	5168.39
429.454	5702.91
429.662	6067.45
429.869	5682.43
430.076	5989.63
430.284	5913.85
430.491	6100.22
430.699	6692.08
430.906	6495.47
431.114	6575.35
431.321	6864.11
431.528	6870.25
431.736	7349.48
431.943	7666.91
432.15	7628
432.358	7652.58
432.565	8187.1
432.772	7961.82
432.979	8391.89
433.187	8619.22
433.394	8469.72
433.601	9114.83
433.808	9340.1
434.016	9075.91
434.223	9393.35
434.43	9995.45
434.637	9735.36
434.844	10525.88
435.052	10724.53
435.259	10667.19
435.466	10644.66
435.673	10650.8
435.88	11316.39
436.087	11988.13
436.294	11953.31
436.501	11529.38
436.708	11996.32
436.915	12428.44
437.122	12895.38
437.329	12760.21
437.537	13321.35
437.743	13448.33
437.95	13282.44
438.157	14095.49
438.364	14417.02
438.571	14435.45
438.778	14718.07
438.985	16163.93
439.192	15340.65
439.399	15740.01
439.606	15451.24
439.813	16354.4
440.02	17069.14
440.227	16929.88
440.433	16757.85
440.64	17255.5
440.847	17429.58
441.054	17689.67
441.261	18895.92
441.467	18506.81
441.674	19110.96
441.881	19844.13
442.088	19397.68
442.294	19256.37
442.501	19905.57
442.708	20374.56
442.914	21251.09
443.121	21967.88
443.328	21488.65
443.534	22934.52
443.741	22230.02
443.948	21853.19
444.154	23880.68
444.361	23313.39
444.568	23962.6
444.774	23716.84
444.981	24017.89
445.187	24685.53
445.394	25891.79
445.6	25492.43
445.807	27900.84
446.013	26887.1
446.22	27116.47
446.426	28427.17
446.633	28187.56
446.839	29705.1
447.046	28271.53
447.252	29887.37
447.459	29627.28
447.665	29868.94
447.871	31277.94
448.078	32564.07
448.284	30942.08
448.491	31656.82
448.697	33061.72
448.903	33571.67
449.11	33227.61
449.316	33043.29
449.522	33586
449.728	34569.03
449.935	34509.64
450.141	34865.99
450.347	35935.02
450.553	34732.87
450.76	35023.68
450.966	36117.29
451.172	35414.84
451.378	36191.02
451.584	36408.11
451.791	37036.83
451.997	36645.67
452.203	37274.4
452.409	37133.09
452.615	37073.7
452.821	35566.39
453.027	35304.25
453.233	37024.54
453.44	35722.04
453.646	35988.27
453.852	36229.93
454.058	37036.83
454.264	35560.25
454.47	36412.2
454.676	35664.69
454.882	36852.51
455.088	33809.23
455.294	34145.1
455.5	34730.82
455.705	35078.97
455.911	33495.89
456.117	33215.32
456.323	32539.49
456.529	31056.76
456.735	32408.42
456.941	31230.84
457.147	30829.44
457.352	29825.93
457.558	29768.59
457.764	29684.62
457.97	29209.5
458.176	28525.47
458.381	28500.9
458.587	27075.51
458.793	26983.35
458.999	25603.02
459.204	27538.35
459.41	26729.41
459.616	25330.64
459.821	24689.63
460.027	24929.24
460.233	24370.15
460.438	23198.71
460.644	23432.18
460.85	22615.04
461.055	22012.93
461.261	21947.4
461.466	20339.74
461.672	19682.34
461.878	21085.2
462.083	19653.67
462.289	19248.18
462.494	19233.84
462.7	18183.23
462.905	17873.99
463.111	18441.28
463.316	18515
463.522	17880.13
463.727	18031.68
463.932	18172.99
464.138	17904.71
464.343	18050.11
464.549	17421.39
464.754	18117.7
464.959	17921.09
465.165	17529.93
465.37	16936.02
465.575	16755.8
465.781	17120.34
465.986	17228.88
466.191	16675.93
466.397	16471.13
466.602	15627.37
466.807	16262.24
467.012	16499.8
467.218	15967.33
467.423	16057.44
467.628	16215.13
467.833	16397.4
468.038	16211.04
468.244	15514.73
468.449	16065.63
468.654	15705.19
468.859	15516.78
469.064	15334.51
469.269	14982.26
469.474	14988.4
469.679	15510.63
469.885	14861.43
470.09	15078.51
470.295	14795.89
470.5	14652.53
470.705	14705.78
470.91	14275.71
471.115	14167.17
471.32	14390.39
471.525	14503.03
471.73	14122.11
471.935	13550.73
472.139	13405.32
472.344	13735.04
472.549	13593.73
472.754	13425.8
472.959	13298.83
473.164	12813.46
473.369	12702.87
473.574	13040.78
473.778	12829.84
473.983	12905.62
474.188	12907.66
474.393	12188.83
474.598	12151.96
474.802	12151.96
475.007	12256.41
475.212	12117.15
475.417	11580.58
475.621	11799.71
475.826	11785.38
476.031	11447.46
476.235	11306.15
476.44	11607.2
476.645	11306.15
476.849	11119.79
477.054	11189.42
477.259	10771.63
477.463	11056.3
477.668	10734.77
477.872	10800.3
478.077	10677.43
478.282	10374.33
478.486	10396.85
478.691	10138.81
478.895	10280.12
479.1	10136.76
479.304	10230.97
479.509	9866.43
479.713	10093.76
479.918	9792.7
480.122	9667.78
480.326	9815.23
480.531	9882.81
480.735	9761.98
480.94	9452.74
481.144	9845.95
481.348	9241.8
481.553	9725.12
481.757	9399.49
481.961	9356.49
482.166	9505.99
482.37	9270.47
482.574	9561.28
482.778	9299.14
482.983	9446.6
483.187	9309.38
483.391	9505.99
483.595	9266.38
483.8	9022.67
484.004	9415.88
484.208	9415.88
484.412	9186.51
484.616	9266.38
484.821	9465.03
485.025	9293
485.229	9200.84
485.433	9358.53
485.637	9286.86
485.841	9192.65
486.045	9364.68
486.249	9442.5
486.453	9288.9
486.657	9317.58
486.861	9362.63
487.065	9317.58
487.269	9297.1
487.473	9135.31
487.677	9438.41
487.881	9499.84
488.085	9379.01
488.289	9346.25
488.493	9485.51
488.697	9436.36
488.901	9440.45
489.105	9274.57
489.309	9411.78
489.512	9376.97
489.716	9358.53
489.92	9694.4
490.124	9278.66
490.328	9680.07
490.531	9424.07
490.735	9710.79
490.939	9524.42
491.143	9514.18
491.346	9544.9
491.55	9718.98
491.754	9626.82
491.958	9854.14
492.161	9712.83
492.365	9954.49
492.569	9804.99
492.772	9741.5
492.976	10108.09
493.18	9919.68
493.383	10095.8
493.587	10081.47
493.79	10407.09
493.994	10220.73
494.197	10104
494.401	10329.27
494.605	10362.04
494.808	10359.99
495.012	10507.44
495.215	10519.73
495.419	10405.05
495.622	10658.99
495.825	10785.97
496.029	11003.05
496.232	10966.19
496.436	10865.84
496.639	11197.61
496.843	11308.2
497.046	11390.12
497.249	11553.96
497.453	11529.38
497.656	11756.71
497.859	11656.36
498.063	11701.41
498.266	12047.52
498.469	12070.05
498.673	12086.43
498.876	12297.37
499.079	12360.86
499.282	12469.4
499.485	12623
499.689	12774.55
499.892	12885.14
500.095	12993.68
500.298	13413.51
500.501	13036.69
500.705	13743.24
500.908	13716.61
501.111	13819.01
501.314	13769.86
501.517	14052.48
501.72	14230.65
501.923	14142.59
502.126	14353.53
502.329	14857.33
502.532	14543.99
502.735	15004.78
502.938	15197.29
503.141	15234.16
503.344	15377.51
503.547	15463.53
503.75	15684.71
503.953	15985.76
504.156	16231.52
504.359	16221.28
504.562	16192.61
504.765	16563.29
504.968	16786.52
505.17	16815.19
505.373	17062.99
505.576	17151.06
505.779	17255.5
505.982	17353.8
506.185	17820.74
506.387	17902.66
506.59	17886.28
506.793	18248.77
506.996	18410.56
507.198	18838.58
507.401	18705.46
507.604	18877.49
507.807	19430.44
508.009	19467.31
508.212	19487.79
508.415	19655.72
508.617	19786.79
508.82	20134.95
509.022	19993.64
509.225	20509.72
509.428	20765.72
509.63	20825.11
509.833	20681.75
510.035	21429.26
510.238	21279.76
510.44	21486.61
510.643	22019.08
510.845	22217.73
511.048	21765.13
511.25	22305.79
511.453	22391.81
511.655	23069.69
511.858	22799.35
512.06	23118.84
512.262	23440.37
512.465	23118.84
512.667	23886.82
512.87	23999.46
513.072	24050.66
513.274	24314.85
513.477	24431.58
513.679	24581.09
513.881	24724.44
514.084	24663
514.286	25084.89
514.488	24998.87
514.69	25805.77
514.893	25750.48
515.095	25811.92
515.297	26297.28
515.499	26424.26
515.701	26303.43
515.904	27134.9
516.106	27200.44
516.308	27311.03
516.51	27421.62
516.712	27095.99
516.914	27812.78
517.116	28124.07
517.318	28095.4
517.52	28335.01
517.722	28375.97
517.925	28951.45
518.127	28961.69
518.329	29442.96
518.531	29141.91
518.733	29809.55
518.935	29840.27
519.136	29469.59
519.338	29821.84
519.54	29887.37
519.742	30772.1
519.944	30550.92
520.146	31198.07
520.348	31103.87
520.55	31392.63
520.752	31353.72
520.954	31753.07
521.155	31456.12
521.357	32289.64
521.559	32236.39
521.761	32463.72
521.963	32359.27
522.164	32580.45
522.366	32711.52
522.568	33084.25
522.77	33295.19
522.971	33354.58
523.173	33194.84
523.375	33551.19
523.576	33586
523.778	33579.86
523.98	34095.95
524.181	34259.79
524.383	34098
524.584	34489.16
524.786	34501.45
524.988	34446.15
525.189	34675.52
525.391	35124.03
525.592	35038.01
525.794	35103.55
525.995	34952
526.197	34857.79
526.398	35324.73
526.6	35810.1
526.801	35636.02
527.003	35562.29
527.204	35932.98
527.406	35941.17
527.607	36107.05
527.808	36051.76
528.01	35572.53
528.211	35586.87
528.412	36506.41
528.614	36447.02
528.815	36297.52
529.016	36590.38
529.218	35879.73
529.419	36156.21
529.62	36225.84
529.822	36369.19
530.023	36373.29
530.224	36565.8
530.425	36428.59
530.626	36297.52
530.828	35937.07
531.029	36963.11
531.23	36469.54
531.431	36447.02
531.632	36492.07
531.833	36610.85
532.035	36520.74
532.236	36340.52
532.437	36946.72
532.638	36911.91
532.839	36885.28
533.04	36887.33
533.241	36604.71
533.442	36967.2
533.643	36975.39
533.844	36926.24
534.045	36938.53
534.246	36557.61
534.447	37122.85
534.648	36623.14
534.849	36762.4
535.05	36277.04
535.251	36700.97
535.451	36815.65
535.652	36737.83
535.853	36418.35
536.054	36875.04
536.255	36598.57
536.456	36338.47
536.657	36916
536.857	36592.42
537.058	36836.13
537.259	36780.84
537.46	36811.56
537.66	36498.22
537.861	36817.7
538.062	36418.35
538.263	36868.9
538.463	36821.8
538.664	36453.16
538.865	36709.16
539.065	36551.46
539.266	36057.9
539.466	36840.23
539.667	36090.67
539.868	36731.68
540.068	36932.39
540.269	36272.94
540.469	36760.36
540.67	36406.06
540.87	36635.43
541.071	36629.29
541.271	36805.41
541.472	36756.26
541.672	36332.33
541.873	36399.91
542.073	36135.73
542.274	36821.8
542.474	36406.06
542.675	36154.16
542.875	36653.86
543.075	36424.49
543.276	35986.22
543.476	36856.61
543.676	36156.21
543.877	36467.5
544.077	36268.84
544.277	36358.95
544.478	36660.01
544.678	36342.57
544.878	36381.48
545.078	36401.96
545.279	35932.98
545.479	36143.92
545.679	36291.37
545.879	36530.98
546.079	36330.28
546.28	36473.64
546.48	36143.92
546.68	36057.9
546.88	36426.54
547.08	36526.89
547.28	36305.71
547.48	36168.49
547.68	36098.86
547.88	35916.59
548.081	36125.49
548.281	36168.49
548.481	36045.62
548.681	36297.52
548.881	35836.72
549.081	36328.24
549.28	35689.27
549.48	36371.24
549.68	35621.69
549.88	36274.99
550.08	35957.55
550.28	36246.32
550.48	36152.11
550.68	36404.01
550.88	36119.34
551.08	36199.21
551.279	36291.37
551.479	35924.79
551.679	35902.26
551.879	35662.65
552.079	36406.06
552.278	35885.87
552.478	36254.51
552.678	36188.97
552.878	36111.15
553.077	36240.17
553.277	35902.26
553.477	36199.21
553.676	35648.31
553.876	36150.06
554.076	35851.06
554.275	35791.67
554.475	35500.86
554.674	35730.23
554.874	36074.29
555.074	35816.24
555.273	35873.59
555.473	35840.82
555.672	35550.01
555.872	35654.45
556.071	36180.78
556.271	36105.01
556.47	35763
556.67	35388.22
556.869	35875.63
557.068	35988.27
557.268	35777.33
557.467	35793.72
557.667	35564.34
557.866	35615.54
558.065	35486.52
558.265	35613.49
558.464	35656.5
558.663	35971.89
558.863	35750.71
559.062	36186.93
559.261	35312.44
559.461	35808.05
559.66	35513.14
559.859	35697.46
560.058	35732.28
560.258	35507
560.457	35316.54
560.656	36131.63
560.855	35236.67
561.054	35963.7
561.253	35099.45
561.453	35607.35
561.652	35361.59
561.851	35955.5
562.05	35601.21
562.249	35117.89
562.448	35767.09
562.647	35547.96
562.846	35554.1
563.045	35418.94
563.244	34902.85
563.443	35414.84
563.642	35187.52
563.841	35300.15
564.04	35308.35
564.239	35590.97
564.438	34919.23
564.637	35652.41
564.836	35373.88
565.035	35291.96
565.234	35332.92
565.432	35420.98
565.631	34868.03
565.83	35418.94
566.029	35103.55
566.228	35138.37
566.427	35124.03
566.625	35078.97
566.824	35038.01
567.023	35273.53
567.222	34667.33
567.42	35279.67
567.619	35183.42
567.818	34966.34
568.016	34968.38
568.215	35042.11
568.414	35058.49
568.612	35105.6
568.811	34732.87
569.01	35097.41
569.208	34677.57
569.407	34945.86
569.605	34530.12
569.804	34816.83
570.002	34282.31
570.201	34595.65
570.4	34669.38
570.598	34222.92
570.797	34214.73
570.995	34796.35
571.193	34075.47
571.392	34775.87
571.59	34347.85
571.789	34317.13
571.987	34691.91
572.186	34157.39
572.384	34083.66
572.582	34636.61
572.781	34558.79
572.979	34138.96
573.177	34317.13
573.376	34440.01
573.574	33962.83
573.772	34241.35
573.971	33946.45
574.169	34009.93
574.367	33723.22
574.565	34007.89
574.763	33796.95
574.962	33798.99
575.16	33565.53
575.358	33872.72
575.556	33674.07
575.754	33983.31
575.952	33700.69
576.151	33833.81
576.349	33262.43
576.547	33327.96
576.745	33586
576.943	33364.82
577.141	33178.46
577.339	33643.35
577.537	33594.2
577.735	33669.97
577.933	33278.81
578.131	33504.09
578.329	33366.87
578.527	32947.04
578.725	33196.89
578.923	33280.86
579.121	32312.17
579.319	33004.38
579.516	33241.95
579.714	32922.46
579.912	32949.09
580.11	32877.41
580.308	32871.26
580.506	32883.55
580.704	32129.9
580.901	32897.89
581.099	32580.45
581.297	32654.18
581.495	32645.99
581.692	32535.4
581.89	32430.95
582.088	32240.49
582.285	32486.25
582.483	32351.08
582.681	32631.65
582.878	32084.84
583.076	31927.15
583.274	32160.62
583.471	31671.15
583.669	32191.34
583.866	31914.86
584.064	32199.53
584.262	31810.42
584.459	32205.67
584.657	31681.39
584.854	31841.14
585.052	31617.91
585.249	31787.89
585.447	32004.97
585.644	31470.45
585.841	31370.1
586.039	32000.88
586.236	31015.8
586.434	31191.93
586.631	30991.23
586.828	31019.9
587.026	31101.82
587.223	31015.8
587.42	31091.58
587.618	30862.21
587.815	30792.58
588.012	30847.87
588.21	30718.85
588.407	31218.55
588.604	30733.18
588.801	30456.71
588.999	30497.67
589.196	30628.74
589.393	30923.65
589.59	30282.63
589.787	30249.86
589.984	30344.07
590.182	30022.54
590.379	30559.11
590.576	30239.62
590.773	30325.64
590.97	29979.53
591.167	29805.45
591.364	29926.28
591.561	29959.05
591.758	29916.04
591.955	29825.93
592.152	29799.31
592.349	29453.2
592.546	29578.13
592.743	29594.51
592.94	29375.38
593.137	29391.76
593.334	29662.1
593.531	29072.28
593.727	29518.74
593.924	29078.43
594.121	28799.9
594.318	29184.92
594.515	28769.18
594.712	28959.64
594.908	28894.11
595.105	29287.32
595.302	28887.96
595.499	28801.95
595.696	28961.69
595.892	28380.07
596.089	28722.08
596.286	28771.23
596.482	28636.06
596.679	28652.45
596.876	28464.03
597.072	28599.2
597.269	28410.79
597.466	28136.36
597.662	28181.42
597.859	27978.67
598.055	28564.39
598.252	28109.74
598.448	28119.98
598.645	28253.09
598.841	27675.57
599.038	28062.63
599.234	27847.6
599.431	27911.08
599.627	27648.94
599.824	27964.33
600.02	27863.98
600.217	27571.12
600.413	27818.92
600.609	27777.97
600.806	27933.61
601.002	27610.03
601.198	27374.52
601.395	27726.77
601.591	27370.42
601.787	27257.78
601.984	27106.23
602.18	27704.24
602.376	27278.26
602.572	27386.8
602.769	27438
602.965	26708.93
603.161	27083.7
603.357	26655.68
603.553	26858.43
603.75	26909.63
603.946	26784.7
604.142	26731.45
604.338	26360.77
604.534	26796.99
604.73	26319.81
604.926	26663.87
605.122	26940.35
605.318	26285
605.514	26278.85
605.71	26287.04
605.906	26315.72
606.102	26211.27
606.298	26395.59
606.494	26565.57
606.69	26485.7
606.886	26217.41
607.082	25918.41
607.278	26364.87
607.474	25945.03
607.67	25967.56
607.866	25957.32
608.062	26203.08
608.257	26164.17
608.453	26141.64
608.649	25953.23
608.845	25701.33
609.041	25805.77
609.236	25783.24
609.432	25848.78
609.628	25635.79
609.824	25637.84
610.019	25658.32
610.215	25893.83
610.411	25666.51
610.606	25435.09
610.802	25805.77
610.998	25742.28
611.193	25603.02
611.389	25617.36
611.584	25500.62
611.78	25256.92
611.976	25328.59
612.171	25351.12
612.367	25707.47
612.562	25283.54
612.758	25271.25
612.953	25215.96
613.149	25713.61
613.344	25101.27
613.539	25572.3
613.735	25349.07
613.93	25351.12
614.126	25248.72
614.321	25560.02
614.517	25265.11
614.712	25121.75
614.907	24994.78
615.103	25056.21
615.298	24824.79
615.493	25011.16
615.688	24624.09
615.884	25285.59
616.079	24773.6
616.274	25088.98
616.47	24923.1
616.665	24871.9
616.86	24611.81
617.055	24751.07
617.25	24472.54
617.445	24693.72
617.641	24259.56
617.836	24832.99
618.031	24118.25
618.226	24474.59
618.421	24290.27
618.616	24581.09
618.811	24232.93
619.006	24411.1
619.201	23761.9
619.396	24144.87
619.591	23649.26
619.786	24148.96
619.981	23448.56
620.176	23905.26
620.371	23698.41
620.566	23825.39
620.761	23620.59
620.956	23913.45
621.151	23290.87
621.346	23530.48
621.541	22887.42
621.735	23282.67
621.93	23137.27
622.125	22936.57
622.32	22858.74
622.515	22647.8
622.709	22289.41
622.904	22778.87
623.099	22354.94
623.294	22539.26
623.488	22184.96
623.683	22316.03
623.878	21869.58
624.072	22184.96
624.267	21916.68
624.462	21877.77
624.656	21746.7
624.851	21627.92
625.046	21468.17
625.24	21015.57
625.435	21271.57
625.629	21320.72
625.824	21167.12
626.018	21388.3
626.213	20624.41
626.407	20841.5
626.602	20519.96
626.796	20837.4
626.991	20681.75
627.185	20454.43
627.38	20315.17
627.574	20235.3
627.768	20007.97
627.963	19876.9
628.157	19848.23
628.352	19967.01
628.546	19676.2
628.74	19768.36
628.935	19733.54
629.129	19412.01
629.323	19147.83
629.517	19098.67
629.712	19309.61
629.906	19405.87
630.1	18889.78
630.294	18889.78
630.489	18588.73
630.683	19016.76
630.877	18822.2
631.071	18443.32
631.265	18541.63
631.459	18244.67
631.653	18279.49
631.848	18269.25
632.042	18156.61
632.236	18299.97
632.43	17890.37
632.624	18125.89
632.818	17761.35
633.012	17443.92
633.206	17452.11
633.4	17617.99
633.594	17505.35
633.788	17646.66
633.982	17507.4
634.176	17271.89
634.369	17224.78
634.563	17288.27
634.757	17026.13
634.951	17222.73
635.145	17081.42
635.339	16895.06
635.533	16690.26
635.726	16837.72
635.92	16479.32
636.114	16307.29
636.308	16299.1
636.501	16430.17
636.695	16034.91
636.889	16059.49
637.083	16145.5
637.276	15977.57
637.47	16147.55
637.664	15795.3
637.857	15653.99
638.051	15760.48
638.244	15357.03
638.438	15393.9
638.632	15357.03
638.825	15297.64
639.019	15520.87
639.212	15393.9
639.406	15385.71
639.599	15131.76
639.793	15137.9
639.986	14726.26
640.18	14900.34
640.373	14849.14
640.567	14619.77
640.76	14587
640.954	14519.42
641.147	14546.04
641.34	14374.01
641.534	14199.93
641.727	14314.62
641.92	14333.05
642.114	14222.46
642.307	14023.81
642.5	13935.74
642.694	13556.87
642.887	13485.19
643.08	14052.48
643.273	13544.58
643.467	13567.11
643.66	13300.87
643.853	13317.26
644.046	13083.79
644.239	13171.85
644.432	13139.08
644.626	13036.69
644.819	13163.66
645.012	12778.64
645.205	12893.33
645.398	12817.55
645.591	12760.21
645.784	12661.91
645.977	12481.69
646.17	12557.46
646.363	12262.55
646.556	12362.9
646.749	12412.06
646.942	12213.4
647.135	12143.77
647.328	12276.89
647.521	12002.46
647.714	11693.22
647.907	11783.33
648.099	11689.12
648.292	11766.95
648.485	11746.47
648.678	11551.91
648.871	11482.28
649.064	11506.85
649.256	11355.3
649.449	11594.92
649.642	11326.63
649.835	11343.02
650.027	11013.29
650.22	11173.03
650.413	11015.34
650.605	11105.45
650.798	10890.42
650.991	10845.36
651.183	10822.83
651.376	10722.48
651.568	10583.22
651.761	10618.04
651.954	10562.74
652.146	10357.94
652.339	10390.71
652.531	10343.61
652.724	10296.5
652.916	10065.08
653.109	10157.24
653.301	10267.83
653.494	10112.19
653.686	9804.99
653.879	10020.03
654.071	9925.82
654.263	9686.21
654.456	9622.72
654.648	9780.42
654.84	9432.26
655.033	9354.44
655.225	9444.55
655.417	9452.74
655.61	9469.12
655.802	9401.54
655.994	9084.11
656.186	9178.31
656.379	9217.22
656.571	9258.18
656.763	8981.71
656.955	8910.03
657.148	8938.7
657.34	8895.69
657.532	8860.88
657.724	8735.95
657.916	8824.01
658.108	8697.04
658.3	8701.14
658.492	8391.89
658.684	8549.59
658.876	8531.16
659.068	8314.07
659.26	8232.15
659.452	8139.99
659.644	8430.8
659.836	8152.28
660.028	8264.92
660.22	8029.4
660.412	8013.02
660.604	7982.3
660.796	8006.88
660.988	8137.95
661.18	8051.93
661.372	7904.48
661.563	7765.21
661.755	7697.63
661.947	7671.01
662.139	7752.93
662.331	7603.43
662.522	7560.42
662.714	7595.23
662.906	7603.43
663.097	7503.07
663.289	7259.37
663.481	7212.26
663.673	7238.89
663.864	7167.21
664.056	7140.58
664.247	7298.28
664.439	7181.54
664.631	7017.71
664.822	7138.54
665.014	7081.19
665.205	7029.99
665.397	6907.12
665.588	6868.2
665.78	6862.06
665.971	6866.16
666.163	6923.5
666.354	6710.51
666.546	6726.89
666.737	6669.55
666.929	6540.53
667.12	6610.16
667.311	6644.98
667.503	6653.17
667.694	6497.52
667.885	6380.79
668.077	6354.16
668.268	6485.23
668.459	6259.96
668.651	6292.73
668.842	6507.76
669.033	6331.64
669.224	6368.5
669.416	6278.39
669.607	6425.84
669.798	6130.94
669.989	6233.33
670.18	6251.77
670.371	6135.03
670.563	5942.52
670.754	5965.05
670.945	6032.63
671.136	6049.02
671.327	5995.77
671.518	6057.21
671.709	5881.08
671.9	5885.18
672.091	5956.86
672.282	6020.35
672.473	5854.46
672.664	5719.29
672.855	5860.6
673.046	5833.98
673.237	5852.41
673.428	5813.5
673.619	5657.85
673.809	5688.57
674	5752.06
674.191	5788.93
674.382	5633.28
674.573	5676.29
674.764	5582.08
674.954	5590.27
675.145	5510.4
675.336	5469.44
675.527	5577.98
675.717	5596.42
675.908	5471.49
676.099	5385.48
676.289	5571.84
676.48	5387.52
676.671	5229.83
676.861	5532.93
677.052	5442.82
677.243	5428.48
677.433	5197.06
677.624	5485.83
677.814	5418.24
678.005	5297.41
678.195	5270.79
678.386	5274.88
678.576	5317.89
678.767	5321.99
678.957	5256.45
679.148	5289.22
679.338	5256.45
679.529	5403.91
679.719	5186.82
679.909	5129.48
680.1	5334.28
680.29	5233.93
680.481	5100.81
680.671	5203.21
680.861	5174.53
681.052	5072.14
681.242	5053.7
681.432	5115.14
681.622	5072.14
681.813	5229.83
682.003	4965.64
682.193	5174.53
682.383	5233.93
682.573	5125.38
682.764	5002.51
682.954	5129.48
683.144	5084.42
683.334	5070.09
683.524	4977.93
683.714	5094.66
683.904	4961.55
684.094	4932.87
684.284	5123.34
684.474	5016.84
684.664	4975.88
684.854	4898.06
685.044	4887.82
685.234	4924.68
685.424	4918.54
685.614	4775.18
685.804	5006.6
685.994	4959.5
686.184	4756.75
686.374	4846.86
686.564	4887.82
686.753	4891.91
686.943	4879.63
687.133	4791.56
687.323	4816.14
687.513	4859.15
687.702	4742.41
687.892	4703.5
688.082	4740.36
688.272	4547.86
688.461	4754.7
688.651	4719.89
688.841	4748.56
689.03	4652.3
689.22	4789.52
689.41	4820.24
689.599	4521.23
689.789	4537.62
689.979	4513.04
690.168	4680.97
690.358	4652.3
690.547	4633.87
690.737	4603.15
690.926	4609.3
691.116	4467.99
691.305	4637.97
691.495	4539.66
691.684	4525.33
691.874	4652.3
692.063	4447.51
692.252	4519.18
692.442	4453.65
692.631	4502.8
692.82	4334.87
693.01	4341.01
693.199	4644.11
693.388	4287.76
693.578	4240.66
693.767	4396.31
693.956	4554
694.146	4398.35
694.335	4439.31
694.524	4365.59
694.713	4521.23
694.902	4508.94
695.092	4328.72
695.281	4338.96
695.47	4418.83
695.659	4410.64
695.848	4400.4
696.037	4359.44
696.226	4459.79
696.415	4244.76
696.604	4508.94
696.793	4414.74
696.982	4435.22
697.171	4375.83
697.36	4488.46
697.549	4418.83
697.738	4341.01
697.927	4341.01
698.116	4412.69
698.305	4572.43
698.494	4463.89
698.683	4463.89
698.872	4601.1
699.061	4476.18
699.25	4394.26
699.438	4588.82
699.627	4515.09
699.816	4513.04
700.005	4597.01
700.193	4566.29
700.382	4562.19
700.571	4531.47
700.76	4459.79
700.948	4457.75
701.137	4500.75
701.326	4427.03
701.514	4613.39
701.703	4455.7
701.892	4332.82
702.08	4599.06
702.269	4398.35
702.457	4433.17
702.646	4480.27
702.834	4582.67
703.023	4476.18
703.212	4603.15
703.4	4551.95
703.589	4437.27
703.777	4472.08
703.965	4547.86
704.154	4539.66
704.342	4369.68
704.531	4564.24
704.719	4422.93
704.907	4480.27
705.096	4486.42
705.284	4396.31
705.472	4412.69
705.661	4422.93
705.849	4513.04
706.037	4449.55
706.226	4490.51
706.414	4535.57
706.602	4381.97
706.79	4541.71
706.979	4433.17
707.167	4601.1
707.355	4439.31
707.543	4463.89
707.731	4521.23
707.919	4451.6
708.107	4455.7
708.296	4326.68
708.484	4328.72
708.672	4328.72
708.86	4381.97
709.048	4347.15
709.236	4441.36
709.424	4492.56
709.612	4541.71
709.8	4359.44
709.988	4359.44
710.176	4566.29
710.364	4541.71
710.551	4488.46
710.739	4416.79
710.927	4353.3
711.115	4467.99
711.303	4332.82
711.491	4441.36
711.679	4498.7
711.866	4365.59
712.054	4402.45
712.242	4318.48
712.43	4394.26
712.617	4408.59
712.805	4388.11
712.993	4248.85
713.181	4343.06
713.368	4400.4
713.556	4377.87
713.744	4183.32
713.931	4400.4
714.119	4349.2
714.306	4404.5
714.494	4238.61
714.682	4281.62
714.869	4146.45
715.057	4287.76
715.244	4244.76
715.432	4300.05
715.619	4359.44
715.807	4285.72
715.994	4324.63
716.182	4293.91
716.369	4281.62
716.556	4240.66
716.744	4302.1
716.931	4226.32
717.119	4183.32
717.306	4185.37
717.493	4218.13
717.681	4211.99
717.868	4168.98
718.055	4250.9
718.242	4193.56
718.43	4207.89
718.617	4109.59
718.804	4035.86
718.991	4205.85
719.179	4279.57
719.366	4181.27
719.553	4265.24
719.74	4095.25
719.927	4283.67
720.114	4115.73
720.301	4044.06
720.488	4029.72
720.676	4035.86
720.863	4156.69
721.05	4224.28
721.237	4132.12
721.424	4087.06
721.611	4166.93
721.798	3992.86
721.985	4011.29
722.172	4017.43
722.358	4009.24
722.545	4017.43
722.732	4060.44
722.919	4019.48
723.106	4076.82
723.293	3933.47
723.48	4078.87
723.667	4056.34
723.853	3945.75
724.04	3951.9
724.227	3890.46
724.414	3923.23
724.6	3869.98
724.787	4111.64
724.974	4166.93
725.161	3992.86
725.347	3853.59
725.534	3894.55
725.72	3999
725.907	3939.61
726.094	4076.82
726.28	3927.32
726.467	3904.79
726.653	3921.18
726.84	4048.15
727.027	4023.58
727.213	3786.01
727.4	3843.35
727.586	4054.3
727.773	3955.99
727.959	3761.44
728.145	3843.35
728.332	3802.4
728.518	3939.61
728.705	3943.71
728.891	3706.14
729.077	3968.28
729.264	3667.23
729.45	3806.49
729.636	3771.68
729.823	3796.25
730.009	3855.64
730.195	3726.62
730.382	3779.87
730.568	3722.52
730.754	3775.77
730.94	3788.06
731.126	3685.66
731.313	3613.98
731.499	3706.14
731.685	3650.85
731.871	3716.38
732.057	3695.9
732.243	3771.68
732.429	3597.6
732.615	3751.2
732.801	3652.89
732.987	3722.52
733.173	3595.55
733.359	3669.28
733.545	3644.7
733.731	3511.58
733.917	3767.58
734.103	3712.28
734.289	3648.8
734.475	3554.59
734.661	3659.04
734.847	3476.77
735.033	3501.34
735.219	3560.73
735.404	3470.62
735.59	3532.06
735.776	3499.3
735.962	3613.98
736.148	3560.73
736.333	3581.21
736.519	3429.66
736.705	3575.07
736.89	3476.77
737.076	3437.86
737.262	3376.42
737.447	3429.66
737.633	3349.79
737.819	3538.21
738.004	3562.78
738.19	3360.03
738.375	3513.63
738.561	3568.93
738.747	3337.51
738.932	3288.36
739.118	3525.92
739.303	3364.13
739.489	3345.7
739.674	3226.92
739.859	3208.48
740.045	3339.55
740.23	3335.46
740.416	3204.39
740.601	3372.32
740.786	3210.53
740.972	3061.03
741.157	3099.94
741.342	3054.89
741.528	3155.24
741.713	3317.03
741.898	3132.71
742.084	3218.72
742.269	3026.22
742.454	3130.66
742.639	3112.23
742.824	3095.85
743.01	3022.12
743.195	3069.22
743.38	3075.37
743.565	2991.4
743.75	3028.26
743.935	3005.74
744.12	3020.07
744.305	2932.01
744.49	2977.06
744.675	2764.08
744.86	2897.19
745.045	2929.96
745.23	2843.95
745.415	2807.08
745.6	2852.14
745.785	2854.19
745.97	2811.18
746.155	2843.95
746.34	2784.55
746.525	2729.26
746.71	2848.04
746.895	2743.6
747.079	2708.78
747.264	2596.14
747.449	2827.56
747.634	2583.85
747.819	2704.68
748.003	2596.14
748.188	2653.48
748.373	2551.09
748.557	2587.95
748.742	2647.34
748.927	2528.56
749.111	2587.95
749.296	2403.63
749.481	2477.36
749.665	2575.66
749.85	2321.71
750.034	2452.78
750.219	2463.02
750.404	2456.88
750.588	2393.39
750.773	2385.2
750.957	2436.4
751.141	2350.39
751.326	2417.97
751.51	2256.18
751.695	2334
751.879	2338.1
752.064	2295.09
752.248	2178.36
752.432	2340.15
752.617	2344.24
752.801	2368.82
752.985	2225.46
753.17	2245.94
753.354	2217.27
753.538	2297.14
753.722	2078.01
753.907	2157.88
754.091	2037.05
754.275	2135.35
754.459	2008.37
754.643	2041.14
754.828	2047.29
755.012	2121.01
755.196	1916.22
755.38	1930.55
755.564	1926.46
755.748	1961.27
755.932	2045.24
756.116	2004.28
756.3	1903.93
756.484	1901.88
756.668	1903.93
756.852	1901.88
757.036	1903.93
757.22	1848.63
757.404	1903.93
757.588	1813.82
757.772	1961.27
757.956	1869.11
758.14	1971.51
758.323	1695.04
758.507	1746.23
758.691	1750.33
758.875	1664.32
759.059	1764.67
759.242	1797.43
759.426	1742.14
759.61	1781.05
759.794	1582.4
759.977	1834.3
760.161	1735.99
760.345	1637.69
760.528	1695.04
760.712	1652.03
760.895	1688.89
761.079	1582.4
761.263	1588.54
761.446	1537.34
761.63	1666.36
761.813	1578.3
761.997	1629.5
762.18	1682.75
762.364	1604.92
762.547	1604.92
762.731	1586.49
762.914	1441.09
763.098	1508.67
763.281	1527.1
763.464	1518.91
763.648	1467.71
763.831	1490.24
764.015	1510.72
764.198	1592.64
764.381	1457.47
764.564	1453.38
764.748	1461.57
764.931	1457.47
765.114	1420.61
765.297	1410.37
765.481	1506.62
765.664	1500.48
765.847	1445.18
766.03	1486.14
766.213	1432.9
766.397	1400.13
766.58	1432.9
766.763	1471.81
766.946	1295.68
767.129	1406.27
767.312	1312.07
767.495	1326.4
767.678	1344.83
767.861	1441.09
768.044	1512.77
768.227	1355.07
768.41	1246.53
768.593	1426.75
768.776	1412.42
768.959	1379.65
769.142	1357.12
769.324	1301.83
769.507	1285.44
769.69	1252.67
769.873	1256.77
770.056	1477.95
770.239	1279.3
770.421	1406.27
770.604	1252.67
770.787	1211.71
770.97	1275.2
771.152	1189.19
771.335	1305.92
771.518	1248.58
771.7	1301.83
771.883	1273.15
772.066	1242.43
772.248	1121.6
772.431	1178.95
772.613	1232.19
772.796	1105.22
772.978	1269.06
773.161	1232.19
773.343	1183.04
773.526	1008.97
773.708	1094.98
773.891	1084.74
774.073	1162.56
774.256	1090.88
774.438	1207.62
774.621	1123.65
774.803	1070.41
774.985	1064.26
775.168	1183.04
775.35	1025.35
775.532	1150.28
775.715	1086.79
775.897	1111.36
776.079	1111.36
776.261	1097.03
776.444	1043.78
776.626	933.19
776.808	1078.6
776.99	955.72
777.173	884.04
777.355	1033.54
777.537	980.29
777.719	1021.25
777.901	1023.3
778.083	945.48
778.265	929.1
778.447	1088.84
778.629	929.1
778.811	1002.82
778.993	947.53
779.175	894.28
779.357	888.14
779.539	877.9
779.721	957.77
779.903	941.38
780.085	920.9
780.267	920.9
780.449	873.8
780.631	865.61
780.812	963.91
780.994	869.7
781.176	900.42
781.358	900.42
781.54	853.32
781.721	965.96
781.903	879.94
782.085	779.59
782.267	855.37
782.448	812.36
782.63	847.18
782.812	783.69
782.993	793.93
783.175	800.07
783.357	748.87
783.538	791.88
783.72	654.67
783.901	701.77
784.083	826.7
784.264	740.68
784.446	671.05
784.627	687.43
784.809	697.67
784.99	738.63
785.172	671.05
785.353	724.3
785.535	603.47
785.716	613.71
785.897	691.53
786.079	691.53
786.26	652.62
786.441	687.43
786.623	597.32
786.804	560.46
786.985	587.08
787.167	728.39
787.348	611.66
787.529	582.99
787.71	699.72
787.891	636.24
788.073	664.91
788.254	562.51
788.435	726.35
788.616	693.58
788.797	505.17
788.978	544.08
789.159	558.41
789.34	562.51
789.522	582.99
789.703	544.08
789.884	537.93
790.065	560.46
790.246	533.84
790.427	595.28
790.607	587.08
790.788	603.47
790.969	513.36
791.15	472.4
791.331	521.55
791.512	496.97
791.693	458.06
791.874	568.65
792.054	609.61
792.235	560.46
792.416	499.02
792.597	466.25
792.778	472.4
792.958	529.74
793.139	554.32
793.32	503.12
793.5	492.88
793.681	546.12
793.862	556.36
794.042	492.88
794.223	345.42
794.404	490.83
794.584	396.62
794.765	300.37
794.945	488.78
795.126	499.02
795.306	482.64
795.487	462.16
795.667	415.06
795.848	421.2
796.028	447.82
796.209	464.21
796.389	507.21
796.57	453.97
796.75	439.63
796.93	314.7
797.111	361.81
797.291	296.27
797.471	527.69
797.652	374.1
797.832	402.77
798.012	370
798.192	322.9
798.373	347.47
798.553	406.86
798.733	400.72
798.913	337.23
799.093	384.34
799.274	413.01
799.454	294.22
799.634	400.72
799.814	333.14
799.994	394.58
800.174	417.1
800.354	370
800.534	320.85
800.714	316.75
800.894	363.86
801.074	249.17
801.254	306.51
801.434	351.57
801.614	351.57
801.794	269.65
801.974	1350.98
802.154	380.24
802.334	378.19
802.514	251.22
802.693	382.29
802.873	275.79
803.053	292.18
803.233	263.51
803.413	306.51
803.592	257.36
803.772	337.23
803.952	294.22
804.131	306.51
804.311	302.42
804.491	337.23
804.67	245.07
804.85	292.18
805.03	357.71
805.209	390.48
805.389	335.18
805.568	259.41
805.748	281.94
805.928	251.22
806.107	298.32
806.287	271.7
806.466	267.6
806.646	240.98
806.825	277.84
807.004	173.39
807.184	245.07
807.363	294.22
807.543	302.42
807.722	238.93
807.901	308.56
808.081	292.18
808.26	212.31
808.439	245.07
808.619	222.55
808.798	275.79
808.977	251.22
809.156	320.85
809.336	216.4
809.515	220.5
809.694	255.31
809.873	265.55
810.052	222.55
810.231	314.7
810.411	224.59
810.59	234.83
810.769	183.63
810.948	296.27
811.127	189.78
811.306	200.02
811.485	173.39
811.664	322.9
811.843	220.5
812.022	191.83
812.201	228.69
812.38	202.07
812.559	200.02
812.737	247.12
812.916	109.91
813.095	99.67
813.274	208.21
813.453	216.4
813.632	232.79
813.811	273.75
813.989	222.55
814.168	195.92
814.347	140.63
814.526	216.4
814.704	290.13
814.883	273.75
815.062	122.2
815.24	171.35
815.419	171.35
815.598	191.83
815.776	97.62
815.955	154.96
816.133	134.48
816.312	228.69
816.49	116.05
816.669	249.17
816.847	101.72
817.026	210.26
817.204	232.79
817.383	173.39
817.561	140.63
817.74	212.31
817.918	128.34
818.097	111.96
818.275	157.01
818.453	150.87
818.632	130.39
818.81	171.35
818.988	99.67
819.167	154.96
819.345	204.11
819.523	191.83
819.701	101.72
819.879	144.72
820.058	79.19
820.236	243.03
820.414	230.74
820.592	144.72
820.77	152.92
820.948	191.83
821.127	142.68
821.305	132.44
821.483	181.59
821.661	165.2
821.839	197.97
822.017	91.48
822.195	85.33
822.373	193.87
822.551	157.01
822.729	142.68
822.907	87.38
823.085	107.86
823.262	146.77
823.44	101.72
823.618	99.67
823.796	138.58
823.974	58.71
824.152	154.96
824.329	101.72
824.507	144.72
824.685	128.34
824.863	44.37
825.04	163.15
825.218	175.44
825.396	71
825.574	111.96
825.751	79.19
825.929	175.44
826.107	161.11
826.284	183.63
826.462	173.39
826.639	85.33
826.817	95.57
826.994	157.01
827.172	114
827.349	206.16
827.527	157.01
827.704	122.2
827.882	128.34
828.059	71
828.237	118.1
828.414	183.63
828.591	25.94
828.769	148.82
828.946	89.43
829.124	167.25
829.301	140.63
829.478	146.77
829.655	114
829.833	21.85
830.01	1.37
830.187	50.52
830.364	68.95
830.542	126.29
830.719	169.3
830.896	124.24
831.073	114
831.25	116.05
831.427	83.28
831.604	152.92
831.782	95.57
831.959	134.48
832.136	126.29
832.313	107.86
832.49	97.62
832.667	58.71
832.844	75.09
833.021	163.15
833.198	75.09
833.374	93.52
833.551	101.72
833.728	17.75
833.905	142.68
834.082	34.13
834.259	85.33
834.436	154.96
834.612	-8.87
834.789	101.72
834.966	142.68
835.143	42.32
835.319	62.8
835.496	40.28
835.673	120.15
835.85	109.91
836.026	146.77
836.203	91.48
836.38	40.28
836.556	95.57
836.733	15.7
836.909	118.1
837.086	101.72
837.262	44.37
837.439	83.28
837.616	114
837.792	87.38
837.968	48.47
838.145	27.99
838.321	52.56
838.498	23.89
838.674	101.72
838.851	44.37
839.027	105.81
839.203	68.95
839.38	73.04
839.556	44.37
839.732	91.48
839.909	116.05
840.085	83.28
840.261	-47.79
840.437	-23.21
840.614	-8.87
840.79	66.9
840.966	-37.55
841.142	44.37
841.318	1.37
841.494	111.96
841.671	91.48
841.847	-45.74
842.023	56.66
842.199	85.33
842.375	62.8
842.551	-21.16
842.727	17.75
842.903	101.72
843.079	19.8
843.255	97.62
843.431	68.95
843.607	87.38
843.783	15.7
843.959	99.67
844.134	30.04
844.31	126.29
844.486	-15.02
844.662	32.08
844.838	93.52
845.013	71
845.189	64.85
845.365	89.43
845.541	-17.07
845.716	111.96
845.892	3.41
846.068	81.24
846.244	56.66
846.419	25.94
846.595	-2.73
846.77	-12.97
846.946	25.94
847.122	62.8
847.297	-2.73
847.473	71
847.648	-60.07
847.824	25.94
847.999	52.56
848.175	64.85
848.35	44.37
848.526	95.57
848.701	30.04
848.876	75.09
849.052	114
849.227	23.89
849.403	7.51
849.578	42.32
849.753	124.24
849.929	5.46
850.104	32.08
850.279	5.46
850.454	1.37
850.63	62.8
850.805	-10.92
850.98	52.56
851.155	13.65
851.33	19.8
851.505	9.56
851.681	75.09
851.856	1.37
852.031	91.48
852.206	5.46
852.381	15.7
852.556	62.8
852.731	-8.87
852.906	46.42
853.081	-12.97
853.256	36.18
853.431	17.75
853.606	-55.98
853.781	-8.87
853.956	-62.12
854.131	34.13
854.305	-10.92
854.48	83.28
854.655	21.85
854.83	-62.12
855.005	60.76
855.18	34.13
855.354	7.51
855.529	9.56
855.704	-15.02
855.879	25.94
856.053	23.89
856.228	62.8
856.403	-51.88
856.577	9.56
856.752	-115.37
856.926	19.8
857.101	15.7
857.276	11.61
857.45	38.23
857.625	-0.68
857.799	21.85
857.974	-15.02
858.148	-47.79
858.323	32.08
858.497	-25.26
858.672	32.08
858.846	7.51
859.02	79.19
859.195	-88.75
859.369	-8.87
859.543	19.8
859.718	81.24
859.892	-15.02
860.066	32.08
860.241	-82.6
860.415	-8.87
860.589	66.9
860.763	21.85
860.938	79.19
861.112	19.8
861.286	17.75
861.46	75.09
861.634	60.76
861.808	44.37
861.982	-21.16
862.157	34.13
862.331	21.85
862.505	-8.87
862.679	-53.93
862.853	-68.27
863.027	-62.12
863.201	95.57
863.375	-25.26
863.549	44.37
863.722	-6.83
863.896	87.38
864.07	-55.98
864.244	-15.02
864.418	21.85
864.592	60.76
864.766	-23.21
864.939	-66.22
865.113	-37.55
865.287	21.85
865.461	-115.37
865.634	-21.16
865.808	-37.55
865.982	7.51
866.156	-39.59
866.329	3.41
866.503	36.18
866.676	89.43
866.85	44.37
867.024	7.51
867.197	15.7
867.371	-47.79
867.544	9.56
867.718	-45.74
867.891	9.56
868.065	-84.65
868.238	15.7
868.412	75.09
868.585	27.99
868.759	-4.78
868.932	-27.31
869.105	-53.93
869.279	-15.02
869.452	-31.4
869.625	87.38
869.799	-25.26
869.972	-88.75
870.145	-53.93
870.319	40.28
870.492	-25.26
870.665	-29.35
870.838	-31.4
871.011	-27.31
871.185	-47.79
871.358	-33.45
871.531	60.76
871.704	-0.68
871.877	60.76
872.05	23.89
872.223	-23.21
872.396	83.28
872.569	27.99
872.742	36.18
872.915	3.41
873.088	-62.12
873.261	-66.22
873.434	81.24
873.607	19.8
873.78	52.56
873.953	-39.59
874.126	68.95
874.299	-2.73
874.471	-41.64
874.644	30.04
874.817	30.04
874.99	62.8
875.163	44.37
875.335	7.51
875.508	-31.4
875.681	95.57
875.853	-41.64
876.026	-12.97
876.199	13.65
876.371	-49.83
876.544	-8.87
876.717	-4.78
876.889	19.8
877.062	-17.07
877.234	-0.68
877.407	-33.45
877.579	-17.07
877.752	38.23
877.924	54.61
878.097	40.28
878.269	13.65
878.442	77.14
878.614	48.47
878.786	-10.92
878.959	68.95
879.131	-29.35
879.303	-98.99
879.476	15.7
879.648	68.95
879.82	-27.31
879.993	-33.45
880.165	-23.21
880.337	-98.99
880.509	23.89
880.681	38.23
880.854	-92.84
881.026	-12.97
881.198	54.61
881.37	-43.69
881.542	-37.55
881.714	5.46
881.886	-72.36
882.058	-47.79
882.23	21.85
882.402	-29.35
882.574	-64.17
882.746	17.75
882.918	15.7
883.09	-29.35
883.262	-2.73
883.434	-49.83
883.606	-25.26
883.778	-10.92
883.95	101.72
884.122	-105.13
884.293	17.75
884.465	32.08
884.637	19.8
884.809	-58.03
884.98	25.94
885.152	15.7
885.324	32.08
885.496	34.13
885.667	-45.74
885.839	-12.97
886.011	146.77
886.182	27.99
886.354	27.99
886.525	-35.5
886.697	36.18
886.869	-76.46
887.04	-10.92
887.212	36.18
887.383	-12.97
887.555	-35.5
887.726	-43.69
887.897	-10.92
888.069	25.94
888.24	17.75
888.412	9.56
888.583	-33.45
888.754	-39.59
888.926	-80.55
889.097	-66.22
889.268	-107.18
889.44	17.75
889.611	-88.75
889.782	-35.5
889.953	-35.5
890.125	42.32
890.296	-10.92
890.467	-53.93
890.638	-31.4
890.809	1.37
890.98	-53.93
891.151	56.66
891.323	-72.36
891.494	7.51
891.665	-33.45
891.836	-55.98
892.007	38.23
892.178	19.8
892.349	-15.02
892.52	17.75
892.691	-33.45
892.862	-19.11
893.032	-182.95
893.203	-2.73
893.374	-21.16
893.545	30.04
893.716	-80.55
893.887	75.09
894.057	-60.07
894.228	-33.45
894.399	-62.12
894.57	46.42
894.74	-35.5
894.911	-15.02
895.082	-31.4
895.253	40.28
895.423	-19.11
895.594	71
895.764	7.51
895.935	-45.74
896.106	1.37
896.276	-17.07
896.447	-41.64
896.617	-35.5
896.788	-35.5
896.958	-58.03
897.129	-8.87
897.299	19.8
897.47	77.14
897.64	-4.78
897.81	-86.7
897.981	-25.26
898.151	-74.41
898.322	54.61
898.492	42.32
898.662	-119.46
898.832	-33.45
899.003	-19.11
899.173	-33.45
899.343	-53.93
899.513	-58.03
