Data from USB4F104151__10__12-26-58-617.txt Node

Date: Fri Mar 14 12:26:58 EDT 2025
User: louis
Spectrometer: USB4F10415
Trigger mode: 4
Integration Time (sec): 2.000000E-2
Scans to average: 1
Electric dark correction enabled: true
Nonlinearity correction enabled: false
Boxcar width: 0
XAxis mode: Wavelengths
Number of Pixels in Spectrum: 3648
>>>>>Begin Spectral Data<<<<<
178.204	-99.5
178.424	-99.5
178.644	-99.5
178.864	-66.73
179.084	-21.67
179.304	-13.48
179.524	-38.06
179.744	31.57
179.964	-9.39
180.184	17.24
180.404	-1.19
180.624	13.14
180.844	-17.58
181.064	-15.53
181.283	-1.19
181.503	-9.39
181.723	43.86
181.943	-25.77
182.163	31.57
182.383	50
182.602	41.81
182.822	72.53
183.042	31.57
183.262	-93.35
183.482	4.95
183.701	-19.63
183.921	62.29
184.141	-38.06
184.361	56.15
184.58	0.85
184.8	45.91
185.02	35.67
185.239	-33.96
185.459	54.1
185.679	84.82
185.898	15.19
186.118	117.59
186.338	66.39
186.557	70.48
186.777	45.91
186.997	70.48
187.216	70.48
187.436	-17.58
187.655	27.48
187.875	27.48
188.095	-9.39
188.314	62.29
188.534	136.02
188.753	41.81
188.973	50
189.192	88.92
189.412	-1.19
189.631	4.95
189.851	-13.48
190.07	101.2
190.29	70.48
190.509	72.53
190.729	17.24
190.948	105.3
191.168	109.4
191.387	25.43
191.607	37.72
191.826	9.05
192.045	2.9
192.265	4.95
192.484	0.85
192.704	4.95
192.923	17.24
193.142	86.87
193.362	-17.58
193.581	13.14
193.8	-3.24
194.02	39.76
194.239	-7.34
194.458	2.9
194.678	21.33
194.897	43.86
195.116	43.86
195.335	11.09
195.555	52.05
195.774	27.48
195.993	70.48
196.212	80.72
196.432	-23.72
196.651	11.09
196.87	-79.02
197.089	45.91
197.308	84.82
197.528	74.58
197.747	-40.11
197.966	80.72
198.185	107.35
198.404	54.1
198.623	54.1
198.842	66.39
199.062	25.43
199.281	54.1
199.5	68.44
199.719	31.57
199.938	70.48
200.157	11.09
200.376	105.3
200.595	-27.82
200.814	9.05
201.033	66.39
201.252	2.9
201.471	39.76
201.69	78.68
201.909	23.38
202.128	43.86
202.347	74.58
202.566	-40.11
202.785	66.39
203.004	-48.3
203.223	-1.19
203.442	33.62
203.661	-1.19
203.879	13.14
204.098	39.76
204.317	66.39
204.536	35.67
204.755	-15.53
204.974	80.72
205.193	66.39
205.411	97.11
205.63	80.72
205.849	64.34
206.068	37.72
206.287	13.14
206.505	27.48
206.724	-27.82
206.943	29.52
207.162	47.96
207.381	9.05
207.599	11.09
207.818	19.29
208.037	27.48
208.255	76.63
208.474	29.52
208.693	33.62
208.911	-33.96
209.13	-5.29
209.349	43.86
209.567	66.39
209.786	54.1
210.005	43.86
210.223	13.14
210.442	-42.15
210.661	90.96
210.879	27.48
211.098	4.95
211.316	82.77
211.535	45.91
211.753	27.48
211.972	72.53
212.191	-23.72
212.409	2.9
212.628	47.96
212.846	43.86
213.065	97.11
213.283	50
213.502	37.72
213.72	29.52
213.938	74.58
214.157	39.76
214.375	47.96
214.594	23.38
214.812	37.72
215.031	-1.19
215.249	52.05
215.467	-5.29
215.686	-19.63
215.904	70.48
216.122	29.52
216.341	50
216.559	9.05
216.778	23.38
216.996	41.81
217.214	-11.43
217.432	-3.24
217.651	31.57
217.869	-36.01
218.087	-3.24
218.306	-13.48
218.524	43.86
218.742	27.48
218.96	103.25
219.179	113.49
219.397	9.05
219.615	68.44
219.833	60.24
220.051	15.19
220.27	-13.48
220.488	70.48
220.706	-19.63
220.924	7
221.142	99.16
221.36	56.15
221.578	-23.72
221.796	72.53
222.015	47.96
222.233	52.05
222.451	99.16
222.669	2.9
222.887	84.82
223.105	68.44
223.323	39.76
223.541	-17.58
223.759	56.15
223.977	43.86
224.195	-1.19
224.413	19.29
224.631	21.33
224.849	33.62
225.067	56.15
225.285	-13.48
225.503	15.19
225.721	37.72
225.939	19.29
226.157	95.06
226.375	107.35
226.592	23.38
226.81	9.05
227.028	19.29
227.246	41.81
227.464	0.85
227.682	-19.63
227.9	0.85
228.117	23.38
228.335	66.39
228.553	115.54
228.771	45.91
228.989	43.86
229.206	101.2
229.424	68.44
229.642	-21.67
229.86	-52.39
230.077	29.52
230.295	97.11
230.513	-1.19
230.731	52.05
230.948	-15.53
231.166	154.45
231.384	54.1
231.601	4.95
231.819	60.24
232.037	-3.24
232.254	-9.39
232.472	64.34
232.689	17.24
232.907	54.1
233.125	7
233.342	25.43
233.56	52.05
233.777	41.81
233.995	76.63
234.213	72.53
234.43	25.43
234.648	27.48
234.865	62.29
235.083	62.29
235.3	-11.43
235.518	101.2
235.735	-46.25
235.953	9.05
236.17	-7.34
236.388	-7.34
236.605	76.63
236.822	23.38
237.04	17.24
237.257	-5.29
237.475	-9.39
237.692	31.57
237.909	-25.77
238.127	86.87
238.344	111.44
238.562	4.95
238.779	-58.54
238.996	41.81
239.214	47.96
239.431	105.3
239.648	23.38
239.865	90.96
240.083	74.58
240.3	52.05
240.517	45.91
240.735	76.63
240.952	54.1
241.169	13.14
241.386	70.48
241.603	88.92
241.821	50
242.038	54.1
242.255	33.62
242.472	52.05
242.689	86.87
242.907	74.58
243.124	54.1
243.341	0.85
243.558	-7.34
243.775	33.62
243.992	11.09
244.209	7
244.426	31.57
244.643	37.72
244.86	-19.63
245.078	25.43
245.295	35.67
245.512	4.95
245.729	2.9
245.946	-9.39
246.163	43.86
246.38	88.92
246.597	68.44
246.814	68.44
247.031	33.62
247.248	7
247.464	58.2
247.681	37.72
247.898	74.58
248.115	76.63
248.332	47.96
248.549	78.68
248.766	27.48
248.983	86.87
249.2	-17.58
249.417	70.48
249.633	-5.29
249.85	25.43
250.067	66.39
250.284	21.33
250.501	21.33
250.717	31.57
250.934	111.44
251.151	-7.34
251.368	58.2
251.585	117.59
251.801	23.38
252.018	29.52
252.235	88.92
252.451	35.67
252.668	50
252.885	41.81
253.102	37.72
253.318	47.96
253.535	25.43
253.752	-5.29
253.968	86.87
254.185	21.33
254.401	23.38
254.618	31.57
254.835	35.67
255.051	68.44
255.268	76.63
255.484	29.52
255.701	7
255.917	-17.58
256.134	50
256.351	33.62
256.567	64.34
256.784	9.05
257	21.33
257.217	72.53
257.433	78.68
257.65	95.06
257.866	93.01
258.082	19.29
258.299	43.86
258.515	-5.29
258.732	43.86
258.948	105.3
259.165	11.09
259.381	52.05
259.597	45.91
259.814	62.29
260.03	-11.43
260.246	33.62
260.463	13.14
260.679	58.2
260.895	50
261.112	97.11
261.328	47.96
261.544	-42.15
261.761	27.48
261.977	54.1
262.193	-60.59
262.409	11.09
262.626	50
262.842	50
263.058	-52.39
263.274	31.57
263.49	-3.24
263.707	7
263.923	29.52
264.139	-13.48
264.355	35.67
264.571	66.39
264.787	-38.06
265.004	25.43
265.22	68.44
265.436	27.48
265.652	31.57
265.868	66.39
266.084	33.62
266.3	45.91
266.516	-5.29
266.732	-7.34
266.948	76.63
267.164	33.62
267.38	52.05
267.596	66.39
267.812	138.07
268.028	-50.35
268.244	17.24
268.46	76.63
268.676	-36.01
268.892	4.95
269.108	4.95
269.324	35.67
269.54	-13.48
269.756	29.52
269.972	2.9
270.188	90.96
270.403	-9.39
270.619	-25.77
270.835	15.19
271.051	2.9
271.267	41.81
271.483	88.92
271.698	58.2
271.914	31.57
272.13	29.52
272.346	37.72
272.562	-21.67
272.777	68.44
272.993	41.81
273.209	23.38
273.425	70.48
273.64	-9.39
273.856	17.24
274.072	86.87
274.287	37.72
274.503	-7.34
274.719	60.24
274.934	78.68
275.15	-54.44
275.366	23.38
275.581	-7.34
275.797	74.58
276.012	-36.01
276.228	23.38
276.444	74.58
276.659	84.82
276.875	21.33
277.09	9.05
277.306	41.81
277.521	13.14
277.737	31.57
277.952	80.72
278.168	72.53
278.383	-9.39
278.599	33.62
278.814	47.96
279.03	13.14
279.245	35.67
279.461	41.81
279.676	121.68
279.892	-21.67
280.107	25.43
280.322	84.82
280.538	103.25
280.753	39.76
280.969	25.43
281.184	17.24
281.399	-15.53
281.615	-31.91
281.83	7
282.045	58.2
282.26	-11.43
282.476	-1.19
282.691	54.1
282.906	23.38
283.122	37.72
283.337	13.14
283.552	109.4
283.767	13.14
283.983	4.95
284.198	58.2
284.413	35.67
284.628	66.39
284.843	-52.39
285.058	50
285.274	50
285.489	31.57
285.704	103.25
285.919	72.53
286.134	45.91
286.349	21.33
286.564	15.19
286.779	58.2
286.995	-3.24
287.21	52.05
287.425	70.48
287.64	45.91
287.855	54.1
288.07	0.85
288.285	127.83
288.5	107.35
288.715	43.86
288.93	13.14
289.145	60.24
289.36	43.86
289.575	37.72
289.79	95.06
290.004	29.52
290.219	35.67
290.434	56.15
290.649	35.67
290.864	47.96
291.079	45.91
291.294	0.85
291.509	101.2
291.724	56.15
291.938	43.86
292.153	17.24
292.368	15.19
292.583	101.2
292.798	41.81
293.012	45.91
293.227	58.2
293.442	13.14
293.657	25.43
293.871	4.95
294.086	90.96
294.301	78.68
294.516	35.67
294.73	80.72
294.945	33.62
295.16	35.67
295.374	17.24
295.589	117.59
295.804	15.19
296.018	95.06
296.233	68.44
296.447	58.2
296.662	11.09
296.877	113.49
297.091	47.96
297.306	60.24
297.52	7
297.735	-19.63
297.949	-15.53
298.164	-13.48
298.378	29.52
298.593	39.76
298.807	29.52
299.022	2.9
299.236	-21.67
299.451	103.25
299.665	4.95
299.88	47.96
300.094	90.96
300.309	62.29
300.523	25.43
300.737	41.81
300.952	62.29
301.166	27.48
301.381	86.87
301.595	23.38
301.809	9.05
302.024	82.77
302.238	72.53
302.452	54.1
302.667	9.05
302.881	-17.58
303.095	140.12
303.309	-9.39
303.524	-56.49
303.738	33.62
303.952	115.54
304.166	74.58
304.381	0.85
304.595	35.67
304.809	21.33
305.023	9.05
305.237	4.95
305.452	13.14
305.666	29.52
305.88	19.29
306.094	103.25
306.308	109.4
306.522	70.48
306.736	43.86
306.95	11.09
307.164	13.14
307.379	9.05
307.593	93.01
307.807	-5.29
308.021	78.68
308.235	9.05
308.449	37.72
308.663	-17.58
308.877	123.73
309.091	-3.24
309.305	39.76
309.519	33.62
309.733	95.06
309.947	37.72
310.161	52.05
310.374	37.72
310.588	13.14
310.802	25.43
311.016	-19.63
311.23	52.05
311.444	31.57
311.658	43.86
311.872	54.1
312.085	23.38
312.299	56.15
312.513	107.35
312.727	43.86
312.941	13.14
313.154	72.53
313.368	37.72
313.582	56.15
313.796	29.52
314.009	7
314.223	21.33
314.437	74.58
314.651	45.91
314.864	7
315.078	35.67
315.292	56.15
315.505	23.38
315.719	21.33
315.933	76.63
316.146	9.05
316.36	33.62
316.573	121.68
316.787	97.11
317.001	62.29
317.214	52.05
317.428	23.38
317.641	21.33
317.855	-13.48
318.068	54.1
318.282	35.67
318.495	43.86
318.709	29.52
318.922	25.43
319.136	15.19
319.349	45.91
319.563	88.92
319.776	27.48
319.99	-15.53
320.203	66.39
320.417	33.62
320.63	82.77
320.843	146.26
321.057	50
321.27	39.76
321.483	72.53
321.697	54.1
321.91	68.44
322.124	72.53
322.337	117.59
322.55	52.05
322.763	50
322.977	60.24
323.19	17.24
323.403	15.19
323.617	-7.34
323.83	64.34
324.043	-5.29
324.256	50
324.469	35.67
324.683	-3.24
324.896	33.62
325.109	45.91
325.322	-29.87
325.535	0.85
325.748	88.92
325.962	-5.29
326.175	27.48
326.388	43.86
326.601	19.29
326.814	54.1
327.027	-3.24
327.24	35.67
327.453	33.62
327.666	11.09
327.879	-7.34
328.092	2.9
328.305	-29.87
328.518	31.57
328.731	33.62
328.944	-9.39
329.157	17.24
329.37	90.96
329.583	82.77
329.796	113.49
330.009	-46.25
330.222	-1.19
330.435	82.77
330.648	11.09
330.861	90.96
331.073	78.68
331.286	64.34
331.499	41.81
331.712	17.24
331.925	39.76
332.138	121.68
332.35	19.29
332.563	31.57
332.776	115.54
332.989	80.72
333.202	74.58
333.414	-13.48
333.627	76.63
333.84	121.68
334.053	15.19
334.265	19.29
334.478	60.24
334.691	-1.19
334.903	70.48
335.116	-25.77
335.329	54.1
335.541	54.1
335.754	68.44
335.966	86.87
336.179	80.72
336.392	88.92
336.604	29.52
336.817	72.53
337.029	93.01
337.242	64.34
337.454	33.62
337.667	41.81
337.88	90.96
338.092	13.14
338.305	33.62
338.517	113.49
338.729	27.48
338.942	72.53
339.154	11.09
339.367	47.96
339.579	109.4
339.792	33.62
340.004	84.82
340.217	15.19
340.429	95.06
340.641	47.96
340.854	31.57
341.066	-3.24
341.278	86.87
341.491	138.07
341.703	13.14
341.915	-11.43
342.128	52.05
342.34	13.14
342.552	33.62
342.764	33.62
342.977	-17.58
343.189	72.53
343.401	29.52
343.613	7
343.826	84.82
344.038	43.86
344.25	105.3
344.462	39.76
344.674	123.73
344.886	27.48
345.099	-17.58
345.311	54.1
345.523	45.91
345.735	37.72
345.947	54.1
346.159	58.2
346.371	47.96
346.583	0.85
346.795	93.01
347.007	54.1
347.219	-19.63
347.431	21.33
347.643	37.72
347.855	21.33
348.067	56.15
348.279	-46.25
348.491	43.86
348.703	76.63
348.915	76.63
349.127	-11.43
349.339	-50.35
349.551	2.9
349.763	41.81
349.975	43.86
350.187	56.15
350.399	13.14
350.61	39.76
350.822	17.24
351.034	-29.87
351.246	72.53
351.458	52.05
351.669	9.05
351.881	144.21
352.093	13.14
352.305	90.96
352.517	97.11
352.728	68.44
352.94	37.72
353.152	84.82
353.363	17.24
353.575	21.33
353.787	105.3
353.999	80.72
354.21	140.12
354.422	13.14
354.633	-7.34
354.845	0.85
355.057	35.67
355.268	23.38
355.48	64.34
355.692	0.85
355.903	-48.3
356.115	119.64
356.326	11.09
356.538	33.62
356.749	60.24
356.961	7
357.172	-7.34
357.384	15.19
357.595	125.78
357.807	9.05
358.018	47.96
358.23	78.68
358.441	95.06
358.653	84.82
358.864	27.48
359.075	45.91
359.287	9.05
359.498	33.62
359.709	0.85
359.921	95.06
360.132	43.86
360.344	-21.67
360.555	52.05
360.766	41.81
360.977	68.44
361.189	74.58
361.4	29.52
361.611	41.81
361.823	35.67
362.034	78.68
362.245	2.9
362.456	62.29
362.667	64.34
362.879	58.2
363.09	76.63
363.301	41.81
363.512	45.91
363.723	15.19
363.935	13.14
364.146	58.2
364.357	37.72
364.568	15.19
364.779	17.24
364.99	82.77
365.201	13.14
365.412	52.05
365.623	-23.72
365.834	9.05
366.045	39.76
366.256	58.2
366.467	23.38
366.678	78.68
366.889	45.91
367.1	37.72
367.311	84.82
367.522	15.19
367.733	66.39
367.944	74.58
368.155	-3.24
368.366	82.77
368.577	33.62
368.788	64.34
368.999	99.16
369.209	78.68
369.42	70.48
369.631	39.76
369.842	41.81
370.053	62.29
370.264	103.25
370.474	138.07
370.685	29.52
370.896	-48.3
371.107	95.06
371.317	15.19
371.528	17.24
371.739	68.44
371.95	140.12
372.16	33.62
372.371	95.06
372.582	-56.49
372.792	78.68
373.003	74.58
373.214	62.29
373.424	27.48
373.635	47.96
373.846	113.49
374.056	52.05
374.267	84.82
374.477	11.09
374.688	29.52
374.898	66.39
375.109	41.81
375.319	99.16
375.53	109.4
375.74	31.57
375.951	9.05
376.161	74.58
376.372	86.87
376.582	15.19
376.793	97.11
377.003	64.34
377.214	15.19
377.424	88.92
377.635	88.92
377.845	64.34
378.055	66.39
378.266	15.19
378.476	58.2
378.686	-19.63
378.897	50
379.107	31.57
379.317	113.49
379.528	35.67
379.738	88.92
379.948	0.85
380.158	31.57
380.369	19.29
380.579	7
380.789	9.05
380.999	33.62
381.21	86.87
381.42	146.26
381.63	101.2
381.84	66.39
382.05	52.05
382.261	-7.34
382.471	50
382.681	19.29
382.891	152.4
383.101	52.05
383.311	29.52
383.521	39.76
383.731	60.24
383.941	45.91
384.151	25.43
384.361	-9.39
384.571	45.91
384.781	68.44
384.991	43.86
385.201	101.2
385.411	78.68
385.621	-7.34
385.831	-25.77
386.041	21.33
386.251	54.1
386.461	93.01
386.671	11.09
386.881	66.39
387.091	97.11
387.301	27.48
387.511	84.82
387.72	80.72
387.93	11.09
388.14	84.82
388.35	62.29
388.56	62.29
388.769	136.02
388.979	13.14
389.189	9.05
389.399	97.11
389.609	52.05
389.818	58.2
390.028	88.92
390.238	80.72
390.447	80.72
390.657	86.87
390.867	29.52
391.076	66.39
391.286	99.16
391.496	97.11
391.705	58.2
391.915	47.96
392.125	-1.19
392.334	54.1
392.544	74.58
392.753	84.82
392.963	86.87
393.172	66.39
393.382	54.1
393.591	138.07
393.801	68.44
394.01	107.35
394.22	72.53
394.429	41.81
394.639	50
394.848	150.36
395.058	62.29
395.267	52.05
395.477	62.29
395.686	88.92
395.895	72.53
396.105	66.39
396.314	136.02
396.524	45.91
396.733	127.83
396.942	90.96
397.152	93.01
397.361	107.35
397.57	58.2
397.78	19.29
397.989	90.96
398.198	80.72
398.407	129.88
398.617	56.15
398.826	47.96
399.035	4.95
399.244	47.96
399.453	90.96
399.663	70.48
399.872	74.58
400.081	117.59
400.29	131.92
400.499	50
400.708	152.4
400.917	131.92
401.127	168.79
401.336	90.96
401.545	131.92
401.754	74.58
401.963	66.39
402.172	66.39
402.381	90.96
402.59	39.76
402.799	123.73
403.008	88.92
403.217	113.49
403.426	129.88
403.635	62.29
403.844	99.16
404.053	99.16
404.262	156.5
404.471	224.08
404.68	90.96
404.888	181.07
405.097	97.11
405.306	144.21
405.515	103.25
405.724	152.4
405.933	97.11
406.142	160.59
406.35	144.21
406.559	136.02
406.768	121.68
406.977	133.97
407.185	201.55
407.394	179.03
407.603	168.79
407.812	142.16
408.02	160.59
408.229	176.98
408.438	158.55
408.646	201.55
408.855	183.12
409.064	262.99
409.272	195.41
409.481	285.52
409.69	166.74
409.898	291.66
410.107	324.43
410.315	281.43
410.524	193.36
410.733	277.33
410.941	277.33
411.15	285.52
411.358	275.28
411.567	387.92
411.775	297.81
411.984	291.66
412.192	351.06
412.401	254.8
412.609	369.49
412.818	330.58
413.026	365.39
413.234	330.58
413.443	387.92
413.651	328.53
413.86	349.01
414.068	435.02
414.276	408.4
414.485	482.13
414.693	428.88
414.901	512.85
415.11	578.38
415.318	453.45
415.526	504.65
415.734	562
415.943	676.68
416.151	629.58
416.359	648.01
416.567	662.35
416.776	650.06
416.984	795.47
417.192	785.23
417.4	746.31
417.608	805.71
417.817	793.42
418.025	770.89
418.233	953.16
418.441	789.32
418.649	906.06
418.857	951.11
419.065	981.83
419.273	961.35
419.481	973.64
419.689	1086.28
419.897	1090.37
420.105	1088.32
420.313	1178.44
420.521	1225.54
420.729	1258.31
420.937	1334.08
421.145	1346.37
421.353	1383.23
421.561	1479.49
421.769	1520.45
421.977	1514.3
422.185	1440.58
422.393	1559.36
422.601	1768.25
422.809	1655.61
423.017	1735.48
423.224	1717.05
423.432	1852.22
423.64	1887.03
423.848	1962.81
424.056	1983.29
424.263	2118.45
424.471	2179.89
424.679	2149.17
424.887	2411.31
425.094	2272.05
425.302	2507.57
425.51	2470.7
425.718	2511.66
425.925	2609.97
426.133	2587.44
426.341	2820.91
426.548	2876.2
426.756	2878.25
426.964	3003.18
427.171	3179.3
427.379	3173.16
427.586	3285.8
427.794	3349.28
428.001	3584.8
428.209	3646.24
428.417	3531.55
428.624	3758.88
428.832	3814.17
429.039	3779.36
429.247	3744.54
429.454	4150.04
429.662	4492.05
429.869	4164.37
430.076	4504.34
430.284	4289.3
430.491	4629.26
430.699	4778.76
430.906	4897.55
431.114	4936.46
431.321	5118.73
431.528	5323.52
431.736	5704.45
431.943	5962.49
432.15	5587.71
432.358	5677.82
432.565	5810.94
432.772	6075.13
432.979	6300.41
433.187	6288.12
433.394	6505.2
433.601	6779.63
433.808	6927.08
434.016	6882.03
434.223	7129.83
434.43	7439.08
434.637	7383.78
434.844	7994.08
435.052	8067.8
435.259	7942.88
435.466	8014.56
435.673	7887.58
435.88	8534.74
436.087	8837.84
436.294	8970.96
436.501	8690.38
436.708	8919.76
436.915	9169.61
437.122	9476.8
437.329	9628.35
437.537	10089.15
437.743	10109.63
437.95	10025.66
438.157	10646.19
438.364	10992.3
438.571	10773.17
438.778	10869.42
438.985	12085.92
439.192	11639.46
439.399	12026.53
439.606	11680.42
439.813	12323.48
440.02	13005.45
440.227	12737.17
440.433	12505.75
440.64	13208.2
440.847	13021.84
441.054	13232.78
441.261	14369.4
441.467	14115.45
441.674	14426.75
441.881	15100.53
442.088	14938.74
442.294	14871.15
442.501	15276.65
442.708	15387.24
442.914	16061.02
443.121	16714.33
443.328	16243.29
443.534	17533.51
443.741	17238.61
443.948	16867.92
444.154	18192.96
444.361	17908.29
444.568	18131.52
444.774	17965.64
444.981	18238.02
445.187	18938.42
445.394	19509.8
445.6	19006
445.807	21334.54
446.013	20517.4
446.22	20673.05
446.426	21256.72
446.633	21619.21
446.839	22495.74
447.046	21260.82
447.252	22817.27
447.459	22542.85
447.665	22764.03
447.871	23831.02
448.078	24709.6
448.284	23538.16
448.491	23972.33
448.697	24969.69
448.903	25573.84
449.11	25606.61
449.316	25182.68
449.522	25741.77
449.728	26163.65
449.935	26560.96
450.141	26431.94
450.347	27095.48
450.553	26315.2
450.76	26606.02
450.966	27566.51
451.172	27560.37
451.378	28017.07
451.584	27777.45
451.791	27996.59
451.997	27922.86
452.203	28838.3
452.409	28621.22
452.615	28285.35
452.821	27453.87
453.027	26782.14
453.233	28441
453.44	27572.66
453.646	27939.24
453.852	27847.08
454.058	28152.23
454.264	27550.13
454.47	28023.21
454.676	27324.85
454.882	28158.38
455.088	25745.87
455.294	26055.11
455.5	26677.69
455.705	26827.2
455.911	25848.27
456.117	25416.15
456.323	25088.47
456.529	23415.28
456.735	24543.71
456.941	24082.92
457.147	23587.31
457.352	23108.08
457.558	22923.77
457.764	23130.61
457.97	22297.09
458.176	21740.04
458.381	21967.37
458.587	20873.75
458.793	21006.87
458.999	19948.07
459.204	21117.46
459.41	20587.04
459.616	19216.94
459.821	19135.03
460.027	19251.76
460.233	18659.9
460.438	18102.85
460.644	18131.52
460.85	17402.44
461.055	16982.61
461.261	16689.75
461.466	15471.21
461.672	15157.87
461.878	16259.68
462.083	15710.82
462.289	15334
462.494	14836.34
462.7	14428.79
462.905	13769.35
463.111	14387.83
463.316	14264.96
463.522	14060.16
463.727	14105.21
463.932	13939.33
464.138	13703.81
464.343	13920.9
464.549	13501.06
464.754	14226.04
464.959	13947.52
465.165	13707.91
465.37	13267.59
465.575	12833.43
465.781	13439.62
465.986	13464.2
466.191	12974.74
466.397	12665.49
466.602	12192.41
466.807	12599.96
467.012	12571.29
467.218	12550.81
467.423	12272.28
467.628	12364.44
467.833	12862.1
468.038	12208.8
468.244	12034.72
468.449	12522.13
468.654	12051.1
468.859	12110.49
469.064	12171.93
469.269	11575.97
469.474	11635.36
469.679	12104.35
469.885	11389.61
470.09	11629.22
470.295	11866.78
470.5	11319.98
470.705	11408.04
470.91	11227.82
471.115	10949.29
471.32	11113.13
471.525	11276.97
471.73	11041.45
471.935	10699.44
472.139	10633.91
472.344	10619.57
472.549	10574.52
472.754	10402.49
472.959	10402.49
473.164	9845.44
473.369	9980.61
473.574	10558.13
473.778	10314.42
473.983	9906.88
474.188	10252.98
474.393	9800.38
474.598	9446.09
474.802	9659.07
475.007	9628.35
475.212	9380.55
475.417	9130.7
475.621	9130.7
475.826	9108.17
476.031	9159.37
476.235	8692.43
476.44	9067.21
476.645	8835.79
476.849	8886.99
477.054	8641.23
477.259	8585.94
477.463	8596.18
477.668	8393.43
477.872	8448.72
478.077	8200.92
478.282	8057.56
478.486	8065.75
478.691	8078.04
478.895	8002.27
479.1	8032.99
479.304	7858.91
479.509	7645.92
479.713	7768.8
479.918	7766.75
480.122	7541.47
480.326	7549.67
480.531	7860.96
480.735	7592.67
480.94	7592.67
481.144	7752.42
481.348	7453.41
481.553	7504.61
481.757	7338.73
481.961	7365.35
482.166	7461.6
482.37	7465.7
482.574	7287.53
482.778	7275.24
482.983	7463.65
483.187	7480.04
483.391	7518.95
483.595	7285.48
483.8	7498.47
484.004	7371.49
484.208	7553.76
484.412	7498.47
484.616	7414.5
484.821	7439.08
485.025	7318.25
485.229	7445.22
485.433	7490.28
485.637	7377.64
485.841	7334.63
486.045	7441.12
486.249	7437.03
486.453	7189.22
486.657	7508.71
486.861	7488.23
487.065	7033.58
487.269	7283.43
487.473	7260.9
487.677	7361.25
487.881	7371.49
488.085	7385.83
488.289	7428.84
488.493	7385.83
488.697	7424.74
488.901	7473.89
489.105	7494.37
489.309	7408.36
489.512	7359.21
489.716	7512.8
489.92	7525.09
490.124	7473.89
490.328	7752.42
490.531	7414.5
490.735	7480.04
490.939	7602.91
491.143	7760.61
491.346	7529.19
491.55	7713.5
491.754	7590.63
491.958	7768.8
492.161	7779.04
492.365	7834.33
492.569	7719.65
492.772	8020.7
492.976	7906.01
493.18	8098.52
493.383	7998.17
493.587	8028.89
493.79	8354.52
493.994	8039.13
494.197	8051.42
494.401	8108.76
494.605	8360.66
494.808	8172.25
495.012	8331.99
495.215	8471.25
495.419	8252.12
495.622	8397.53
495.825	8657.62
496.029	8620.75
496.232	8788.69
496.436	8606.42
496.639	9087.69
496.843	9083.59
497.046	9032.4
497.249	9126.6
497.453	9095.88
497.656	9376.45
497.859	9274.06
498.063	9319.11
498.266	9704.13
498.469	9503.43
498.673	9730.75
498.876	9941.69
499.079	9910.97
499.282	9992.89
499.485	10207.93
499.689	10216.12
499.892	10271.42
500.095	10295.99
500.298	10642.1
500.501	10711.73
500.705	10685.11
500.908	11041.45
501.111	11029.17
501.314	11135.66
501.517	11193
501.72	11422.38
501.923	11526.82
502.126	11846.3
502.329	11592.36
502.532	12001.95
502.735	12030.62
502.938	12176.03
503.141	12192.41
503.344	12479.13
503.547	12432.02
503.75	12673.68
503.953	12767.89
504.156	13007.5
504.359	12974.74
504.562	13226.64
504.765	13312.65
504.968	13490.82
505.17	13683.33
505.373	13695.62
505.576	14074.49
505.779	13935.23
505.982	14023.3
506.185	14484.09
506.387	14625.4
506.59	14416.51
506.793	14742.13
506.996	14658.17
507.198	15061.62
507.401	15049.33
507.604	15247.98
507.807	15829.6
508.009	15774.31
508.212	15624.81
508.415	15989.35
508.617	16335.45
508.82	16190.05
509.022	16181.85
509.225	16527.96
509.428	17029.71
509.63	16738.9
509.833	16982.61
510.035	17230.41
510.238	17306.19
510.44	17482.31
510.643	17793.61
510.845	18020.93
511.048	17844.81
511.25	18041.41
511.453	18192.96
511.655	18809.4
511.858	18571.83
512.06	18788.92
512.262	19071.54
512.465	19003.96
512.667	19552.81
512.87	19307.05
513.072	19575.34
513.274	20308.51
513.477	20179.49
513.679	20326.94
513.881	20509.21
514.084	20679.19
514.286	20748.82
514.488	20640.28
514.69	21514.77
514.893	21455.37
515.095	21438.99
515.297	22043.14
515.499	21973.51
515.701	22221.31
515.904	22264.32
516.106	22483.45
516.308	22725.11
516.51	23017.97
516.712	23052.79
516.914	23413.23
517.116	23687.66
517.318	23675.37
517.52	23812.59
517.722	23777.77
517.925	24345.06
518.127	24257
518.329	24568.29
518.531	24580.57
518.733	24879.58
518.935	25252.31
519.136	25178.58
519.338	25735.63
519.54	25713.1
519.742	25792.97
519.944	26055.11
520.146	26507.71
520.348	26737.09
520.55	26091.98
520.752	26476.99
520.954	27042.23
521.155	27017.66
521.357	27621.81
521.559	27429.3
521.761	27464.11
521.963	27689.39
522.164	28015.02
522.366	27845.04
522.568	28324.26
522.77	28756.38
522.971	28969.37
523.173	28639.65
523.375	28940.7
523.576	29184.41
523.778	29245.85
523.98	29524.37
524.181	29741.46
524.383	29573.52
524.584	30042.51
524.786	30267.78
524.988	30091.66
525.189	30542.21
525.391	30577.03
525.592	30366.09
525.794	30656.9
525.995	30693.76
526.197	30753.15
526.398	31107.45
526.6	31066.49
526.801	31498.61
527.003	31480.18
527.204	31443.32
527.406	31820.14
527.607	31564.15
527.808	31770.99
528.01	31379.83
528.211	31828.34
528.412	32172.39
528.614	32352.62
528.815	32323.94
529.016	32385.38
529.218	32319.85
529.419	32307.56
529.62	32360.81
529.822	32276.84
530.023	32676.19
530.224	32524.65
530.425	32164.2
530.626	32450.92
530.828	32346.47
531.029	33421.66
531.23	32598.37
531.431	32602.47
531.632	32842.08
531.833	32934.24
532.035	32936.29
532.236	33171.8
532.437	33098.08
532.638	32977.25
532.839	32926.05
533.04	33020.25
533.241	32840.03
533.442	33497.43
533.643	33182.04
533.844	33057.12
534.045	33571.16
534.246	33012.06
534.447	33587.54
534.648	33278.3
534.849	33679.7
535.05	33296.73
535.251	33188.19
535.451	33288.54
535.652	33458.52
535.853	32823.65
536.054	33585.49
536.255	33483.09
536.456	33194.33
536.657	33616.21
536.857	33450.33
537.058	33235.29
537.259	33417.56
537.46	33513.81
537.66	33323.35
537.861	33397.08
538.062	33175.9
538.263	33612.12
538.463	33155.42
538.664	33581.4
538.865	33591.64
539.065	33575.25
539.266	32895.33
539.466	33306.97
539.667	32893.28
539.868	33591.64
540.068	33747.28
540.269	33347.93
540.469	33569.11
540.67	33239.39
540.87	33194.33
541.071	33327.45
541.271	33444.18
541.472	33253.72
541.672	33096.03
541.873	32911.71
542.073	33126.75
542.274	33784.15
542.474	33046.88
542.675	33042.78
542.875	33405.27
543.075	33018.21
543.276	33165.66
543.476	33667.41
543.676	33100.12
543.877	33229.15
544.077	33028.45
544.277	33147.23
544.478	33163.61
544.678	33544.53
544.878	33255.77
545.078	33270.11
545.279	32823.65
545.479	33003.87
545.679	33216.86
545.879	32883.04
546.079	33208.67
546.28	32995.68
546.48	32866.66
546.68	32987.49
546.88	33354.07
547.08	33180
547.28	33192.28
547.48	32985.44
547.68	33282.39
547.88	33079.64
548.081	33229.15
548.281	33106.27
548.481	32962.91
548.681	33218.91
548.881	33003.87
549.081	32989.53
549.28	33112.41
549.48	33102.17
549.68	32872.8
549.88	33458.52
550.08	32979.29
550.28	33333.59
550.48	32977.25
550.68	33249.63
550.88	32950.62
551.08	32774.5
551.279	33208.67
551.479	32604.52
551.679	32692.58
551.879	32964.96
552.079	33079.64
552.278	32878.94
552.478	33022.3
552.678	32797.02
552.878	33075.55
553.077	33069.4
553.277	32792.93
553.477	33069.4
553.676	32790.88
553.876	32479.59
554.076	32874.85
554.275	32254.31
554.475	32342.38
554.674	32422.25
554.874	32938.33
555.074	32629.09
555.273	32711.01
555.473	32586.08
555.672	32686.43
555.872	32598.37
556.071	32956.77
556.271	32754.02
556.47	32461.16
556.67	32391.53
556.869	32407.91
557.068	32207.21
557.268	32280.94
557.467	32686.43
557.667	32385.38
557.866	32203.11
558.065	32426.34
558.265	31943.02
558.464	31934.83
558.663	32528.74
558.863	31854.96
559.062	32698.72
559.261	31715.7
559.461	32625
559.66	31897.97
559.859	32008.56
560.058	31881.58
560.258	32096.62
560.457	31588.72
560.656	31758.7
560.855	32070
561.054	31848.82
561.253	31619.44
561.453	31897.97
561.652	31633.78
561.851	31879.53
562.05	31697.27
562.249	31627.63
562.448	31773.04
562.647	31302.01
562.846	31678.83
563.045	31431.03
563.244	31222.14
563.443	31943.02
563.642	31013.24
563.841	31410.55
564.04	30939.52
564.239	31377.78
564.438	30833.02
564.637	31125.88
564.836	30953.85
565.035	30951.81
565.234	31101.31
565.432	30779.78
565.631	31068.54
565.83	31084.92
566.029	30790.02
566.228	30693.76
566.427	30347.65
566.625	30523.78
566.824	30398.85
567.023	30814.59
567.222	30118.28
567.42	30392.71
567.619	30323.08
567.818	30542.21
568.016	29823.37
568.215	30644.61
568.414	30071.18
568.612	30405
568.811	30120.33
569.01	30288.26
569.208	29591.95
569.407	29976.97
569.605	29305.24
569.804	29860.24
570.002	29507.99
570.201	29716.88
570.4	29428.12
570.598	29757.84
570.797	29415.83
570.995	29469.08
571.193	29135.26
571.392	29763.98
571.59	29344.15
571.789	29450.64
571.987	28926.36
572.186	29186.46
572.384	28760.48
572.582	28998.04
572.781	29092.25
572.979	28903.84
573.177	28737.95
573.376	29077.91
573.574	28469.67
573.772	28961.18
573.971	28637.6
574.169	28543.39
574.367	28455.33
574.565	28328.36
574.763	28492.19
574.962	28207.53
575.16	28053.93
575.358	28191.14
575.556	28137.9
575.754	28058.03
575.952	27972.01
576.151	27990.44
576.349	27904.43
576.547	27509.17
576.745	28090.79
576.943	27898.28
577.141	27849.13
577.339	28051.88
577.537	27771.31
577.735	27556.27
577.933	27298.23
578.131	27490.74
578.329	27529.65
578.527	27273.65
578.725	27253.17
578.923	27423.15
579.121	26814.91
579.319	26921.4
579.516	26925.5
579.714	27169.21
579.912	26646.97
580.11	26812.86
580.308	26939.83
580.506	26673.6
580.704	26429.89
580.901	26472.9
581.099	26569.15
581.297	26606.02
581.495	26345.92
581.692	26487.23
581.89	25833.93
582.088	26425.79
582.285	26020.3
582.483	26374.59
582.681	26096.07
582.878	26059.21
583.076	25743.82
583.274	25885.13
583.471	25721.29
583.669	25786.83
583.866	25422.29
584.064	25936.33
584.262	25127.38
584.459	25414.1
584.657	25315.8
584.854	25399.76
585.052	24842.71
585.249	25397.71
585.447	25283.03
585.644	24756.7
585.841	25186.77
586.039	25471.44
586.236	24748.51
586.434	24564.19
586.631	24717.79
586.828	25197.01
587.026	24693.21
587.223	24605.15
587.42	24437.22
587.618	24838.62
587.815	24328.67
588.012	24332.77
588.21	24179.17
588.407	24525.28
588.604	24400.35
588.801	24125.93
588.999	24039.91
589.196	23757.29
589.393	23943.66
589.59	24009.19
589.787	23990.76
589.984	23546.35
590.182	23472.62
590.379	23724.52
590.576	23448.05
590.773	23642.6
590.97	23499.25
591.167	23427.57
591.364	23425.52
591.561	23370.22
591.758	23089.65
591.955	22891
592.152	23198.2
592.349	22688.25
592.546	22931.96
592.743	22817.27
592.94	22643.2
593.137	22843.9
593.334	22764.03
593.531	22303.23
593.727	22651.39
593.924	22682.11
594.121	22465.02
594.318	22467.07
594.515	22096.39
594.712	22643.2
594.908	22184.45
595.105	22211.07
595.302	22116.87
595.499	22141.44
595.696	22016.52
595.892	21996.04
596.089	22166.02
596.286	21768.71
596.482	21717.51
596.679	21979.65
596.876	21985.8
597.072	21639.69
597.269	21867.02
597.466	21336.59
597.662	21498.38
597.859	21318.16
598.055	21561.87
598.252	21223.95
598.448	21512.72
598.645	21309.97
598.841	20986.39
599.038	21008.92
599.234	20945.43
599.431	21064.21
599.627	20822.55
599.824	20873.75
600.02	20658.71
600.217	20847.13
600.413	20722.2
600.609	20650.52
600.806	20517.4
601.002	20474.4
601.198	20384.29
601.395	20480.54
601.591	20380.19
601.787	20189.73
601.984	20062.76
602.18	20435.49
602.376	20130.34
602.572	19694.12
602.769	20046.37
602.965	19612.2
603.161	19933.73
603.357	19704.36
603.553	19749.42
603.75	19534.38
603.946	19329.58
604.142	19692.07
604.338	19280.43
604.534	19558.95
604.73	19317.29
604.926	19141.17
605.122	19616.3
605.318	19079.73
605.514	19227.18
605.71	19028.53
605.906	19194.42
606.102	18946.61
606.298	18967.09
606.494	19049.01
606.69	18954.8
606.886	18788.92
607.082	18577.98
607.278	18690.62
607.474	18389.56
607.67	18774.58
607.866	18553.4
608.062	18799.16
608.257	18625.08
608.453	18569.79
608.649	18471.48
608.845	18272.83
609.041	18442.81
609.236	18403.9
609.432	18252.35
609.628	18375.23
609.824	18364.99
610.019	18278.97
610.215	18061.89
610.411	18176.58
610.606	17881.67
610.802	18223.68
610.998	18025.03
611.193	18082.37
611.389	18018.88
611.584	18278.97
611.78	18029.12
611.976	17855.04
612.171	17869.38
612.367	18055.75
612.562	17918.53
612.758	17547.85
612.953	17427.02
613.149	17734.21
613.344	17449.55
613.539	17869.38
613.735	17533.51
613.93	17674.82
614.126	17609.29
614.321	17828.42
614.517	17809.99
614.712	17412.68
614.907	17551.95
615.103	17486.41
615.298	17242.7
615.493	17592.9
615.688	17254.99
615.884	17637.96
616.079	17373.77
616.274	16921.17
616.47	17199.69
616.665	17070.67
616.86	17224.27
617.055	16734.81
617.25	16996.95
617.445	17003.09
617.641	16908.88
617.836	16986.71
618.031	16738.9
618.226	16720.47
618.421	16792.15
618.616	17050.19
618.811	16546.39
619.006	16634.46
619.201	16677.46
619.396	16456.28
619.591	16208.48
619.786	16394.84
619.981	16306.78
620.176	16396.89
620.371	15989.35
620.566	15964.77
620.761	16200.29
620.956	16271.97
621.151	16112.22
621.346	15977.06
621.541	15692.39
621.735	15952.48
621.93	15452.78
622.125	15811.17
622.32	15139.44
622.515	15608.42
622.709	15393.39
622.904	15417.96
623.099	15098.48
623.294	15393.39
623.488	15014.51
623.683	15127.15
623.878	14750.32
624.072	14858.87
624.267	14852.72
624.462	14871.15
624.656	14563.96
624.851	14639.73
625.046	14733.94
625.24	14262.91
625.435	14574.2
625.629	14258.81
625.824	14359.16
626.018	14174.85
626.213	13941.38
626.407	14047.87
626.602	13757.06
626.796	13879.94
626.991	13802.11
627.185	13818.5
627.38	13435.53
627.574	13570.69
627.768	13337.23
627.963	13621.89
628.157	13308.55
628.352	13212.3
628.546	13044.37
628.74	13187.72
628.935	12960.4
629.129	13142.67
629.323	12882.58
629.517	12984.98
629.712	12903.06
629.906	12993.17
630.1	12585.62
630.294	12743.31
630.489	12522.13
630.683	12597.91
630.877	12419.74
631.071	12384.92
631.265	12255.9
631.459	12159.64
631.653	12200.6
631.848	12411.54
632.042	11913.89
632.236	11850.4
632.43	11704.99
632.624	12014.24
632.818	11731.62
633.012	11637.41
633.206	11764.39
633.4	11717.28
633.594	11397.8
633.788	11307.69
633.982	11412.14
634.176	11629.22
634.369	11395.75
634.563	11246.25
634.757	11111.08
634.951	11283.11
635.145	10955.44
635.339	11215.53
635.533	11027.12
635.726	10822.32
635.92	10781.36
636.114	10703.54
636.308	10853.04
636.501	10717.87
636.695	10742.45
636.889	10537.65
637.083	10562.23
637.276	10517.17
637.47	10404.53
637.664	10400.44
637.857	10300.09
638.051	10234.55
638.244	10109.63
638.438	10312.38
638.632	10214.07
638.825	10083
639.019	10085.05
639.212	10070.72
639.406	9794.24
639.599	9841.34
639.793	9812.67
639.986	9712.32
640.18	9681.6
640.373	9759.42
640.567	9448.13
640.76	9579.2
640.954	9601.73
641.147	9573.06
641.34	9609.92
641.534	9390.79
641.727	9335.49
641.92	9462.47
642.114	9081.55
642.307	9224.9
642.5	9050.83
642.694	8975.05
642.887	8962.76
643.08	9163.47
643.273	8895.18
643.467	8927.95
643.66	8907.47
643.853	8831.69
644.046	8741.58
644.239	8659.67
644.432	8624.85
644.626	8630.99
644.819	8518.36
645.012	8571.6
645.205	8635.09
645.398	8504.02
645.591	8268.5
645.784	8391.38
645.977	8456.92
646.17	8213.21
646.363	8227.54
646.556	8209.11
646.749	8184.54
646.942	8135.39
647.135	8104.67
647.328	8016.6
647.521	8045.27
647.714	7977.69
647.907	7932.64
648.099	7858.91
648.292	7963.36
648.485	7746.27
648.678	7709.41
648.871	7871.2
649.064	7733.98
649.256	7674.59
649.449	7670.5
649.642	7719.65
649.835	7400.16
650.027	7584.48
650.22	7434.98
650.413	7305.96
650.605	7475.94
650.798	7428.84
650.991	7201.51
651.183	7242.47
651.376	7250.66
651.568	7121.64
651.761	7123.69
651.954	7246.57
652.146	7215.85
652.339	7150.31
652.531	7047.91
652.724	7107.3
652.916	6828.78
653.109	6914.8
653.301	6947.56
653.494	6890.22
653.686	6798.06
653.879	6986.47
654.071	6742.77
654.263	6548.21
654.456	6853.36
654.648	6742.77
654.84	6593.26
655.033	6808.3
655.225	6521.59
655.417	6421.24
655.61	6505.2
655.802	6505.2
655.994	6454
656.186	6503.15
656.379	6421.24
656.571	6337.27
656.763	6195.96
656.955	6222.58
657.148	6331.12
657.34	6327.03
657.532	6152.95
657.724	6056.7
657.916	6150.9
658.108	6054.65
658.3	6015.74
658.492	6050.55
658.684	6028.03
658.876	6056.7
659.068	5974.78
659.26	5829.37
659.452	6124.28
659.644	5903.1
659.836	5880.57
660.028	5888.76
660.22	5645.06
660.412	5786.37
660.604	5620.48
660.796	5812.99
660.988	5554.94
661.18	5511.94
661.372	5630.72
661.563	5577.47
661.755	5618.43
661.947	5489.41
662.139	5477.12
662.331	5540.61
662.522	5278.47
662.714	5438.21
662.906	5237.51
663.097	5446.4
663.289	5319.43
663.481	5364.48
663.673	5288.71
663.864	5262.09
664.056	5137.16
664.247	5382.92
664.439	5262.09
664.631	5208.84
664.822	5200.65
665.014	5088.01
665.205	5075.72
665.397	5065.48
665.588	4987.66
665.78	4975.37
665.971	4975.37
666.163	5133.06
666.354	4832.01
666.546	4858.64
666.737	4752.14
666.929	4821.77
667.12	4840.2
667.311	4811.53
667.503	4752.14
667.694	4813.58
667.885	4758.28
668.077	4803.34
668.268	4682.51
668.459	4623.12
668.651	4911.88
668.842	4676.37
669.033	4623.12
669.224	4717.33
669.416	4684.56
669.607	4567.82
669.798	4520.72
669.989	4571.92
670.18	4522.77
670.371	4487.95
670.563	4586.26
670.754	4328.21
670.945	4485.9
671.136	4428.56
671.327	4449.04
671.518	4389.65
671.709	4373.27
671.9	4477.71
672.091	4274.96
672.282	4295.44
672.473	4320.02
672.664	4285.2
672.855	4317.97
673.046	4117.27
673.237	4025.11
673.428	4338.45
673.619	4277.01
673.809	4182.81
674	4168.47
674.191	4307.73
674.382	4115.22
674.573	4152.09
674.764	3969.82
674.954	4205.33
675.145	4109.08
675.336	3975.96
675.527	4012.82
675.717	4039.45
675.908	4090.65
676.099	4008.73
676.289	4008.73
676.48	4051.74
676.671	3957.53
676.861	3982.1
677.052	4096.79
677.243	3986.2
677.433	3881.75
677.624	3834.65
677.814	3812.12
678.005	4006.68
678.195	4000.54
678.386	4002.58
678.576	3863.32
678.767	3779.36
678.957	3902.23
679.148	3912.47
679.338	3791.64
679.529	3748.64
679.719	3789.6
679.909	3773.21
680.1	3713.82
680.29	3789.6
680.481	3859.23
680.671	3752.73
680.861	3726.11
681.052	3738.4
681.242	3828.51
681.432	3754.78
681.622	3588.89
681.813	3808.03
682.003	3707.68
682.193	3611.42
682.383	3629.85
682.573	3629.85
682.764	3480.35
682.954	3627.81
683.144	3582.75
683.334	3642.14
683.524	3656.48
683.714	3627.81
683.904	3703.58
684.094	3615.52
684.284	3543.84
684.474	3672.86
684.664	3488.54
684.854	3623.71
685.044	3468.06
685.234	3498.78
685.424	3525.41
685.614	3425.06
685.804	3484.45
685.994	3478.3
686.184	3447.58
686.374	3316.51
686.564	3523.36
686.753	3463.97
686.943	3449.63
687.133	3363.62
687.323	3412.77
687.513	3466.02
687.702	3339.04
687.892	3345.19
688.082	3355.43
688.272	3377.95
688.461	3357.47
688.651	3351.33
688.841	3181.35
689.03	3281.7
689.22	3287.84
689.41	3234.6
689.599	3185.44
689.789	3132.2
689.979	3205.92
690.168	3115.81
690.358	3081
690.547	3037.99
690.737	3054.37
690.926	3091.24
691.116	3103.53
691.305	3162.92
691.495	3234.6
691.684	3064.61
691.874	3025.7
692.063	2968.36
692.252	2888.49
692.442	3052.33
692.631	2935.59
692.82	2880.3
693.01	2931.5
693.199	3027.75
693.388	2870.06
693.578	2945.83
693.767	2947.88
693.956	3015.46
694.146	2841.39
694.335	2749.23
694.524	2781.99
694.713	2890.54
694.902	2825
695.092	2736.94
695.281	2814.76
695.47	2894.63
695.659	2712.36
695.848	2765.61
696.037	2775.85
696.226	2681.64
696.415	2693.93
696.604	2669.36
696.793	2681.64
696.982	2681.64
697.171	2659.12
697.36	2650.92
697.549	2657.07
697.738	2605.87
697.927	2714.41
698.116	2667.31
698.305	2536.24
698.494	2652.97
698.683	2659.12
698.872	2648.88
699.061	2515.76
699.25	2487.09
699.438	2499.38
699.627	2554.67
699.816	2546.48
700.005	2620.21
700.193	2573.1
700.382	2530.09
700.571	2497.33
700.76	2575.15
700.948	2607.92
701.137	2466.61
701.326	2511.66
701.514	2468.66
701.703	2605.87
701.892	2401.07
702.08	2526
702.269	2609.97
702.457	2470.7
702.646	2499.38
702.834	2511.66
703.023	2544.43
703.212	2540.33
703.4	2505.52
703.589	2552.62
703.777	2540.33
703.965	2446.13
704.154	2530.09
704.342	2405.17
704.531	2442.03
704.719	2554.67
704.907	2503.47
705.096	2462.51
705.284	2448.18
705.472	2476.85
705.661	2495.28
705.849	2429.74
706.037	2505.52
706.226	2448.18
706.414	2444.08
706.602	2591.53
706.79	2550.57
706.979	2446.13
707.167	2511.66
707.355	2560.81
707.543	2435.89
707.731	2566.96
707.919	2421.55
708.107	2431.79
708.296	2464.56
708.484	2511.66
708.672	2425.65
708.86	2519.85
709.048	2433.84
709.236	2442.03
709.424	2507.57
709.612	2511.66
709.8	2378.55
709.988	2368.31
710.176	2341.68
710.364	2546.48
710.551	2419.5
710.739	2542.38
710.927	2526
711.115	2433.84
711.303	2407.22
711.491	2446.13
711.679	2454.32
711.866	2439.98
712.054	2607.92
712.242	2427.7
712.43	2417.46
712.617	2542.38
712.805	2489.14
712.993	2386.74
713.181	2425.65
713.368	2394.93
713.556	2429.74
713.744	2388.78
713.931	2444.08
714.119	2286.39
714.306	2413.36
714.494	2505.52
714.682	2372.4
714.869	2327.35
715.057	2439.98
715.244	2562.86
715.432	2495.28
715.619	2495.28
715.807	2462.51
715.994	2538.29
716.182	2335.54
716.369	2460.46
716.556	2513.71
716.744	2405.17
716.931	2478.9
717.119	2407.22
717.306	2482.99
717.493	2382.64
717.681	2401.07
717.868	2405.17
718.055	2456.37
718.242	2538.29
718.43	2319.15
718.617	2429.74
718.804	2425.65
718.991	2491.18
719.179	2503.47
719.366	2399.02
719.553	2542.38
719.74	2431.79
719.927	2401.07
720.114	2437.94
720.301	2495.28
720.488	2388.78
720.676	2532.14
720.863	2382.64
721.05	2394.93
721.237	2372.4
721.424	2487.09
721.611	2507.57
721.798	2446.13
721.985	2427.7
722.172	2370.35
722.358	2384.69
722.545	2390.83
722.732	2286.39
722.919	2542.38
723.106	2396.98
723.293	2538.29
723.48	2353.97
723.667	2394.93
723.853	2370.35
724.04	2521.9
724.227	2577.2
724.414	2362.16
724.6	2341.68
724.787	2419.5
724.974	2433.84
725.161	2470.7
725.347	2343.73
725.534	2423.6
725.72	2468.66
725.907	2468.66
726.094	2405.17
726.28	2351.92
726.467	2458.42
726.653	2390.83
726.84	2523.95
727.027	2446.13
727.213	2382.64
727.4	2462.51
727.586	2308.91
727.773	2442.03
727.959	2388.78
728.145	2439.98
728.332	2405.17
728.518	2407.22
728.705	2493.23
728.891	2454.32
729.077	2364.21
729.264	2366.26
729.45	2458.42
729.636	2497.33
729.823	2497.33
730.009	2429.74
730.195	2462.51
730.382	2399.02
730.568	2382.64
730.754	2423.6
730.94	2360.11
731.126	2503.47
731.313	2388.78
731.499	2509.62
731.685	2390.83
731.871	2556.72
732.057	2415.41
732.243	2310.96
732.429	2368.31
732.615	2503.47
732.801	2388.78
732.987	2466.61
733.173	2462.51
733.359	2417.46
733.545	2439.98
733.731	2503.47
733.917	2386.74
734.103	2474.8
734.289	2321.2
734.475	2423.6
734.661	2468.66
734.847	2493.23
735.033	2284.34
735.219	2415.41
735.404	2374.45
735.59	2528.05
735.776	2370.35
735.962	2450.22
736.148	2456.37
736.333	2382.64
736.519	2376.5
736.705	2270
736.89	2448.18
737.076	2374.45
737.262	2243.38
737.447	2327.35
737.633	2435.89
737.819	2439.98
738.004	2478.9
738.19	2403.12
738.375	2368.31
738.561	2374.45
738.747	2220.85
738.932	2345.78
739.118	2409.26
739.303	2288.43
739.489	2239.28
739.674	2296.63
739.859	2272.05
740.045	2265.91
740.23	2267.95
740.416	2263.86
740.601	2411.31
740.786	2292.53
740.972	2204.47
741.157	2366.26
741.342	2296.63
741.528	2288.43
741.713	2278.19
741.898	2220.85
742.084	2212.66
742.269	2233.14
742.454	2263.86
742.639	2222.9
742.824	2194.23
743.01	2181.94
743.195	2124.6
743.38	2173.75
743.565	2210.61
743.75	2251.57
743.935	2132.79
744.12	2300.72
744.305	2116.41
744.49	2124.6
744.675	2188.08
744.86	2077.49
745.045	2128.69
745.23	2022.2
745.415	2143.03
745.6	2118.45
745.785	2128.69
745.97	2095.93
746.155	1975.1
746.34	2138.93
746.525	2091.83
746.71	1936.18
746.895	1999.67
747.079	2159.41
747.264	1971
747.449	1856.31
747.634	1942.33
747.819	1960.76
748.003	1868.6
748.188	1942.33
748.373	1934.14
748.557	1874.74
748.742	1911.61
748.927	1807.16
749.111	1796.92
749.296	1880.89
749.481	1852.22
749.665	1809.21
749.85	1856.31
750.034	1794.87
750.219	1635.13
750.404	1774.39
750.588	1698.62
750.773	1772.35
750.957	1784.63
751.141	1737.53
751.326	1790.78
751.51	1753.91
751.695	1655.61
751.879	1770.3
752.064	1723.2
752.248	1760.06
752.432	1647.42
752.617	1694.52
752.801	1686.33
752.985	1682.24
753.17	1680.19
753.354	1674.04
753.538	1741.63
753.722	1649.47
753.907	1504.06
754.091	1426.24
754.275	1547.07
754.459	1520.45
754.643	1536.83
754.828	1499.97
755.012	1545.02
755.196	1442.62
755.38	1530.69
755.564	1452.86
755.748	1485.63
755.932	1489.73
756.116	1440.58
756.3	1426.24
756.484	1379.14
756.668	1358.66
756.852	1377.09
757.036	1436.48
757.22	1319.75
757.404	1385.28
757.588	1332.03
757.772	1395.52
757.956	1350.46
758.14	1372.99
758.323	1319.75
758.507	1282.88
758.691	1346.37
758.875	1248.07
759.059	1262.4
759.242	1276.74
759.426	1217.35
759.61	1299.27
759.794	1241.92
759.977	1258.31
760.161	1348.42
760.345	1264.45
760.528	1282.88
760.712	1225.54
760.895	1227.59
761.079	1211.2
761.263	1178.44
761.446	1106.76
761.63	1155.91
761.813	1225.54
761.997	1133.38
762.18	1190.72
762.364	1205.06
762.547	1160
762.731	1213.25
762.914	1231.68
763.098	1143.62
763.281	1131.33
763.464	1022.79
763.648	1149.76
763.831	1014.6
764.015	1086.28
764.198	1059.65
764.381	1135.43
764.564	1057.61
764.748	1057.61
764.931	1133.38
765.114	1051.46
765.297	1063.75
765.481	1063.75
765.664	1069.89
765.847	1051.46
766.03	1094.47
766.213	969.54
766.397	1096.52
766.58	992.07
766.763	1086.28
766.946	1020.74
767.129	1012.55
767.312	959.3
767.495	947.01
767.678	1045.32
767.861	1002.31
768.044	899.91
768.227	1047.37
768.41	996.17
768.593	971.59
768.776	1067.85
768.959	944.97
769.142	914.25
769.324	1002.31
769.507	955.21
769.69	877.38
769.873	979.78
770.056	971.59
770.239	879.43
770.421	877.38
770.604	863.05
770.787	1022.79
770.97	904.01
771.152	908.1
771.335	918.34
771.518	916.3
771.7	875.34
771.883	897.86
772.066	881.48
772.248	793.42
772.431	953.16
772.613	834.38
772.796	949.06
772.978	883.53
773.161	828.23
773.343	895.82
773.526	899.91
773.708	729.93
773.891	813.9
774.073	834.38
774.256	799.56
774.438	815.94
774.621	736.07
774.803	815.94
774.985	713.55
775.168	781.13
775.35	817.99
775.532	852.81
775.715	807.75
775.897	740.17
776.079	746.31
776.261	799.56
776.444	768.84
776.626	670.54
776.808	688.97
776.99	736.07
777.173	848.71
777.355	715.59
777.537	654.16
777.719	711.5
777.901	717.64
778.083	656.2
778.265	625.48
778.447	676.68
778.629	635.72
778.811	729.93
778.993	639.82
779.175	686.92
779.357	645.96
779.539	652.11
779.721	637.77
779.903	695.11
780.085	652.11
780.267	648.01
780.449	678.73
780.631	631.63
780.812	625.48
780.994	631.63
781.176	590.67
781.358	615.24
781.54	574.28
781.721	645.96
781.903	488.27
782.085	607.05
782.267	598.86
782.448	592.72
782.63	473.93
782.812	484.17
782.993	602.96
783.175	572.24
783.357	549.71
783.538	545.61
783.72	539.47
783.901	490.32
784.083	453.45
784.264	498.51
784.446	508.75
784.627	404.3
784.809	498.51
784.99	521.04
785.172	535.37
785.353	455.5
785.535	543.57
785.716	498.51
785.897	428.88
786.079	510.8
786.26	449.36
786.441	441.17
786.623	459.6
786.804	510.8
786.985	404.3
787.167	383.82
787.348	443.21
787.529	428.88
787.71	559.95
787.891	478.03
788.073	412.5
788.254	346.96
788.435	514.89
788.616	408.4
788.797	373.58
788.978	449.36
789.159	492.37
789.34	402.26
789.522	353.1
789.703	449.36
789.884	394.06
790.065	430.93
790.246	418.64
790.427	394.06
790.607	461.65
790.788	488.27
790.969	422.73
791.15	484.17
791.331	379.73
791.512	394.06
791.693	396.11
791.874	404.3
792.054	281.43
792.235	346.96
792.416	369.49
792.597	371.54
792.778	392.02
792.958	314.19
793.139	330.58
793.32	344.91
793.5	381.78
793.681	330.58
793.862	398.16
794.042	367.44
794.223	281.43
794.404	349.01
794.584	297.81
794.765	306
794.945	369.49
795.126	289.62
795.306	334.67
795.487	361.3
795.667	310.1
795.848	326.48
796.028	346.96
796.209	316.24
796.389	344.91
796.57	275.28
796.75	342.86
796.93	328.53
797.111	340.82
797.291	359.25
797.471	328.53
797.652	381.78
797.832	265.04
798.012	314.19
798.192	301.9
798.373	346.96
798.553	275.28
798.733	224.08
798.913	166.74
799.093	285.52
799.274	246.61
799.454	306
799.634	299.86
799.814	297.81
799.994	301.9
800.174	316.24
800.354	271.19
800.534	260.95
800.714	314.19
800.894	240.47
801.074	238.42
801.254	269.14
801.434	301.9
801.614	213.84
801.794	179.03
801.974	715.59
802.154	283.47
802.334	310.1
802.514	301.9
802.693	303.95
802.873	203.6
803.053	281.43
803.233	260.95
803.413	340.82
803.592	285.52
803.772	205.65
803.952	262.99
804.131	328.53
804.311	287.57
804.491	252.75
804.67	146.26
804.85	195.41
805.03	254.8
805.209	299.86
805.389	269.14
805.568	287.57
805.748	187.22
805.928	219.99
806.107	226.13
806.287	197.46
806.466	252.75
806.646	217.94
806.825	115.54
807.004	189.27
807.184	236.37
807.363	238.42
807.543	260.95
807.722	232.27
807.901	232.27
808.081	183.12
808.26	170.83
808.439	146.26
808.619	222.03
808.798	70.48
808.977	172.88
809.156	219.99
809.336	252.75
809.515	222.03
809.694	287.57
809.873	228.18
810.052	140.12
810.231	230.23
810.411	238.42
810.59	207.7
810.769	183.12
810.948	256.85
811.127	152.4
811.306	240.47
811.485	133.97
811.664	201.55
811.843	168.79
812.022	152.4
812.201	158.55
812.38	205.65
812.559	187.22
812.737	242.51
812.916	222.03
813.095	150.36
813.274	176.98
813.453	238.42
813.632	238.42
813.811	183.12
813.989	201.55
814.168	252.75
814.347	109.4
814.526	142.16
814.704	117.59
814.883	226.13
815.062	127.83
815.24	138.07
815.419	88.92
815.598	238.42
815.776	174.93
815.955	179.03
816.133	111.44
816.312	64.34
816.49	148.31
816.669	174.93
816.847	136.02
817.026	146.26
817.204	127.83
817.383	160.59
817.561	107.35
817.74	164.69
817.918	250.71
818.097	129.88
818.275	158.55
818.453	164.69
818.632	148.31
818.81	131.92
818.988	101.2
819.167	131.92
819.345	152.4
819.523	78.68
819.701	201.55
819.879	160.59
820.058	97.11
820.236	142.16
820.414	17.24
820.592	146.26
820.77	129.88
820.948	172.88
821.127	97.11
821.305	160.59
821.483	199.51
821.661	170.83
821.839	203.6
822.017	138.07
822.195	68.44
822.373	146.26
822.551	142.16
822.729	129.88
822.907	64.34
823.085	195.41
823.262	138.07
823.44	160.59
823.618	168.79
823.796	72.53
823.974	138.07
824.152	82.77
824.329	142.16
824.507	97.11
824.685	146.26
824.863	119.64
825.04	138.07
825.218	90.96
825.396	136.02
825.574	142.16
825.751	111.44
825.929	123.73
826.107	86.87
826.284	136.02
826.462	82.77
826.639	119.64
826.817	74.58
826.994	86.87
827.172	119.64
827.349	121.68
827.527	11.09
827.704	113.49
827.882	160.59
828.059	64.34
828.237	105.3
828.414	158.55
828.591	19.29
828.769	105.3
828.946	133.97
829.124	115.54
829.301	168.79
829.478	146.26
829.655	119.64
829.833	95.06
830.01	101.2
830.187	121.68
830.364	172.88
830.542	164.69
830.719	127.83
830.896	107.35
831.073	56.15
831.25	101.2
831.427	115.54
831.604	127.83
831.782	60.24
831.959	99.16
832.136	41.81
832.313	84.82
832.49	105.3
832.667	78.68
832.844	64.34
833.021	166.74
833.198	45.91
833.374	56.15
833.551	72.53
833.728	121.68
833.905	164.69
834.082	33.62
834.259	197.46
834.436	107.35
834.612	31.57
834.789	146.26
834.966	111.44
835.143	131.92
835.319	113.49
835.496	113.49
835.673	78.68
835.85	138.07
836.026	142.16
836.203	82.77
836.38	93.01
836.556	33.62
836.733	158.55
836.909	90.96
837.086	66.39
837.262	52.05
837.439	72.53
837.616	13.14
837.792	74.58
837.968	43.86
838.145	-13.48
838.321	152.4
838.498	107.35
838.674	144.21
838.851	27.48
839.027	140.12
839.203	127.83
839.38	105.3
839.556	107.35
839.732	105.3
839.909	74.58
840.085	58.2
840.261	76.63
840.437	95.06
840.614	64.34
840.79	64.34
840.966	152.4
841.142	25.43
841.318	41.81
841.494	127.83
841.671	84.82
841.847	129.88
842.023	99.16
842.199	58.2
842.375	52.05
842.551	21.33
842.727	41.81
842.903	172.88
843.079	88.92
843.255	88.92
843.431	39.76
843.607	72.53
843.783	21.33
843.959	97.11
844.134	9.05
844.31	172.88
844.486	97.11
844.662	105.3
844.838	9.05
845.013	19.29
845.189	84.82
845.365	4.95
845.541	9.05
845.716	19.29
845.892	105.3
846.068	72.53
846.244	74.58
846.419	99.16
846.595	82.77
846.77	60.24
846.946	37.72
847.122	117.59
847.297	35.67
847.473	111.44
847.648	29.52
847.824	41.81
847.999	-31.91
848.175	58.2
848.35	76.63
848.526	68.44
848.701	37.72
848.876	113.49
849.052	117.59
849.227	146.26
849.403	4.95
849.578	109.4
849.753	43.86
849.929	72.53
850.104	115.54
850.279	125.78
850.454	60.24
850.63	70.48
850.805	-7.34
850.98	76.63
851.155	56.15
851.33	56.15
851.505	93.01
851.681	101.2
851.856	41.81
852.031	66.39
852.206	68.44
852.381	76.63
852.556	68.44
852.731	117.59
852.906	105.3
853.081	84.82
853.256	-21.67
853.431	78.68
853.606	101.2
853.781	29.52
853.956	-9.39
854.131	70.48
854.305	72.53
854.48	-25.77
854.655	11.09
854.83	13.14
855.005	43.86
855.18	-3.24
855.354	33.62
855.529	111.44
855.704	45.91
855.879	60.24
856.053	78.68
856.228	33.62
856.403	62.29
856.577	82.77
856.752	-21.67
856.926	-11.43
857.101	19.29
857.276	13.14
857.45	25.43
857.625	29.52
857.799	74.58
857.974	58.2
858.148	35.67
858.323	27.48
858.497	2.9
858.672	21.33
858.846	-19.63
859.02	31.57
859.195	21.33
859.369	39.76
859.543	66.39
859.718	31.57
859.892	13.14
860.066	4.95
860.241	62.29
860.415	33.62
860.589	-17.58
860.763	113.49
860.938	-29.87
861.112	74.58
861.286	17.24
861.46	-25.77
861.634	29.52
861.808	35.67
861.982	19.29
862.157	31.57
862.331	43.86
862.505	45.91
862.679	60.24
862.853	35.67
863.027	13.14
863.201	133.97
863.375	-15.53
863.549	45.91
863.722	66.39
863.896	31.57
864.07	21.33
864.244	33.62
864.418	43.86
864.592	78.68
864.766	41.81
864.939	17.24
865.113	29.52
865.287	45.91
865.461	-42.15
865.634	72.53
865.808	11.09
865.982	9.05
866.156	47.96
866.329	31.57
866.503	25.43
866.676	35.67
866.85	35.67
867.024	66.39
867.197	76.63
867.371	115.54
867.544	82.77
867.718	64.34
867.891	101.2
868.065	15.19
868.238	-3.24
868.412	23.38
868.585	43.86
868.759	-7.34
868.932	-23.72
869.105	4.95
869.279	4.95
869.452	33.62
869.625	13.14
869.799	13.14
869.972	-1.19
870.145	78.68
870.319	-1.19
870.492	50
870.665	54.1
870.838	-7.34
871.011	23.38
871.185	33.62
871.358	0.85
871.531	19.29
871.704	15.19
871.877	78.68
872.05	68.44
872.223	39.76
872.396	31.57
872.569	-19.63
872.742	-19.63
872.915	66.39
873.088	29.52
873.261	78.68
873.434	13.14
873.607	41.81
873.78	74.58
873.953	2.9
874.126	33.62
874.299	80.72
874.471	29.52
874.644	9.05
874.817	19.29
874.99	76.63
875.163	13.14
875.335	21.33
875.508	-11.43
875.681	52.05
875.853	2.9
876.026	78.68
876.199	129.88
876.371	17.24
876.544	23.38
876.717	45.91
876.889	-27.82
877.062	27.48
877.234	90.96
877.407	101.2
877.579	52.05
877.752	33.62
877.924	99.16
878.097	-7.34
878.269	-17.58
878.442	74.58
878.614	21.33
878.786	-3.24
878.959	-1.19
879.131	56.15
879.303	66.39
879.476	62.29
879.648	37.72
879.82	2.9
879.993	-27.82
880.165	37.72
880.337	-44.2
880.509	39.76
880.681	-40.11
880.854	43.86
881.026	101.2
881.198	15.19
881.37	-21.67
881.542	43.86
881.714	50
881.886	27.48
882.058	11.09
882.23	33.62
882.402	27.48
882.574	21.33
882.746	15.19
882.918	-15.53
883.09	35.67
883.262	43.86
883.434	35.67
883.606	-31.91
883.778	15.19
883.95	7
884.122	2.9
884.293	66.39
884.465	33.62
884.637	19.29
884.809	-54.44
884.98	37.72
885.152	41.81
885.324	21.33
885.496	29.52
885.667	-7.34
885.839	-3.24
886.011	62.29
886.182	43.86
886.354	99.16
886.525	99.16
886.697	-29.87
886.869	58.2
887.04	-19.63
887.212	64.34
887.383	15.19
887.555	39.76
887.726	-1.19
887.897	88.92
888.069	-3.24
888.24	-9.39
888.412	78.68
888.583	45.91
888.754	-33.96
888.926	27.48
889.097	15.19
889.268	-50.35
889.44	52.05
889.611	-15.53
889.782	93.01
889.953	-25.77
890.125	80.72
890.296	31.57
890.467	72.53
890.638	-5.29
890.809	58.2
890.98	-3.24
891.151	41.81
891.323	70.48
891.494	60.24
891.665	-5.29
891.836	7
892.007	21.33
892.178	15.19
892.349	-3.24
892.52	107.35
892.691	-9.39
892.862	56.15
893.032	31.57
893.203	56.15
893.374	25.43
893.545	35.67
893.716	15.19
893.887	13.14
894.057	74.58
894.228	58.2
894.399	43.86
894.57	-9.39
894.74	33.62
894.911	80.72
895.082	11.09
895.253	4.95
895.423	39.76
895.594	-52.39
895.764	78.68
895.935	-1.19
896.106	60.24
896.276	7
896.447	37.72
896.617	-81.07
896.788	37.72
896.958	80.72
897.129	15.19
897.299	21.33
897.47	-46.25
897.64	27.48
897.81	138.07
897.981	25.43
898.151	-1.19
898.322	-1.19
898.492	-36.01
898.662	15.19
898.832	9.05
899.003	-15.53
899.173	-3.24
899.343	19.29
899.513	11.09
