Data from USB4F104151__23__12-27-10-075.txt Node

Date: Fri Mar 14 12:27:10 EDT 2025
User: louis
Spectrometer: USB4F10415
Trigger mode: 4
Integration Time (sec): 2.000000E-2
Scans to average: 1
Electric dark correction enabled: true
Nonlinearity correction enabled: false
Boxcar width: 0
XAxis mode: Wavelengths
Number of Pixels in Spectrum: 3648
>>>>>Begin Spectral Data<<<<<
178.204	-43.01
178.424	-43.01
178.644	-43.01
178.864	-92.16
179.084	-92.16
179.304	20.48
179.524	-10.24
179.744	-6.14
179.964	8.19
180.184	-59.39
180.404	-10.24
180.624	40.96
180.844	2.05
181.064	-20.48
181.283	-0
181.503	-26.62
181.723	61.44
181.943	-36.86
182.163	98.3
182.383	40.96
182.602	102.4
182.822	22.53
183.042	43.01
183.262	34.82
183.482	24.58
183.701	26.62
183.921	129.02
184.141	-24.58
184.361	81.92
184.58	59.39
184.8	73.73
185.02	-4.1
185.239	34.82
185.459	49.15
185.679	100.35
185.898	43.01
186.118	-26.62
186.338	36.86
186.557	-32.77
186.777	45.06
186.997	-2.05
187.216	6.14
187.436	77.82
187.655	-20.48
187.875	75.77
188.095	-18.43
188.314	45.06
188.534	24.58
188.753	24.58
188.973	57.34
189.192	40.96
189.412	47.1
189.631	47.1
189.851	-2.05
190.07	4.1
190.29	10.24
190.509	20.48
190.729	18.43
190.948	114.69
191.168	71.68
191.387	32.77
191.607	40.96
191.826	-6.14
192.045	16.38
192.265	16.38
192.484	-24.58
192.704	30.72
192.923	28.67
193.142	112.64
193.362	-4.1
193.581	24.58
193.8	49.15
194.02	-0
194.239	-20.48
194.458	57.34
194.678	26.62
194.897	-2.05
195.116	20.48
195.335	30.72
195.555	-16.38
195.774	40.96
195.993	28.67
196.212	-16.38
196.432	-14.34
196.651	16.38
196.87	-57.34
197.089	53.25
197.308	-22.53
197.528	73.73
197.747	-6.14
197.966	77.82
198.185	-28.67
198.404	-55.3
198.623	-38.91
198.842	40.96
199.062	-20.48
199.281	32.77
199.5	24.58
199.719	30.72
199.938	-6.14
200.157	6.14
200.376	-24.58
200.595	55.3
200.814	-2.05
201.033	22.53
201.252	28.67
201.471	-10.24
201.69	34.82
201.909	-16.38
202.128	26.62
202.347	-10.24
202.566	20.48
202.785	108.54
203.004	59.39
203.223	28.67
203.442	51.2
203.661	4.1
203.879	22.53
204.098	36.86
204.317	-0
204.536	36.86
204.755	-10.24
204.974	77.82
205.193	20.48
205.411	108.54
205.63	49.15
205.849	-32.77
206.068	55.3
206.287	-40.96
206.505	53.25
206.724	-12.29
206.943	32.77
207.162	55.3
207.381	-40.96
207.599	16.38
207.818	4.1
208.037	30.72
208.255	45.06
208.474	73.73
208.693	8.19
208.911	49.15
209.13	-32.77
209.349	30.72
209.567	-2.05
209.786	32.77
210.005	55.3
210.223	20.48
210.442	16.38
210.661	53.25
210.879	-0
211.098	-16.38
211.316	8.19
211.535	4.1
211.753	-0
211.972	108.54
212.191	30.72
212.409	81.92
212.628	20.48
212.846	-18.43
213.065	14.34
213.283	8.19
213.502	-49.15
213.72	40.96
213.938	112.64
214.157	8.19
214.375	49.15
214.594	30.72
214.812	79.87
215.031	-2.05
215.249	8.19
215.467	-6.14
215.686	16.38
215.904	79.87
216.122	30.72
216.341	59.39
216.559	-2.05
216.778	86.01
216.996	38.91
217.214	-0
217.432	-6.14
217.651	14.34
217.869	65.53
218.087	53.25
218.306	-10.24
218.524	6.14
218.742	-14.34
218.96	47.1
219.179	-20.48
219.397	79.87
219.615	90.11
219.833	61.44
220.051	43.01
220.27	30.72
220.488	32.77
220.706	28.67
220.924	-73.73
221.142	61.44
221.36	8.19
221.578	26.62
221.796	73.73
222.015	57.34
222.233	57.34
222.451	65.53
222.669	-24.58
222.887	12.29
223.105	-24.58
223.323	-6.14
223.541	6.14
223.759	67.58
223.977	-22.53
224.195	14.34
224.413	28.67
224.631	26.62
224.849	-20.48
225.067	73.73
225.285	-59.39
225.503	47.1
225.721	-40.96
225.939	49.15
226.157	-4.1
226.375	53.25
226.592	59.39
226.81	-49.15
227.028	124.93
227.246	59.39
227.464	28.67
227.682	32.77
227.9	34.82
228.117	28.67
228.335	28.67
228.553	6.14
228.771	14.34
228.989	40.96
229.206	61.44
229.424	32.77
229.642	63.49
229.86	26.62
230.077	83.97
230.295	-16.38
230.513	14.34
230.731	88.06
230.948	24.58
231.166	47.1
231.384	-18.43
231.601	55.3
231.819	14.34
232.037	-0
232.254	-14.34
232.472	-40.96
232.689	88.06
232.907	79.87
233.125	32.77
233.342	36.86
233.56	-49.15
233.777	26.62
233.995	2.05
234.213	98.3
234.43	63.49
234.648	55.3
234.865	-30.72
235.083	14.34
235.3	14.34
235.518	4.1
235.735	40.96
235.953	45.06
236.17	12.29
236.388	14.34
236.605	51.2
236.822	180.22
237.04	67.58
237.257	71.68
237.475	16.38
237.692	36.86
237.909	36.86
238.127	8.19
238.344	43.01
238.562	28.67
238.779	4.1
238.996	-4.1
239.214	-18.43
239.431	16.38
239.648	12.29
239.865	6.14
240.083	51.2
240.3	38.91
240.517	-40.96
240.735	92.16
240.952	26.62
241.169	67.58
241.386	12.29
241.603	59.39
241.821	57.34
242.038	10.24
242.255	-26.62
242.472	26.62
242.689	100.35
242.907	131.07
243.124	22.53
243.341	38.91
243.558	92.16
243.775	12.29
243.992	36.86
244.209	49.15
244.426	6.14
244.643	69.63
244.86	106.49
245.078	6.14
245.295	47.1
245.512	22.53
245.729	-26.62
245.946	55.3
246.163	36.86
246.38	40.96
246.597	-22.53
246.814	45.06
247.031	-16.38
247.248	4.1
247.464	20.48
247.681	32.77
247.898	40.96
248.115	81.92
248.332	28.67
248.549	79.87
248.766	77.82
248.983	20.48
249.2	10.24
249.417	-65.54
249.633	2.05
249.85	4.1
250.067	-43.01
250.284	28.67
250.501	-49.15
250.717	69.63
250.934	2.05
251.151	14.34
251.368	-4.1
251.585	73.73
251.801	34.82
252.018	20.48
252.235	57.34
252.451	14.34
252.668	30.72
252.885	16.38
253.102	-12.29
253.318	-53.25
253.535	16.38
253.752	24.58
253.968	8.19
254.185	49.15
254.401	-6.14
254.618	32.77
254.835	-20.48
255.051	-12.29
255.268	-36.86
255.484	40.96
255.701	59.39
255.917	86.01
256.134	-53.25
256.351	43.01
256.567	26.62
256.784	28.67
257	4.1
257.217	81.92
257.433	30.72
257.65	-0
257.866	59.39
258.082	28.67
258.299	53.25
258.515	-32.77
258.732	-28.67
258.948	67.58
259.165	-0
259.381	53.25
259.597	-20.48
259.814	18.43
260.03	-34.82
260.246	22.53
260.463	65.53
260.679	118.78
260.895	69.63
261.112	49.15
261.328	-8.19
261.544	18.43
261.761	100.35
261.977	71.68
262.193	49.15
262.409	-2.05
262.626	8.19
262.842	2.05
263.058	-40.96
263.274	-63.49
263.49	43.01
263.707	-24.58
263.923	108.54
264.139	22.53
264.355	6.14
264.571	14.34
264.787	-2.05
265.004	6.14
265.22	51.2
265.436	-0
265.652	10.24
265.868	59.39
266.084	57.34
266.3	-14.34
266.516	49.15
266.732	-18.43
266.948	-47.1
267.164	-34.82
267.38	51.2
267.596	6.14
267.812	55.3
268.028	106.49
268.244	-26.62
268.46	45.06
268.676	-10.24
268.892	67.58
269.108	36.86
269.324	-30.72
269.54	20.48
269.756	71.68
269.972	-8.19
270.188	49.15
270.403	-32.77
270.619	53.25
270.835	57.34
271.051	49.15
271.267	38.91
271.483	6.14
271.698	69.63
271.914	10.24
272.13	49.15
272.346	12.29
272.562	59.39
272.777	45.06
272.993	34.82
273.209	-10.24
273.425	63.49
273.64	-16.38
273.856	-32.77
274.072	67.58
274.287	-18.43
274.503	-28.67
274.719	-14.34
274.934	38.91
275.15	45.06
275.366	-2.05
275.581	-36.86
275.797	34.82
276.012	-20.48
276.228	49.15
276.444	4.1
276.659	75.77
276.875	59.39
277.09	4.1
277.306	104.45
277.521	63.49
277.737	57.34
277.952	49.15
278.168	63.49
278.383	69.63
278.599	-22.53
278.814	59.39
279.03	-20.48
279.245	-8.19
279.461	77.82
279.676	4.1
279.892	28.67
280.107	18.43
280.322	36.86
280.538	90.11
280.753	-45.06
280.969	83.97
281.184	16.38
281.399	38.91
281.615	8.19
281.83	24.58
282.045	-28.67
282.26	69.63
282.476	-94.21
282.691	106.49
282.906	67.58
283.122	59.39
283.337	137.21
283.552	20.48
283.767	55.3
283.983	-6.14
284.198	14.34
284.413	57.34
284.628	61.44
284.843	10.24
285.058	26.62
285.274	40.96
285.489	-49.15
285.704	-0
285.919	-6.14
286.134	53.25
286.349	16.38
286.564	14.34
286.779	63.49
286.995	71.68
287.21	-30.72
287.425	-2.05
287.64	-49.15
287.855	-0
288.07	38.91
288.285	67.58
288.5	-4.1
288.715	-0
288.93	-92.16
289.145	20.48
289.36	2.05
289.575	22.53
289.79	79.87
290.004	28.67
290.219	-2.05
290.434	-34.82
290.649	-10.24
290.864	38.91
291.079	53.25
291.294	8.19
291.509	38.91
291.724	24.58
291.938	-8.19
292.153	51.2
292.368	-34.82
292.583	18.43
292.798	65.53
293.012	90.11
293.227	6.14
293.442	59.39
293.657	102.4
293.871	81.92
294.086	6.14
294.301	-32.77
294.516	110.59
294.73	81.92
294.945	-69.63
295.16	10.24
295.374	43.01
295.589	49.15
295.804	-4.1
296.018	-0
296.233	81.92
296.447	38.91
296.662	16.38
296.877	65.53
297.091	-30.72
297.306	24.58
297.52	-16.38
297.735	-22.53
297.949	8.19
298.164	38.91
298.378	-24.58
298.593	51.2
298.807	24.58
299.022	-8.19
299.236	32.77
299.451	12.29
299.665	61.44
299.88	71.68
300.094	47.1
300.309	22.53
300.523	49.15
300.737	28.67
300.952	26.62
301.166	16.38
301.381	32.77
301.595	55.3
301.809	43.01
302.024	22.53
302.238	-36.86
302.452	38.91
302.667	-10.24
302.881	67.58
303.095	34.82
303.309	45.06
303.524	2.05
303.738	79.87
303.952	110.59
304.166	34.82
304.381	36.86
304.595	-4.1
304.809	16.38
305.023	28.67
305.237	49.15
305.452	24.58
305.666	18.43
305.88	40.96
306.094	4.1
306.308	47.1
306.522	51.2
306.736	10.24
306.95	71.68
307.164	-0
307.379	75.77
307.593	26.62
307.807	88.06
308.021	49.15
308.235	-20.48
308.449	-43.01
308.663	18.43
308.877	55.3
309.091	-18.43
309.305	26.62
309.519	10.24
309.733	38.91
309.947	43.01
310.161	47.1
310.374	38.91
310.588	12.29
310.802	-34.82
311.016	-28.67
311.23	2.05
311.444	-0
311.658	-10.24
311.872	14.34
312.085	73.73
312.299	26.62
312.513	45.06
312.727	12.29
312.941	65.53
313.154	18.43
313.368	-47.1
313.582	24.58
313.796	14.34
314.009	22.53
314.223	-57.34
314.437	55.3
314.651	36.86
314.864	-53.25
315.078	34.82
315.292	-16.38
315.505	10.24
315.719	18.43
315.933	-28.67
316.146	12.29
316.36	8.19
316.573	32.77
316.787	2.05
317.001	-22.53
317.214	45.06
317.428	14.34
317.641	6.14
317.855	18.43
318.068	-8.19
318.282	100.35
318.495	81.92
318.709	81.92
318.922	26.62
319.136	-4.1
319.349	16.38
319.563	65.53
319.776	30.72
319.99	-45.06
320.203	-0
320.417	59.39
320.63	63.49
320.843	77.82
321.057	-24.58
321.27	61.44
321.483	-40.96
321.697	79.87
321.91	51.2
322.124	112.64
322.337	59.39
322.55	-45.06
322.763	8.19
322.977	71.68
323.19	53.25
323.403	-8.19
323.617	-43.01
323.83	69.63
324.043	-2.05
324.256	28.67
324.469	12.29
324.683	36.86
324.896	32.77
325.109	-12.29
325.322	67.58
325.535	149.5
325.748	14.34
325.962	-24.58
326.175	55.3
326.388	65.53
326.601	10.24
326.814	63.49
327.027	-16.38
327.24	104.45
327.453	47.1
327.666	-10.24
327.879	67.58
328.092	45.06
328.305	124.93
328.518	83.97
328.731	36.86
328.944	26.62
329.157	75.77
329.37	26.62
329.583	65.53
329.796	36.86
330.009	6.14
330.222	75.77
330.435	20.48
330.648	47.1
330.861	-14.34
331.073	24.58
331.286	53.25
331.499	16.38
331.712	55.3
331.925	28.67
332.138	73.73
332.35	30.72
332.563	-2.05
332.776	124.93
332.989	-61.44
333.202	20.48
333.414	47.1
333.627	49.15
333.84	28.67
334.053	38.91
334.265	-2.05
334.478	26.62
334.691	43.01
334.903	34.82
335.116	-0
335.329	8.19
335.541	59.39
335.754	67.58
335.966	112.64
336.179	40.96
336.392	14.34
336.604	24.58
336.817	79.87
337.029	90.11
337.242	88.06
337.454	55.3
337.667	-12.29
337.88	40.96
338.092	38.91
338.305	53.25
338.517	30.72
338.729	-0
338.942	47.1
339.154	-14.34
339.367	8.19
339.579	88.06
339.792	-24.58
340.004	65.53
340.217	26.62
340.429	24.58
340.641	26.62
340.854	12.29
341.066	-2.05
341.278	51.2
341.491	38.91
341.703	4.1
341.915	24.58
342.128	75.77
342.34	24.58
342.552	40.96
342.764	40.96
342.977	67.58
343.189	-32.77
343.401	81.92
343.613	-18.43
343.826	-28.67
344.038	43.01
344.25	79.87
344.462	49.15
344.674	81.92
344.886	40.96
345.099	12.29
345.311	61.44
345.523	-4.1
345.735	133.12
345.947	22.53
346.159	-8.19
346.371	-36.86
346.583	18.43
346.795	-0
347.007	30.72
347.219	102.4
347.431	20.48
347.643	61.44
347.855	28.67
348.067	67.58
348.279	-24.58
348.491	16.38
348.703	53.25
348.915	26.62
349.127	26.62
349.339	36.86
349.551	16.38
349.763	30.72
349.975	14.34
350.187	61.44
350.399	45.06
350.61	98.3
350.822	71.68
351.034	28.67
351.246	100.35
351.458	-38.91
351.669	20.48
351.881	-20.48
352.093	22.53
352.305	98.3
352.517	32.77
352.728	69.63
352.94	49.15
353.152	88.06
353.363	22.53
353.575	-34.82
353.787	83.97
353.999	55.3
354.21	12.29
354.422	-22.53
354.633	63.49
354.845	75.77
355.057	32.77
355.268	51.2
355.48	77.82
355.692	40.96
355.903	14.34
356.115	43.01
356.326	61.44
356.538	88.06
356.749	57.34
356.961	90.11
357.172	-6.14
357.384	-10.24
357.595	90.11
357.807	-18.43
358.018	-8.19
358.23	92.16
358.441	96.25
358.653	24.58
358.864	24.58
359.075	-10.24
359.287	-6.14
359.498	49.15
359.709	94.21
359.921	20.48
360.132	43.01
360.344	63.49
360.555	53.25
360.766	26.62
360.977	92.16
361.189	88.06
361.4	-4.1
361.611	92.16
361.823	51.2
362.034	32.77
362.245	43.01
362.456	45.06
362.667	53.25
362.879	36.86
363.09	116.73
363.301	88.06
363.512	6.14
363.723	106.49
363.935	57.34
364.146	92.16
364.357	77.82
364.568	65.53
364.779	-4.1
364.99	55.3
365.201	67.58
365.412	61.44
365.623	-49.15
365.834	20.48
366.045	51.2
366.256	-18.43
366.467	73.73
366.678	4.1
366.889	43.01
367.1	63.49
367.311	12.29
367.522	12.29
367.733	38.91
367.944	49.15
368.155	88.06
368.366	126.97
368.577	40.96
368.788	65.53
368.999	90.11
369.209	81.92
369.42	65.53
369.631	92.16
369.842	34.82
370.053	6.14
370.264	18.43
370.474	43.01
370.685	77.82
370.896	-2.05
371.107	-28.67
371.317	77.82
371.528	75.77
371.739	165.89
371.95	69.63
372.16	143.36
372.371	94.21
372.582	40.96
372.792	90.11
373.003	63.49
373.214	-6.14
373.424	61.44
373.635	-4.1
373.846	65.53
374.056	51.2
374.267	96.25
374.477	2.05
374.688	73.73
374.898	28.67
375.109	40.96
375.319	57.34
375.53	122.88
375.74	10.24
375.951	28.67
376.161	90.11
376.372	94.21
376.582	24.58
376.793	-26.62
377.003	47.1
377.214	73.73
377.424	4.1
377.635	45.06
377.845	-38.91
378.055	8.19
378.266	26.62
378.476	-20.48
378.686	83.97
378.897	26.62
379.107	30.72
379.317	81.92
379.528	57.34
379.738	108.54
379.948	-16.38
380.158	38.91
380.369	32.77
380.579	75.77
380.789	12.29
380.999	24.58
381.21	32.77
381.42	106.49
381.63	6.14
381.84	71.68
382.05	81.92
382.261	81.92
382.471	2.05
382.681	90.11
382.891	96.25
383.101	28.67
383.311	-18.43
383.521	18.43
383.731	-6.14
383.941	71.68
384.151	28.67
384.361	16.38
384.571	53.25
384.781	88.06
384.991	26.62
385.201	77.82
385.411	59.39
385.621	-8.19
385.831	98.3
386.041	83.97
386.251	28.67
386.461	49.15
386.671	90.11
386.881	65.53
387.091	61.44
387.301	69.63
387.511	43.01
387.72	32.77
387.93	63.49
388.14	63.49
388.35	108.54
388.56	34.82
388.769	-4.1
388.979	90.11
389.189	92.16
389.399	69.63
389.609	2.05
389.818	47.1
390.028	110.59
390.238	16.38
390.447	2.05
390.657	122.88
390.867	18.43
391.076	43.01
391.286	-0
391.496	59.39
391.705	79.87
391.915	32.77
392.125	-6.14
392.334	40.96
392.544	124.93
392.753	77.82
392.963	12.29
393.172	122.88
393.382	77.82
393.591	149.5
393.801	-32.77
394.01	75.77
394.22	73.73
394.429	47.1
394.639	18.43
394.848	69.63
395.058	65.53
395.267	120.83
395.477	112.64
395.686	73.73
395.895	118.78
396.105	77.82
396.314	102.4
396.524	38.91
396.733	98.3
396.942	100.35
397.152	22.53
397.361	131.07
397.57	43.01
397.78	133.12
397.989	98.3
398.198	122.88
398.407	24.58
398.617	71.68
398.826	-0
399.035	98.3
399.244	131.07
399.453	-32.77
399.663	110.59
399.872	118.78
400.081	-6.14
400.29	96.25
400.499	45.06
400.708	71.68
400.917	6.14
401.127	188.41
401.336	65.53
401.545	145.41
401.754	94.21
401.963	75.77
402.172	118.78
402.381	98.3
402.59	100.35
402.799	88.06
403.008	118.78
403.217	98.3
403.426	108.54
403.635	75.77
403.844	43.01
404.053	118.78
404.262	94.21
404.471	133.12
404.68	108.54
404.888	92.16
405.097	90.11
405.306	151.55
405.515	67.58
405.724	124.93
405.933	133.12
406.142	157.69
406.35	194.56
406.559	165.89
406.768	131.07
406.977	221.18
407.185	143.36
407.394	159.74
407.603	104.45
407.812	153.6
408.02	208.89
408.229	137.21
408.438	176.13
408.646	184.32
408.855	223.23
409.064	182.27
409.272	143.36
409.481	208.89
409.69	182.27
409.898	204.8
410.107	231.42
410.315	249.85
410.524	192.51
410.733	253.95
410.941	282.62
411.15	294.91
411.358	245.76
411.567	325.63
411.775	303.1
411.984	350.2
412.192	321.53
412.401	272.38
412.609	358.39
412.818	389.11
413.026	258.04
413.234	395.26
413.443	348.15
413.651	454.65
413.86	415.74
414.068	499.7
414.276	485.37
414.485	471.03
414.693	491.51
414.901	473.08
415.11	489.46
415.318	534.52
415.526	520.18
415.734	516.09
415.943	589.81
416.151	589.81
416.359	677.88
416.567	573.43
416.776	651.25
416.984	688.12
417.192	774.13
417.4	610.29
417.608	696.31
417.817	735.22
418.025	825.33
418.233	825.33
418.441	749.56
418.649	833.52
418.857	976.88
419.065	1019.89
419.273	854
419.481	997.36
419.689	1064.94
419.897	1038.32
420.105	1064.94
420.313	1120.24
420.521	1128.43
420.729	1161.2
420.937	1202.16
421.145	1337.32
421.353	1294.32
421.561	1409
421.769	1384.43
421.977	1507.3
422.185	1427.43
422.393	1583.08
422.601	1695.72
422.809	1648.61
423.017	1753.06
423.224	1734.63
423.432	1880.04
423.64	1892.32
423.848	1998.82
424.056	1964
424.263	2140.13
424.471	2107.36
424.679	2031.58
424.887	2179.04
425.094	2340.83
425.302	2310.11
425.51	2584.54
425.718	2443.23
425.925	2385.88
426.133	2596.82
426.341	2684.89
426.548	2809.81
426.756	2768.85
426.964	3008.47
427.171	3088.34
427.379	3141.58
427.586	3194.83
427.794	3436.49
428.001	3334.09
428.209	3606.47
428.417	3497.93
428.624	3735.49
428.832	3710.92
429.039	3831.75
429.247	3659.72
429.454	4104.13
429.662	4257.73
429.869	4016.07
430.076	4251.58
430.284	4294.59
430.491	4327.36
430.699	4814.77
430.906	4825.01
431.114	4691.9
431.321	4962.23
431.528	5126.07
431.736	5390.25
431.943	5638.06
432.15	5492.65
432.358	5588.91
432.565	6092.71
432.772	5879.72
432.979	6373.28
433.187	6256.54
433.394	6307.74
433.601	6819.74
433.808	6799.26
434.016	6621.08
434.223	6913.94
434.43	7411.6
434.637	7163.79
434.844	7649.16
435.052	7868.3
435.259	7888.78
435.466	7921.54
435.673	7856.01
435.88	8228.74
436.087	8652.67
436.294	8777.59
436.501	8587.13
436.708	8806.27
436.915	9015.16
437.122	9467.76
437.329	9514.86
437.537	9707.37
437.743	9885.55
437.95	9770.86
438.157	10342.24
438.364	10676.06
438.571	10755.93
438.778	10643.29
438.985	11794.25
439.192	11312.98
439.399	11532.11
439.606	11337.55
439.813	12130.12
440.02	12724.03
440.227	12570.43
440.433	12470.08
440.64	12894.01
440.847	12939.07
441.054	13063.99
441.261	14290.73
441.467	13803.31
441.674	13973.29
441.881	14569.25
442.088	14536.48
442.294	14489.38
442.501	14884.64
442.708	15300.37
442.914	15503.12
443.121	16527.11
443.328	15798.03
443.534	17168.12
443.741	16652.03
443.948	16244.49
444.154	17571.57
444.361	17536.76
444.568	17690.35
444.774	17643.25
444.981	18108.14
445.187	18339.56
445.394	19115.74
445.6	18917.09
445.807	20821.7
446.013	19875.54
446.22	20260.55
446.426	21049.02
446.633	21554.87
446.839	22056.62
447.046	21071.55
447.252	22335.15
447.459	22286
447.665	22556.33
447.871	23232.16
448.078	23897.75
448.284	23115.42
448.491	23479.96
448.697	24413.84
448.903	25265.79
449.11	25255.55
449.316	24759.94
449.522	25308.8
449.728	25765.49
449.935	25994.87
450.141	25876.09
450.347	26642.03
450.553	26164.85
450.76	26340.97
450.966	27072.1
451.172	26820.2
451.378	27481.69
451.584	27205.22
451.791	27704.92
451.997	27473.5
452.203	28352.08
452.409	28231.25
452.615	27840.09
452.821	26994.28
453.027	26848.87
453.233	28173.91
453.44	27240.03
453.646	27319.9
453.852	27563.61
454.058	27960.92
454.264	27301.47
454.47	27588.19
454.676	27063.91
454.882	28083.8
455.088	25523.83
455.294	25720.44
455.5	26482.28
455.705	26373.74
455.911	25677.43
456.117	25024.13
456.323	24614.54
456.529	23436.95
456.735	24393.36
456.941	23852.69
457.147	23484.06
457.352	22781.6
457.558	22210.22
457.764	22523.56
457.97	22146.73
458.176	21483.19
458.381	21466.81
458.587	20713.16
458.793	20539.08
458.999	19523.29
459.204	20768.45
459.41	20088.53
459.616	18953.95
459.821	19064.54
460.027	19211.99
460.233	18632.42
460.438	17417.97
460.644	17819.38
460.85	17041.15
461.055	16606.98
461.261	16508.68
461.466	15431.44
461.672	14931.74
461.878	16181
462.083	15105.82
462.289	14608.16
462.494	14704.42
462.7	14118.7
462.905	13664.05
463.111	14094.12
463.316	14122.79
463.522	13774.64
463.727	13891.37
463.932	13913.9
464.138	13524.79
464.343	13629.23
464.549	13141.82
464.754	13635.38
464.959	13512.5
465.165	13504.31
465.37	12953.4
465.575	12588.86
465.781	13031.23
465.986	13291.32
466.191	12574.53
466.397	12461.89
466.602	11765.58
466.807	12398.4
467.012	12328.77
467.218	12259.14
467.423	12275.52
467.628	12453.7
467.833	12791.61
468.038	12332.87
468.244	12050.25
468.449	12244.81
468.654	12023.62
468.859	11824.97
469.064	11968.33
469.269	11183.96
469.474	11589.46
469.679	11675.47
469.885	11571.02
470.09	11636.56
470.295	11458.39
470.5	11276.12
470.705	11415.38
470.91	10817.37
471.115	10942.3
471.32	11075.41
471.525	10776.41
471.73	10698.59
471.935	10846.04
472.139	10442.59
472.344	10614.62
472.549	10245.99
472.754	10532.7
472.959	10090.34
473.164	9781.1
473.369	9856.87
473.574	9949.03
473.778	10012.52
473.983	9977.7
474.188	9932.65
474.393	9672.56
474.598	9430.9
474.802	9412.46
475.007	9203.57
475.212	9238.39
475.417	9113.46
475.621	9131.89
475.826	8851.32
476.031	8992.63
476.235	8920.95
476.44	8787.83
476.645	8542.08
476.849	8701.82
477.054	8748.92
477.259	8546.17
477.463	8624
477.668	8275.84
477.872	8198.02
478.077	8146.82
478.282	8023.94
478.486	8036.23
478.691	7827.34
478.895	7974.79
479.1	7921.54
479.304	7782.28
479.509	7505.81
479.713	7696.27
479.918	7454.61
480.122	7358.35
480.326	7673.74
480.531	7526.29
480.735	7315.34
480.94	7401.36
481.144	7458.7
481.348	7235.47
481.553	7319.44
481.757	7153.55
481.961	7354.26
482.166	7348.11
482.37	7333.78
482.574	7176.08
482.778	7192.47
482.983	7526.29
483.187	7182.23
483.391	7290.77
483.595	7186.32
483.8	7128.98
484.004	7233.43
484.208	7417.74
484.412	7260.05
484.616	7217.04
484.821	7319.44
485.025	7149.46
485.229	7362.45
485.433	7225.23
485.637	7389.07
485.841	7126.93
486.045	7163.79
486.249	7323.54
486.453	7174.03
486.657	7266.19
486.861	7348.11
487.065	7061.4
487.269	7329.68
487.473	7231.38
487.677	7393.17
487.881	7235.47
488.085	7284.62
488.289	7235.47
488.493	7280.53
488.697	7380.88
488.901	7255.95
489.105	7335.82
489.309	7251.86
489.512	7329.68
489.716	7348.11
489.92	7454.61
490.124	7288.72
490.328	7454.61
490.531	7380.88
490.735	7384.98
490.939	7401.36
491.143	7485.33
491.346	7272.34
491.55	7544.72
491.754	7563.15
491.958	7688.07
492.161	7673.74
492.365	7614.35
492.569	7667.59
492.772	7696.27
492.976	7767.95
493.18	7901.06
493.383	7890.82
493.587	7968.65
493.79	8198.02
493.994	7956.36
494.197	7968.65
494.401	8140.68
494.605	8169.35
494.808	8163.2
495.012	8124.29
495.215	8118.15
495.419	8468.35
495.622	8363.9
495.825	8607.61
496.029	8550.27
496.232	8699.77
496.436	8519.55
496.639	8806.27
496.843	8664.96
497.046	8992.63
497.249	9047.93
497.453	9066.36
497.656	9244.53
497.859	9150.32
498.063	9348.98
498.266	9486.19
498.469	9391.98
498.673	9758.57
498.876	10022.76
499.079	9785.19
499.282	9699.18
499.485	10067.81
499.689	9996.14
499.892	10336.1
500.095	10303.33
500.298	10473.31
500.501	10471.26
500.705	10745.69
500.908	10729.31
501.111	10800.99
501.314	10862.43
501.517	10903.39
501.72	11177.81
501.923	11157.33
502.126	11310.93
502.329	11462.48
502.532	11587.41
502.735	11562.83
502.938	12005.19
503.141	11929.42
503.344	12400.45
503.547	12382.02
503.75	12355.4
503.953	12564.29
504.156	12724.03
504.359	12855.1
504.562	12865.34
504.765	13342.52
504.968	13264.69
505.17	13455.15
505.373	13535.03
505.576	13733.68
505.779	13834.03
505.982	13991.72
506.185	14182.18
506.387	14198.57
506.59	14452.52
506.793	14708.51
506.996	14622.5
507.198	14995.23
507.401	14903.07
507.604	15114.01
507.807	15507.22
508.009	15634.19
508.212	15650.58
508.415	15972.11
508.617	16094.99
508.82	16137.99
509.022	16066.31
509.225	16510.72
509.428	16387.85
509.63	16668.42
509.833	16705.28
510.035	17168.12
510.238	17225.47
510.44	17243.9
510.643	17639.15
510.845	17587.96
511.048	17757.94
511.25	17800.94
511.453	18052.84
511.655	18593.51
511.858	18497.25
512.06	18796.26
512.262	19052.25
512.465	18812.64
512.667	19310.3
512.87	19341.02
513.072	19617.49
513.274	19947.22
513.477	19842.77
513.679	20059.85
513.881	20238.03
514.084	20397.77
514.286	20453.06
514.488	20766.4
514.69	21065.41
514.893	21477.05
515.095	21268.16
515.297	21575.35
515.499	21501.62
515.701	21913.27
515.904	22087.34
516.106	22093.49
516.308	22603.43
516.51	22775.46
516.712	22748.84
516.914	22961.83
517.116	23563.93
517.318	23318.17
517.52	23342.75
517.722	23662.23
517.925	23789.21
518.127	24258.19
518.329	24491.66
518.531	24534.67
518.733	24925.83
518.935	24776.33
519.136	25013.89
519.338	25024.13
519.54	25474.68
519.742	25646.71
519.944	25566.84
520.146	26097.27
520.348	26373.74
520.55	26230.38
520.752	26549.87
520.954	26967.65
521.155	26588.78
521.357	27412.06
521.559	27592.28
521.761	28014.16
521.963	27268.7
522.164	27600.47
522.366	27975.25
522.568	28161.62
522.77	28372.56
522.971	28747.34
523.173	28673.61
523.375	29103.68
523.576	28876.36
523.778	28606.03
523.98	29664.83
524.181	29443.65
524.383	29732.41
524.584	29699.64
524.786	30015.03
524.988	29836.86
525.189	30414.38
525.391	30506.54
525.592	30395.95
525.794	30639.66
525.995	30733.87
526.197	30627.37
526.398	31006.25
526.6	31186.47
526.801	31153.7
527.003	31520.29
527.204	31190.56
527.406	31759.9
527.607	31735.32
527.808	31890.97
528.01	31391.26
528.211	31761.95
528.412	32456.21
528.614	31948.31
528.815	32161.3
529.016	32585.23
529.218	32509.46
529.419	32085.53
529.62	32249.36
529.822	32050.71
530.023	32468.5
530.224	32724.49
530.425	32620.05
530.626	32333.33
530.828	32413.2
531.029	33306.12
531.23	32667.15
531.431	32597.52
531.632	33025.54
531.833	33025.54
532.035	33046.02
532.236	32851.47
532.437	33324.55
532.638	32771.6
532.839	33099.27
533.04	33082.89
533.241	32957.96
533.442	33666.56
533.643	33367.55
533.844	33148.42
534.045	33576.45
534.246	32923.15
534.447	33193.48
534.648	33199.62
534.849	33089.03
535.05	33281.54
535.251	33213.96
535.451	33416.71
535.652	33512.96
535.853	33867.26
536.054	33351.17
536.255	33582.59
536.456	33400.32
536.657	33695.23
536.857	33412.61
537.058	33558.02
537.259	33402.37
537.46	33525.25
537.66	33236.48
537.861	33408.51
538.062	33424.9
538.263	33496.58
538.463	33658.37
538.664	33398.27
538.865	33922.55
539.065	33773.05
539.266	33230.34
539.466	33707.52
539.667	33261.06
539.868	33523.2
540.068	33601.02
540.269	33496.58
540.469	33840.64
540.67	33158.66
540.87	33469.95
541.071	33302.02
541.271	33650.17
541.472	33236.48
541.672	33721.85
541.873	33586.69
542.073	33097.22
542.274	33721.85
542.474	33277.44
542.675	33132.04
542.875	33687.04
543.075	33191.43
543.276	33086.98
543.476	33637.89
543.676	33293.83
543.877	33443.33
544.077	33609.22
544.277	33179.14
544.478	33445.38
544.678	33222.15
544.878	33543.68
545.078	33535.49
545.279	33146.37
545.479	33113.61
545.679	33455.62
545.879	33363.46
546.079	33287.68
546.28	33406.47
546.48	33410.56
546.68	33609.22
546.88	33351.17
547.08	33660.41
547.28	33410.56
547.48	33480.19
547.68	33615.36
547.88	33117.7
548.081	33443.33
548.281	33345.03
548.481	33228.29
548.681	33226.24
548.881	33197.57
549.081	33222.15
549.28	33240.58
549.48	33267.2
549.68	33250.82
549.88	33381.89
550.08	33125.89
550.28	33467.91
550.48	33064.46
550.68	33660.41
550.88	33367.55
551.08	33121.8
551.279	33267.2
551.479	33000.97
551.679	33265.16
551.879	33183.24
552.079	33422.85
552.278	33281.54
552.478	33222.15
552.678	33252.87
552.878	33365.51
553.077	32925.19
553.277	32917
553.477	33164.81
553.676	32884.23
553.876	33125.89
554.076	33056.26
554.275	32974.34
554.475	32570.89
554.674	32652.81
554.874	32986.63
555.074	32900.62
555.273	33183.24
555.473	33279.49
555.672	32923.15
555.872	32886.28
556.071	32574.99
556.271	32941.58
556.47	32732.68
556.67	32597.52
556.869	32282.13
557.068	33000.97
557.268	32777.74
557.467	32945.67
557.667	32710.16
557.866	32503.31
558.065	32476.69
558.265	32282.13
558.464	32392.72
558.663	32820.75
558.863	32175.64
559.062	32448.02
559.261	32355.86
559.461	32491.02
559.66	31878.68
559.859	32116.25
560.058	31940.12
560.258	32192.02
560.457	32259.6
560.656	32314.9
560.855	32011.8
561.054	32388.63
561.253	31796.76
561.453	32222.74
561.652	31999.51
561.851	32161.3
562.05	31622.69
562.249	31587.87
562.448	32048.66
562.647	32200.21
562.846	32171.54
563.045	31708.7
563.244	31553.05
563.443	32083.48
563.642	31292.96
563.841	31559.2
564.04	31358.5
564.239	31966.74
564.438	31139.36
564.637	31317.54
564.836	31489.57
565.035	30912.04
565.234	31270.43
565.432	31305.25
565.631	30836.27
565.83	31028.77
566.029	30922.28
566.228	31151.65
566.427	31000.1
566.625	30871.08
566.824	30283.31
567.023	30877.22
567.222	30455.34
567.42	30975.53
567.619	30328.37
567.818	30283.31
568.016	30410.29
568.215	30946.86
568.414	30342.71
568.612	30584.37
568.811	30389.81
569.01	30348.85
569.208	30066.23
569.407	30393.9
569.605	29845.05
569.804	30107.19
570.002	30019.13
570.201	29929.02
570.4	29687.35
570.598	29849.14
570.797	29759.03
570.995	29914.68
571.193	29912.63
571.392	29734.46
571.59	29296.19
571.789	29650.49
571.987	29152.84
572.186	29320.77
572.384	29302.34
572.582	29292.1
572.781	29308.48
572.979	28843.59
573.177	29085.25
573.376	29140.55
573.574	28673.61
573.772	29216.32
573.971	28872.26
574.169	28745.29
574.367	28427.85
574.565	28735.05
574.763	28780.1
574.962	28702.28
575.16	28374.61
575.358	28434
575.556	28032.6
575.754	28608.08
575.952	27952.73
576.151	28388.94
576.349	28063.32
576.547	28051.03
576.745	27989.59
576.943	28116.56
577.141	27813.46
577.339	27725.4
577.537	27434.59
577.735	27637.34
577.933	27502.17
578.131	27645.53
578.329	27633.24
578.527	27354.72
578.725	27393.63
578.923	27635.29
579.121	27207.26
579.319	27350.62
579.516	27207.26
579.714	26908.26
579.912	26908.26
580.11	26764.9
580.308	27014.76
580.506	27061.86
580.704	26703.46
580.901	26979.94
581.099	27385.44
581.297	26689.13
581.495	26711.66
581.692	26656.36
581.89	26408.56
582.088	26476.14
582.285	26041.97
582.483	26474.09
582.681	26185.33
582.878	26066.55
583.076	25984.63
583.274	26582.63
583.471	26017.39
583.669	26340.97
583.866	25845.37
584.064	26244.72
584.262	25583.23
584.459	25589.37
584.657	25747.06
584.854	25874.04
585.052	25544.31
585.249	25626.23
585.447	25730.68
585.644	25421.44
585.841	25273.98
586.039	25378.43
586.236	25253.5
586.434	25009.79
586.631	24770.18
586.828	25134.72
587.026	24852.1
587.223	25126.53
587.42	24993.41
587.618	24721.03
587.815	24643.21
588.012	24622.73
588.21	24759.94
588.407	24688.26
588.604	24407.69
588.801	24278.67
588.999	24206.99
589.196	24239.76
589.393	24174.22
589.59	24172.18
589.787	23752.34
589.984	23893.65
590.182	23912.08
590.379	24198.8
590.576	23701.14
590.773	23899.8
590.97	23879.32
591.167	23930.51
591.364	23365.28
591.561	23920.28
591.758	23144.09
591.955	23457.43
592.152	23436.95
592.349	23266.97
592.546	23006.88
592.743	23334.56
592.94	22906.53
593.137	23101.09
593.334	23215.77
593.531	22773.41
593.727	23033.5
593.924	22691.49
594.121	22634.15
594.318	23000.74
594.515	22638.25
594.712	22806.18
594.908	22689.45
595.105	22754.98
595.302	22406.83
595.499	22398.63
595.696	22105.77
595.892	22034.1
596.089	22097.58
596.286	22341.29
596.482	21962.42
596.679	22075.06
596.876	22079.15
597.072	21966.51
597.269	21905.07
597.466	21995.18
597.662	21720.76
597.859	21778.1
598.055	21597.88
598.252	21606.07
598.448	21462.71
598.645	21401.27
598.841	21321.4
599.038	21354.17
599.234	21298.88
599.431	21063.36
599.627	21010.11
599.824	21071.55
600.02	20741.83
600.217	21221.05
600.413	20987.58
600.609	20940.48
600.806	20532.93
601.002	21014.21
601.198	20694.72
601.395	20420.3
601.591	20463.3
601.787	20717.25
601.984	20479.69
602.18	20592.33
602.376	20283.08
602.572	20233.93
602.769	20258.51
602.965	19969.74
603.161	20303.56
603.357	20135.63
603.553	19943.12
603.75	20113.1
603.946	19662.55
604.142	19900.11
604.338	19898.06
604.534	20152.01
604.73	19664.6
604.926	19902.16
605.122	19582.68
605.318	19467.99
605.514	19402.46
605.71	19236.57
605.906	19410.65
606.102	19285.72
606.298	19564.25
606.494	19130.08
606.69	19388.12
606.886	19332.82
607.082	19033.82
607.278	18970.33
607.474	18718.43
607.67	18935.52
607.866	18826.98
608.062	18964.19
608.257	18757.35
608.453	18804.45
608.649	18726.63
608.845	18454.25
609.041	18693.86
609.236	18700
609.432	18835.17
609.628	18566.88
609.824	18366.18
610.019	18556.64
610.215	18585.32
610.411	18478.82
610.606	18380.52
610.802	18630.37
610.998	18552.55
611.193	18413.29
611.389	18132.72
611.584	18050.8
611.78	18290.41
611.976	18357.99
612.171	18249.45
612.367	18310.89
612.562	18102
612.758	17759.99
612.953	17602.29
613.149	18061.04
613.344	18022.12
613.539	18161.39
613.735	17676.02
613.93	18153.19
614.126	17907.44
614.321	17954.54
614.517	17940.21
614.712	17917.68
614.907	17520.37
615.103	18007.79
615.298	17549.04
615.493	17708.79
615.688	17802.99
615.884	17979.12
616.079	17475.32
616.274	17551.09
616.47	17604.34
616.665	17608.44
616.86	17331.96
617.055	17202.94
617.25	17366.78
617.445	17608.44
617.641	17071.87
617.836	17270.52
618.031	17135.35
618.226	17149.69
618.421	17114.87
618.616	17182.46
618.811	16969.47
619.006	17065.72
619.201	16789.25
619.396	16918.27
619.591	16774.91
619.786	16615.17
619.981	16588.55
620.176	16563.97
620.371	16482.05
620.566	16570.12
620.761	16656.13
620.956	16817.92
621.151	15929.1
621.346	16281.35
621.541	16082.7
621.735	16142.09
621.93	15935.24
622.125	16019.21
622.32	15716.11
622.515	15822.61
622.709	15787.79
622.904	15695.63
623.099	15535.89
623.294	15605.52
623.488	15429.4
623.683	15423.25
623.878	15312.66
624.072	15300.37
624.267	15202.07
624.462	15050.52
624.656	14907.16
624.851	14815.01
625.046	14907.16
625.24	14647.07
625.435	14761.76
625.629	14704.42
625.824	14421.8
626.018	14524.19
626.213	14190.38
626.407	14292.77
626.602	14176.04
626.796	14169.9
626.991	14059.31
627.185	14090.02
627.38	13989.67
627.574	13758.25
627.768	13690.67
627.963	13485.87
628.157	13590.32
628.352	13715.25
628.546	13442.87
628.74	13434.67
628.935	13309.75
629.129	13428.53
629.323	13219.64
629.517	13162.3
629.712	13133.62
629.906	12930.87
630.1	12840.76
630.294	13082.42
630.489	12762.94
630.683	12881.72
630.877	12535.62
631.071	12568.38
631.265	12691.26
631.459	12547.9
631.653	12658.49
631.848	12529.47
632.042	12363.59
632.236	12267.33
632.43	12128.07
632.624	12156.74
632.818	12052.3
633.012	11921.23
633.206	11874.12
633.4	12021.58
633.594	11853.64
633.788	11849.55
633.982	11890.51
634.176	11675.47
634.369	11679.57
634.563	11810.64
634.757	11523.92
634.951	11329.36
635.145	11442
635.339	11462.48
635.533	11116.37
635.726	11485.01
635.92	11034.46
636.114	11091.8
636.308	11081.56
636.501	11059.03
636.695	10874.71
636.889	10772.32
637.083	10893.15
637.276	10741.6
637.47	10757.98
637.664	10725.21
637.857	10612.57
638.051	10485.6
638.244	10508.13
638.438	10534.75
638.632	10487.65
638.825	10370.91
639.019	10379.11
639.212	10323.81
639.406	10239.84
639.599	9989.99
639.793	10170.21
639.986	9985.9
640.18	10135.4
640.373	9955.18
640.567	9926.5
640.76	9781.1
640.954	9791.34
641.147	9711.47
641.34	9770.86
641.534	9906.02
641.727	9625.45
641.92	9531.25
642.114	9453.42
642.307	9684.84
642.5	9432.94
642.694	9514.86
642.887	9215.86
643.08	9459.57
643.273	9308.02
643.467	9289.59
643.66	9072.5
643.853	9252.72
644.046	9078.65
644.239	9174.9
644.432	8937.34
644.626	8923
644.819	8929.14
645.012	8912.76
645.205	8757.11
645.398	8793.98
645.591	8662.91
645.784	8908.66
645.977	8537.98
646.17	8699.77
646.363	8595.32
646.556	8292.23
646.749	8572.8
646.942	8503.17
647.135	8513.41
647.328	8187.78
647.521	8222.59
647.714	8236.93
647.907	8320.9
648.099	8140.68
648.292	8073.09
648.485	8089.48
648.678	7962.5
648.871	7952.26
649.064	7974.79
649.256	8021.89
649.449	7804.81
649.642	7739.27
649.835	7710.6
650.027	7704.46
650.22	7657.36
650.413	7690.12
650.605	7702.41
650.798	7767.95
650.991	7438.22
651.183	7534.48
651.376	7427.98
651.568	7571.34
651.761	7354.26
651.954	7214.99
652.146	7372.69
652.339	7341.97
652.531	7423.89
652.724	7307.15
652.916	7012.24
653.109	7231.38
653.301	7241.62
653.494	7204.75
653.686	7055.25
653.879	7096.21
654.071	6852.5
654.263	6969.24
654.456	7026.58
654.648	7088.02
654.84	6698.91
655.033	6844.31
655.225	6651.8
655.417	6727.58
655.61	6657.95
655.802	6774.68
655.994	6709.15
656.186	6713.24
656.379	6670.23
656.571	6567.84
656.763	6428.57
656.955	6436.77
657.148	6502.3
657.34	6522.78
657.532	6256.54
657.724	6266.78
657.916	6360.99
658.108	6279.07
658.3	6442.91
658.492	6346.66
658.684	6326.18
658.876	6131.62
659.068	6201.25
659.26	6150.05
659.452	6195.11
659.644	6068.13
659.836	5894.05
660.028	5998.5
660.22	5957.54
660.412	6025.12
660.604	5937.06
660.796	5769.13
660.988	5742.5
661.18	5846.95
661.372	5814.18
661.563	5791.66
661.755	5836.71
661.947	5623.72
662.139	5676.97
662.331	5697.45
662.522	5625.77
662.714	5552.04
662.906	5564.33
663.097	5423.02
663.289	5521.32
663.481	5472.17
663.673	5621.67
663.864	5439.4
664.056	5513.13
664.247	5445.55
664.439	5416.88
664.631	5296.05
664.822	5400.49
665.014	5345.2
665.205	5302.19
665.397	5224.37
665.588	5199.79
665.78	5199.79
665.971	5171.12
666.163	5224.37
666.354	4951.99
666.546	5033.91
666.737	5105.59
666.929	5070.77
667.12	4995
667.311	5054.39
667.503	4847.54
667.694	4970.42
667.885	4784.05
668.077	4902.84
668.268	4730.81
668.459	4677.56
668.651	4964.28
668.842	4716.47
669.033	4779.96
669.224	4751.29
669.416	4603.83
669.607	4700.09
669.798	4872.12
669.989	4677.56
670.18	4806.58
670.371	4601.79
670.563	4544.44
670.754	4743.1
670.945	4579.26
671.136	4515.77
671.327	4509.63
671.518	4581.31
671.709	4503.48
671.9	4440
672.091	4519.87
672.282	4474.81
672.473	4446.14
672.664	4564.92
672.855	4366.27
673.046	4427.71
673.237	4491.2
673.428	4292.54
673.619	4401.08
673.809	4284.35
674	4171.71
674.191	4341.69
674.382	4216.77
674.573	4220.86
674.764	4323.26
674.954	4280.25
675.145	4265.92
675.336	4235.2
675.527	4175.81
675.717	4341.69
675.908	4147.14
676.099	4194.24
676.289	4102.08
676.48	4173.76
676.671	4087.75
676.861	4040.64
677.052	4087.75
677.243	4220.86
677.433	4063.17
677.624	4054.98
677.814	4089.79
678.005	3962.82
678.195	4116.42
678.386	4079.55
678.576	3940.29
678.767	3944.39
678.957	4028.35
679.148	3891.14
679.338	3876.8
679.529	3831.75
679.719	3966.92
679.909	3930.05
680.1	3850.18
680.29	3915.72
680.481	3958.72
680.671	3870.66
680.861	3903.43
681.052	3923.91
681.242	3956.68
681.432	3895.24
681.622	3768.26
681.813	3825.61
682.003	3848.13
682.193	3745.73
682.383	3876.8
682.573	3700.68
682.764	3801.03
682.954	3715.02
683.144	3764.17
683.334	3831.75
683.524	3715.02
683.714	3680.2
683.904	3665.86
684.094	3702.73
684.284	3616.71
684.474	3680.2
684.664	3577.8
684.854	3827.65
685.044	3745.73
685.234	3792.84
685.424	3575.75
685.614	3522.51
685.804	3651.53
685.994	3520.46
686.184	3655.62
686.374	3639.24
686.564	3454.92
686.753	3581.9
686.943	3352.52
687.133	3401.68
687.323	3491.79
687.513	3420.11
687.702	3434.44
687.892	3370.96
688.082	3416.01
688.272	3360.72
688.461	3405.77
688.651	3393.48
688.841	3258.32
689.03	3319.76
689.22	3311.57
689.41	3239.89
689.599	3325.9
689.789	3155.92
689.979	3317.71
690.168	3231.69
690.358	3280.85
690.547	3311.57
690.737	3192.78
690.926	3217.36
691.116	3055.57
691.305	3123.15
691.495	3151.82
691.684	3086.29
691.874	3080.14
692.063	3160.02
692.252	3026.9
692.442	3016.66
692.631	3057.62
692.82	3041.23
693.01	3061.71
693.199	2942.93
693.388	2940.88
693.578	2828.24
693.767	3016.66
693.956	3043.28
694.146	2846.68
694.335	2977.75
694.524	2887.64
694.713	2949.07
694.902	2809.81
695.092	2799.57
695.281	2641.88
695.47	2789.33
695.659	2877.4
695.848	2789.33
696.037	2762.71
696.226	2775
696.415	2662.36
696.604	2828.24
696.793	2818
696.982	2760.66
697.171	2715.61
697.36	2701.27
697.549	2697.17
697.738	2777.05
697.927	2770.9
698.116	2744.28
698.305	2670.55
698.494	2734.04
698.683	2729.94
698.872	2768.85
699.061	2693.08
699.25	2697.17
699.438	2635.74
699.627	2609.11
699.816	2607.06
700.005	2693.08
700.193	2699.22
700.382	2717.65
700.571	2672.6
700.76	2648.02
700.948	2701.27
701.137	2600.92
701.326	2615.26
701.514	2547.67
701.703	2656.22
701.892	2549.72
702.08	2666.46
702.269	2635.74
702.457	2674.65
702.646	2584.54
702.834	2670.55
703.023	2543.58
703.212	2531.29
703.4	2498.52
703.589	2568.15
703.777	2500.57
703.965	2564.06
704.154	2562.01
704.342	2598.87
704.531	2596.82
704.719	2467.8
704.907	2512.86
705.096	2383.84
705.284	2648.02
705.472	2508.76
705.661	2420.7
705.849	2627.54
706.037	2408.41
706.226	2512.86
706.414	2574.3
706.602	2519
706.79	2566.1
706.979	2484.19
707.167	2617.3
707.355	2508.76
707.543	2480.09
707.731	2488.28
707.919	2478.04
708.107	2494.43
708.296	2455.51
708.484	2605.02
708.672	2408.41
708.86	2527.19
709.048	2467.8
709.236	2516.95
709.424	2551.77
709.612	2463.71
709.8	2521.05
709.988	2404.32
710.176	2562.01
710.364	2537.43
710.551	2439.13
710.739	2383.84
710.927	2471.9
711.115	2539.48
711.303	2574.3
711.491	2486.23
711.679	2557.91
711.866	2478.04
712.054	2484.19
712.242	2551.77
712.43	2506.71
712.617	2471.9
712.805	2582.49
712.993	2535.39
713.181	2492.38
713.368	2607.06
713.556	2465.75
713.744	2551.77
713.931	2557.91
714.119	2494.43
714.306	2478.04
714.494	2457.56
714.682	2457.56
714.869	2475.99
715.057	2432.99
715.244	2400.22
715.432	2447.32
715.619	2441.18
715.807	2447.32
715.994	2572.25
716.182	2486.23
716.369	2435.03
716.556	2469.85
716.744	2334.68
716.931	2412.51
717.119	2564.06
717.306	2492.38
717.493	2461.66
717.681	2531.29
717.868	2471.9
718.055	2504.67
718.242	2557.91
718.43	2435.03
718.617	2602.97
718.804	2482.14
718.991	2492.38
719.179	2473.95
719.366	2539.48
719.553	2564.06
719.74	2484.19
719.927	2516.95
720.114	2445.27
720.301	2389.98
720.488	2443.23
720.676	2439.13
720.863	2400.22
721.05	2422.75
721.237	2420.7
721.424	2519
721.611	2475.99
721.798	2504.67
721.985	2484.19
722.172	2463.71
722.358	2496.47
722.545	2457.56
722.732	2500.57
722.919	2619.35
723.106	2379.74
723.293	2471.9
723.48	2336.73
723.667	2385.88
723.853	2435.03
724.04	2617.3
724.227	2508.76
724.414	2482.14
724.6	2602.97
724.787	2478.04
724.974	2502.62
725.161	2426.84
725.347	2410.46
725.534	2535.39
725.72	2527.19
725.907	2475.99
726.094	2453.47
726.28	2428.89
726.467	2432.99
726.653	2473.95
726.84	2512.86
727.027	2635.74
727.213	2453.47
727.4	2496.47
727.586	2551.77
727.773	2359.26
727.959	2676.7
728.145	2488.28
728.332	2475.99
728.518	2557.91
728.705	2652.12
728.891	2463.71
729.077	2467.8
729.264	2404.32
729.45	2506.71
729.636	2365.4
729.823	2488.28
730.009	2496.47
730.195	2484.19
730.382	2473.95
730.568	2494.43
730.754	2488.28
730.94	2488.28
731.126	2467.8
731.313	2531.29
731.499	2437.08
731.685	2461.66
731.871	2392.03
732.057	2539.48
732.243	2451.42
732.429	2516.95
732.615	2494.43
732.801	2435.03
732.987	2467.8
733.173	2394.08
733.359	2359.26
733.545	2475.99
733.731	2394.08
733.917	2496.47
734.103	2559.96
734.289	2512.86
734.475	2385.88
734.661	2473.95
734.847	2469.85
735.033	2418.65
735.219	2443.23
735.404	2389.98
735.59	2424.79
735.776	2349.02
735.962	2406.36
736.148	2414.56
736.333	2469.85
736.519	2437.08
736.705	2383.84
736.89	2480.09
737.076	2394.08
737.262	2408.41
737.447	2361.31
737.633	2408.41
737.819	2471.9
738.004	2293.72
738.19	2396.12
738.375	2310.11
738.561	2375.64
738.747	2320.35
738.932	2408.41
739.118	2437.08
739.303	2496.47
739.489	2383.84
739.674	2328.54
739.859	2377.69
740.045	2367.45
740.23	2394.08
740.416	2287.58
740.601	2322.4
740.786	2334.68
740.972	2301.92
741.157	2320.35
741.342	2269.15
741.528	2252.77
741.713	2279.39
741.898	2240.48
742.084	2316.25
742.269	2195.42
742.454	2211.81
742.639	2316.25
742.824	2250.72
743.01	2281.44
743.195	2314.2
743.38	2168.8
743.565	2289.63
743.75	2136.03
743.935	2197.47
744.12	2295.77
744.305	2090.98
744.49	2174.94
744.675	2088.93
744.86	2090.98
745.045	1994.72
745.23	2103.26
745.415	2115.55
745.6	2084.83
745.785	2189.28
745.97	2111.46
746.155	1949.67
746.34	2095.07
746.525	2029.54
746.71	2054.11
746.895	1955.81
747.079	2074.59
747.264	1959.91
747.449	2031.58
747.634	1949.67
747.819	1951.71
748.003	1947.62
748.188	2031.58
748.373	1961.95
748.557	1970.15
748.742	1904.61
748.927	1976.29
749.111	1771.49
749.296	1794.02
749.481	1851.36
749.665	1914.85
749.85	1761.25
750.034	1894.37
750.219	1851.36
750.404	1804.26
750.588	1873.89
750.773	1683.43
750.957	1822.69
751.141	1671.14
751.326	1769.44
751.51	1683.43
751.695	1820.64
751.879	1767.4
752.064	1716.2
752.248	1642.47
752.432	1712.1
752.617	1636.33
752.801	1697.77
752.985	1589.22
753.17	1740.77
753.354	1652.71
753.538	1560.55
753.722	1540.07
753.907	1636.33
754.091	1607.66
754.275	1501.16
754.459	1535.98
754.643	1552.36
754.828	1513.45
755.012	1472.49
755.196	1550.31
755.38	1415.15
755.564	1378.28
755.748	1423.34
755.932	1466.35
756.116	1527.78
756.3	1449.96
756.484	1523.69
756.668	1431.53
756.852	1378.28
757.036	1357.8
757.22	1384.43
757.404	1392.62
757.588	1300.46
757.772	1351.66
757.956	1366
758.14	1429.48
758.323	1437.67
758.507	1247.21
758.691	1318.89
758.875	1409
759.059	1288.17
759.242	1314.8
759.426	1333.23
759.61	1216.49
759.794	1247.21
759.977	1376.23
760.161	1353.71
760.345	1275.88
760.528	1259.5
760.712	1329.13
760.895	1208.3
761.079	1243.12
761.263	1159.15
761.446	1185.77
761.63	1261.55
761.813	1155.05
761.997	1279.98
762.18	1175.53
762.364	1191.92
762.547	1163.25
762.731	1177.58
762.914	1017.84
763.098	1097.71
763.281	1103.86
763.464	1212.4
763.648	1163.25
763.831	1177.58
764.015	1069.04
764.198	1150.96
764.381	1181.68
764.564	1134.57
764.748	1153.01
764.931	1114.09
765.114	1060.85
765.297	1107.95
765.481	1097.71
765.664	1028.08
765.847	1112.05
766.03	1064.94
766.213	1017.84
766.397	1034.22
766.58	1134.57
766.763	1110
766.946	1097.71
767.129	1032.18
767.312	987.12
767.495	1134.57
767.678	989.17
767.861	1069.04
768.044	1034.22
768.227	1013.74
768.41	989.17
768.593	1052.66
768.776	995.31
768.959	1007.6
769.142	1019.89
769.324	970.74
769.507	882.67
769.69	1062.9
769.873	970.74
770.056	937.97
770.239	917.49
770.421	974.83
770.604	1003.5
770.787	980.98
770.97	935.92
771.152	913.39
771.335	991.22
771.518	927.73
771.7	946.16
771.883	909.3
772.066	993.26
772.248	835.57
772.431	907.25
772.613	866.29
772.796	907.25
772.978	874.48
773.161	886.77
773.343	894.96
773.526	880.63
773.708	858.1
773.891	794.61
774.073	817.14
774.256	911.35
774.438	854
774.621	819.19
774.803	827.38
774.985	716.79
775.168	817.14
775.35	831.48
775.532	800.76
775.715	724.98
775.897	796.66
776.079	737.27
776.261	774.13
776.444	696.31
776.626	780.28
776.808	735.22
776.99	694.26
777.173	675.83
777.355	692.21
777.537	755.7
777.719	698.36
777.901	722.93
778.083	700.41
778.265	720.88
778.447	657.4
778.629	679.93
778.811	714.74
778.993	755.7
779.175	667.64
779.357	649.21
779.539	655.35
779.721	714.74
779.903	636.92
780.085	669.69
780.267	651.25
780.449	595.96
780.631	565.24
780.812	641.01
780.994	645.11
781.176	630.77
781.358	583.67
781.54	595.96
781.721	645.11
781.903	563.19
782.085	600.05
782.267	608.25
782.448	616.44
782.63	595.96
782.812	522.23
782.993	618.49
783.175	581.62
783.357	538.62
783.538	552.95
783.72	606.2
783.901	509.94
784.083	593.91
784.264	516.09
784.446	538.62
784.627	473.08
784.809	479.22
784.99	497.66
785.172	518.14
785.353	538.62
785.535	530.42
785.716	479.22
785.897	520.18
786.079	524.28
786.26	501.75
786.441	518.14
786.623	477.18
786.804	466.94
786.985	438.27
787.167	489.46
787.348	411.64
787.529	344.06
787.71	481.27
787.891	485.37
788.073	423.93
788.254	448.51
788.435	458.74
788.616	454.65
788.797	407.55
788.978	413.69
789.159	440.31
789.34	413.69
789.522	288.76
789.703	387.07
789.884	417.79
790.065	491.51
790.246	395.26
790.427	397.31
790.607	397.31
790.788	436.22
790.969	360.44
791.15	389.11
791.331	325.63
791.512	421.88
791.693	395.26
791.874	348.15
792.054	440.31
792.235	452.6
792.416	356.35
792.597	413.69
792.778	243.71
792.958	415.74
793.139	395.26
793.32	342.01
793.5	393.21
793.681	339.96
793.862	315.39
794.042	335.87
794.223	301.05
794.404	360.44
794.584	352.25
794.765	382.97
794.945	317.44
795.126	397.31
795.306	399.35
795.487	333.82
795.667	354.3
795.848	382.97
796.028	280.57
796.209	301.05
796.389	342.01
796.57	292.86
796.75	313.34
796.93	317.44
797.111	303.1
797.291	337.91
797.471	294.91
797.652	299
797.832	290.81
798.012	215.04
798.192	329.72
798.373	260.09
798.553	278.52
798.733	323.58
798.913	294.91
799.093	270.33
799.274	274.43
799.454	358.39
799.634	194.56
799.814	319.48
799.994	239.61
800.174	333.82
800.354	206.84
800.534	253.95
800.714	233.47
800.894	229.37
801.074	206.84
801.254	251.9
801.434	237.56
801.614	233.47
801.794	243.71
801.974	741.36
802.154	247.8
802.334	262.14
802.514	262.14
802.693	229.37
802.873	200.7
803.053	229.37
803.233	276.48
803.413	233.47
803.592	270.33
803.772	215.04
803.952	229.37
804.131	303.1
804.311	192.51
804.491	266.24
804.67	212.99
804.85	319.48
805.03	237.56
805.209	256
805.389	182.27
805.568	229.37
805.748	223.23
805.928	215.04
806.107	186.37
806.287	180.22
806.466	180.22
806.646	176.13
806.825	184.32
807.004	180.22
807.184	145.41
807.363	235.52
807.543	221.18
807.722	149.5
807.901	184.32
808.081	262.14
808.26	141.31
808.439	141.31
808.619	241.66
808.798	270.33
808.977	219.13
809.156	243.71
809.336	262.14
809.515	223.23
809.694	192.51
809.873	206.84
810.052	202.75
810.231	219.13
810.411	178.17
810.59	253.95
810.769	69.63
810.948	200.7
811.127	147.45
811.306	178.17
811.485	165.89
811.664	194.56
811.843	182.27
812.022	210.94
812.201	243.71
812.38	116.73
812.559	180.22
812.737	186.37
812.916	143.36
813.095	106.49
813.274	163.84
813.453	225.28
813.632	200.7
813.811	137.21
813.989	159.74
814.168	198.65
814.347	141.31
814.526	83.97
814.704	129.02
814.883	233.47
815.062	126.97
815.24	120.83
815.419	176.13
815.598	110.59
815.776	151.55
815.955	178.17
816.133	69.63
816.312	145.41
816.49	131.07
816.669	106.49
816.847	159.74
817.026	118.78
817.204	155.65
817.383	81.92
817.561	104.45
817.74	139.26
817.918	40.96
818.097	67.58
818.275	153.6
818.453	110.59
818.632	165.89
818.81	104.45
818.988	151.55
819.167	90.11
819.345	143.36
819.523	157.69
819.701	112.64
819.879	108.54
820.058	165.89
820.236	163.84
820.414	155.65
820.592	135.17
820.77	114.69
820.948	137.21
821.127	149.5
821.305	124.93
821.483	131.07
821.661	96.25
821.839	135.17
822.017	116.73
822.195	141.31
822.373	161.79
822.551	151.55
822.729	86.01
822.907	88.06
823.085	110.59
823.262	110.59
823.44	129.02
823.618	116.73
823.796	79.87
823.974	100.35
824.152	98.3
824.329	110.59
824.507	77.82
824.685	83.97
824.863	131.07
825.04	69.63
825.218	94.21
825.396	45.06
825.574	81.92
825.751	90.11
825.929	161.79
826.107	96.25
826.284	133.12
826.462	122.88
826.639	77.82
826.817	69.63
826.994	69.63
827.172	71.68
827.349	139.26
827.527	116.73
827.704	147.45
827.882	122.88
828.059	151.55
828.237	71.68
828.414	104.45
828.591	86.01
828.769	135.17
828.946	98.3
829.124	161.79
829.301	143.36
829.478	47.1
829.655	81.92
829.833	-0
830.01	43.01
830.187	141.31
830.364	75.77
830.542	120.83
830.719	71.68
830.896	151.55
831.073	88.06
831.25	90.11
831.427	53.25
831.604	67.58
831.782	71.68
831.959	100.35
832.136	102.4
832.313	96.25
832.49	94.21
832.667	98.3
832.844	131.07
833.021	126.97
833.198	88.06
833.374	59.39
833.551	131.07
833.728	88.06
833.905	116.73
834.082	94.21
834.259	126.97
834.436	110.59
834.612	108.54
834.789	55.3
834.966	133.12
835.143	47.1
835.319	-8.19
835.496	155.65
835.673	159.74
835.85	77.82
836.026	65.53
836.203	30.72
836.38	57.34
836.556	-0
836.733	59.39
836.909	38.91
837.086	63.49
837.262	49.15
837.439	24.58
837.616	92.16
837.792	43.01
837.968	61.44
838.145	67.58
838.321	71.68
838.498	63.49
838.674	-12.29
838.851	94.21
839.027	53.25
839.203	30.72
839.38	77.82
839.556	104.45
839.732	86.01
839.909	120.83
840.085	73.73
840.261	57.34
840.437	108.54
840.614	57.34
840.79	108.54
840.966	67.58
841.142	38.91
841.318	43.01
841.494	61.44
841.671	71.68
841.847	32.77
842.023	55.3
842.199	51.2
842.375	28.67
842.551	57.34
842.727	16.38
842.903	104.45
843.079	26.62
843.255	45.06
843.431	43.01
843.607	104.45
843.783	69.63
843.959	49.15
844.134	67.58
844.31	98.3
844.486	20.48
844.662	83.97
844.838	-6.14
845.013	71.68
845.189	2.05
845.365	100.35
845.541	106.49
845.716	14.34
845.892	36.86
846.068	40.96
846.244	6.14
846.419	28.67
846.595	45.06
846.77	16.38
846.946	6.14
847.122	108.54
847.297	28.67
847.473	32.77
847.648	47.1
847.824	118.78
847.999	12.29
848.175	49.15
848.35	14.34
848.526	67.58
848.701	18.43
848.876	55.3
849.052	61.44
849.227	51.2
849.403	77.82
849.578	-0
849.753	49.15
849.929	96.25
850.104	-18.43
850.279	51.2
850.454	47.1
850.63	-18.43
850.805	49.15
850.98	86.01
851.155	63.49
851.33	98.3
851.505	16.38
851.681	-0
851.856	10.24
852.031	14.34
852.206	2.05
852.381	12.29
852.556	4.1
852.731	49.15
852.906	-51.2
853.081	6.14
853.256	110.59
853.431	63.49
853.606	98.3
853.781	-34.82
853.956	-0
854.131	12.29
854.305	12.29
854.48	86.01
854.655	-0
854.83	12.29
855.005	26.62
855.18	63.49
855.354	73.73
855.529	43.01
855.704	-10.24
855.879	69.63
856.053	77.82
856.228	67.58
856.403	24.58
856.577	88.06
856.752	-63.49
856.926	106.49
857.101	63.49
857.276	16.38
857.45	34.82
857.625	86.01
857.799	51.2
857.974	81.92
858.148	8.19
858.323	-18.43
858.497	-8.19
858.672	-6.14
858.846	20.48
859.02	67.58
859.195	26.62
859.369	61.44
859.543	32.77
859.718	75.77
859.892	57.34
860.066	-12.29
860.241	51.2
860.415	-0
860.589	-36.86
860.763	73.73
860.938	-4.1
861.112	14.34
861.286	122.88
861.46	34.82
861.634	-0
861.808	86.01
861.982	-16.38
862.157	4.1
862.331	-43.01
862.505	-67.58
862.679	4.1
862.853	77.82
863.027	-59.39
863.201	49.15
863.375	18.43
863.549	32.77
863.722	36.86
863.896	-10.24
864.07	8.19
864.244	40.96
864.418	63.49
864.592	-34.82
864.766	36.86
864.939	-6.14
865.113	24.58
865.287	94.21
865.461	-55.3
865.634	45.06
865.808	-6.14
865.982	28.67
866.156	-16.38
866.329	38.91
866.503	30.72
866.676	104.45
866.85	-12.29
867.024	38.91
867.197	10.24
867.371	40.96
867.544	-14.34
867.718	28.67
867.891	22.53
868.065	24.58
868.238	-34.82
868.412	4.1
868.585	61.44
868.759	28.67
868.932	69.63
869.105	-10.24
869.279	-0
869.452	-12.29
869.625	36.86
869.799	96.25
869.972	45.06
870.145	-16.38
870.319	-10.24
870.492	-24.58
870.665	-10.24
870.838	12.29
871.011	-22.53
871.185	32.77
871.358	6.14
871.531	16.38
871.704	20.48
871.877	47.1
872.05	45.06
872.223	16.38
872.396	16.38
872.569	16.38
872.742	-0
872.915	65.53
873.088	28.67
873.261	-4.1
873.434	155.65
873.607	-30.72
873.78	20.48
873.953	-14.34
874.126	-32.77
874.299	79.87
874.471	18.43
874.644	112.64
874.817	-12.29
874.99	67.58
875.163	12.29
875.335	20.48
875.508	38.91
875.681	67.58
875.853	4.1
876.026	67.58
876.199	22.53
876.371	26.62
876.544	2.05
876.717	49.15
876.889	59.39
877.062	8.19
877.234	2.05
877.407	61.44
877.579	-71.68
877.752	28.67
877.924	30.72
878.097	8.19
878.269	-81.92
878.442	10.24
878.614	16.38
878.786	81.92
878.959	16.38
879.131	-49.15
879.303	4.1
879.476	20.48
879.648	8.19
879.82	8.19
879.993	-86.01
880.165	61.44
880.337	-24.58
880.509	-6.14
880.681	40.96
880.854	98.3
881.026	16.38
881.198	43.01
881.37	-28.67
881.542	45.06
881.714	10.24
881.886	71.68
882.058	51.2
882.23	65.53
882.402	14.34
882.574	-6.14
882.746	12.29
882.918	43.01
883.09	30.72
883.262	-22.53
883.434	-51.2
883.606	-20.48
883.778	-12.29
883.95	14.34
884.122	55.3
884.293	71.68
884.465	12.29
884.637	34.82
884.809	-10.24
884.98	43.01
885.152	28.67
885.324	-26.62
885.496	34.82
885.667	4.1
885.839	-6.14
886.011	30.72
886.182	26.62
886.354	45.06
886.525	2.05
886.697	51.2
886.869	16.38
887.04	-10.24
887.212	114.69
887.383	36.86
887.555	20.48
887.726	22.53
887.897	24.58
888.069	47.1
888.24	22.53
888.412	-14.34
888.583	32.77
888.754	59.39
888.926	-18.43
889.097	-45.06
889.268	-32.77
889.44	30.72
889.611	18.43
889.782	30.72
889.953	57.34
890.125	45.06
890.296	47.1
890.467	-30.72
890.638	12.29
890.809	-2.05
890.98	14.34
891.151	22.53
891.323	83.97
891.494	-2.05
891.665	24.58
891.836	47.1
892.007	-47.1
892.178	34.82
892.349	28.67
892.52	-55.3
892.691	69.63
892.862	-0
893.032	-12.29
893.203	40.96
893.374	20.48
893.545	79.87
893.716	47.1
893.887	47.1
894.057	53.25
894.228	22.53
894.399	-22.53
894.57	-51.2
894.74	-63.49
894.911	6.14
895.082	51.2
895.253	-28.67
895.423	-10.24
895.594	47.1
895.764	16.38
895.935	-8.19
896.106	55.3
896.276	38.91
896.447	75.77
896.617	38.91
896.788	-26.62
896.958	36.86
897.129	-6.14
897.299	-69.63
897.47	-8.19
897.64	63.49
897.81	6.14
897.981	-2.05
898.151	-57.34
898.322	10.24
898.492	14.34
898.662	4.1
898.832	-0
899.003	112.64
899.173	69.63
899.343	-6.14
899.513	-10.24
