Data from USB4F104151__27__12-27-13-415.txt Node

Date: Fri Mar 14 12:27:13 EDT 2025
User: louis
Spectrometer: USB4F10415
Trigger mode: 4
Integration Time (sec): 2.000000E-2
Scans to average: 1
Electric dark correction enabled: true
Nonlinearity correction enabled: false
Boxcar width: 0
XAxis mode: Wavelengths
Number of Pixels in Spectrum: 3648
>>>>>Begin Spectral Data<<<<<
178.204	-25.09
178.424	-25.09
178.644	-25.09
178.864	-102.91
179.084	-98.81
179.304	50.69
179.524	-25.09
179.744	-6.66
179.964	-8.7
180.184	7.68
180.404	-33.28
180.624	19.97
180.844	1.54
181.064	17.92
181.283	1.54
181.503	-12.8
181.723	-12.8
181.943	-4.61
182.163	34.3
182.383	38.4
182.602	24.06
182.822	71.17
183.042	1.54
183.262	-57.86
183.482	77.31
183.701	-0.51
183.921	42.5
184.141	7.68
184.361	15.87
184.58	9.73
184.8	48.64
185.02	-12.8
185.239	15.87
185.459	3.58
185.679	-20.99
185.898	15.87
186.118	7.68
186.338	42.5
186.557	19.97
186.777	-29.18
186.997	-31.23
187.216	-18.94
187.436	38.4
187.655	17.92
187.875	15.87
188.095	22.02
188.314	83.45
188.534	73.21
188.753	9.73
188.973	-41.47
189.192	60.93
189.412	-47.62
189.631	3.58
189.851	-27.14
190.07	134.65
190.29	-45.57
190.509	5.63
190.729	-20.99
190.948	50.69
191.168	95.74
191.387	46.59
191.607	7.68
191.826	-31.23
192.045	52.74
192.265	-2.56
192.484	-12.8
192.704	5.63
192.923	13.82
193.142	30.21
193.362	89.6
193.581	77.31
193.8	3.58
194.02	105.98
194.239	36.35
194.458	50.69
194.678	11.78
194.897	40.45
195.116	30.21
195.335	32.26
195.555	34.3
195.774	34.3
195.993	46.59
196.212	-6.66
196.432	83.45
196.651	13.82
196.87	5.63
197.089	75.26
197.308	28.16
197.528	105.98
197.747	-4.61
197.966	17.92
198.185	91.65
198.404	52.74
198.623	71.17
198.842	-6.66
199.062	17.92
199.281	9.73
199.5	52.74
199.719	50.69
199.938	38.4
200.157	83.45
200.376	-33.28
200.595	52.74
200.814	44.54
201.033	56.83
201.252	19.97
201.471	56.83
201.69	60.93
201.909	-33.28
202.128	54.78
202.347	50.69
202.566	19.97
202.785	24.06
203.004	75.26
203.223	-6.66
203.442	-14.85
203.661	-10.75
203.879	83.45
204.098	81.41
204.317	-0.51
204.536	-14.85
204.755	54.78
204.974	19.97
205.193	24.06
205.411	44.54
205.63	65.02
205.849	32.26
206.068	11.78
206.287	-8.7
206.505	38.4
206.724	34.3
206.943	54.78
207.162	17.92
207.381	9.73
207.599	-20.99
207.818	81.41
208.037	40.45
208.255	26.11
208.474	60.93
208.693	62.98
208.911	5.63
209.13	42.5
209.349	67.07
209.567	1.54
209.786	58.88
210.005	3.58
210.223	3.58
210.442	15.87
210.661	58.88
210.879	9.73
211.098	24.06
211.316	67.07
211.535	7.68
211.753	54.78
211.972	42.5
212.191	24.06
212.409	34.3
212.628	69.12
212.846	22.02
213.065	5.63
213.283	91.65
213.502	34.3
213.72	34.3
213.938	28.16
214.157	73.21
214.375	67.07
214.594	11.78
214.812	40.45
215.031	-12.8
215.249	7.68
215.467	46.59
215.686	99.84
215.904	36.35
216.122	26.11
216.341	77.31
216.559	1.54
216.778	52.74
216.996	67.07
217.214	97.79
217.432	58.88
217.651	-14.85
217.869	24.06
218.087	50.69
218.306	22.02
218.524	11.78
218.742	38.4
218.96	79.36
219.179	5.63
219.397	19.97
219.615	42.5
219.833	69.12
220.051	7.68
220.27	62.98
220.488	30.21
220.706	22.02
220.924	56.83
221.142	46.59
221.36	38.4
221.578	40.45
221.796	95.74
222.015	52.74
222.233	38.4
222.451	89.6
222.669	34.3
222.887	44.54
223.105	-41.47
223.323	-8.7
223.541	34.3
223.759	-6.66
223.977	44.54
224.195	52.74
224.413	40.45
224.631	60.93
224.849	46.59
225.067	69.12
225.285	-20.99
225.503	9.73
225.721	52.74
225.939	103.93
226.157	22.02
226.375	89.6
226.592	15.87
226.81	-2.56
227.028	97.79
227.246	97.79
227.464	50.69
227.682	44.54
227.9	40.45
228.117	79.36
228.335	7.68
228.553	116.22
228.771	-18.94
228.989	-10.75
229.206	36.35
229.424	42.5
229.642	36.35
229.86	-0.51
230.077	15.87
230.295	36.35
230.513	-23.04
230.731	38.4
230.948	77.31
231.166	34.3
231.384	-35.33
231.601	38.4
231.819	-16.9
232.037	-23.04
232.254	30.21
232.472	28.16
232.689	40.45
232.907	1.54
233.125	42.5
233.342	44.54
233.56	1.54
233.777	48.64
233.995	71.17
234.213	75.26
234.43	15.87
234.648	26.11
234.865	24.06
235.083	32.26
235.3	7.68
235.518	-49.66
235.735	81.41
235.953	48.64
236.17	-12.8
236.388	34.3
236.605	46.59
236.822	38.4
237.04	60.93
237.257	1.54
237.475	-27.14
237.692	73.21
237.909	32.26
238.127	79.36
238.344	52.74
238.562	48.64
238.779	28.16
238.996	-88.57
239.214	87.55
239.431	9.73
239.648	9.73
239.865	54.78
240.083	97.79
240.3	-43.52
240.517	11.78
240.735	7.68
240.952	-2.56
241.169	48.64
241.386	28.16
241.603	95.74
241.821	9.73
242.038	3.58
242.255	-25.09
242.472	42.5
242.689	17.92
242.907	95.74
243.124	97.79
243.341	36.35
243.558	5.63
243.775	-59.9
243.992	3.58
244.209	71.17
244.426	87.55
244.643	17.92
244.86	34.3
245.078	5.63
245.295	52.74
245.512	28.16
245.729	5.63
245.946	105.98
246.163	65.02
246.38	58.88
246.597	-14.85
246.814	36.35
247.031	108.03
247.248	-8.7
247.464	130.56
247.681	36.35
247.898	60.93
248.115	83.45
248.332	32.26
248.549	46.59
248.766	40.45
248.983	7.68
249.2	30.21
249.417	52.74
249.633	85.5
249.85	99.84
250.067	-6.66
250.284	-8.7
250.501	19.97
250.717	58.88
250.934	-16.9
251.151	124.41
251.368	-49.66
251.585	89.6
251.801	69.12
252.018	34.3
252.235	101.89
252.451	17.92
252.668	58.88
252.885	19.97
253.102	15.87
253.318	19.97
253.535	-20.99
253.752	-2.56
253.968	-70.14
254.185	71.17
254.401	36.35
254.618	56.83
254.835	36.35
255.051	120.32
255.268	-23.04
255.484	-16.9
255.701	32.26
255.917	122.37
256.134	7.68
256.351	93.69
256.567	-16.9
256.784	101.89
257	-37.38
257.217	103.93
257.433	50.69
257.65	42.5
257.866	32.26
258.082	62.98
258.299	24.06
258.515	15.87
258.732	40.45
258.948	50.69
259.165	13.82
259.381	36.35
259.597	13.82
259.814	-47.62
260.03	52.74
260.246	13.82
260.463	11.78
260.679	116.22
260.895	-29.18
261.112	-12.8
261.328	56.83
261.544	48.64
261.761	42.5
261.977	28.16
262.193	-61.95
262.409	71.17
262.626	71.17
262.842	56.83
263.058	15.87
263.274	22.02
263.49	36.35
263.707	-16.9
263.923	124.41
264.139	22.02
264.355	5.63
264.571	73.21
264.787	36.35
265.004	17.92
265.22	13.82
265.436	50.69
265.652	5.63
265.868	110.08
266.084	38.4
266.3	60.93
266.516	24.06
266.732	42.5
266.948	83.45
267.164	40.45
267.38	38.4
267.596	24.06
267.812	56.83
268.028	42.5
268.244	79.36
268.46	44.54
268.676	19.97
268.892	54.78
269.108	56.83
269.324	46.59
269.54	17.92
269.756	60.93
269.972	67.07
270.188	99.84
270.403	-8.7
270.619	42.5
270.835	32.26
271.051	87.55
271.267	-41.47
271.483	58.88
271.698	73.21
271.914	71.17
272.13	65.02
272.346	52.74
272.562	38.4
272.777	46.59
272.993	3.58
273.209	77.31
273.425	95.74
273.64	-0.51
273.856	5.63
274.072	62.98
274.287	58.88
274.503	58.88
274.719	-20.99
274.934	67.07
275.15	40.45
275.366	71.17
275.581	44.54
275.797	28.16
276.012	58.88
276.228	15.87
276.444	52.74
276.659	28.16
276.875	13.82
277.09	28.16
277.306	-33.28
277.521	17.92
277.737	79.36
277.952	95.74
278.168	-2.56
278.383	52.74
278.599	-14.85
278.814	69.12
279.03	71.17
279.245	65.02
279.461	42.5
279.676	120.32
279.892	28.16
280.107	50.69
280.322	15.87
280.538	-18.94
280.753	26.11
280.969	28.16
281.184	69.12
281.399	5.63
281.615	-6.66
281.83	40.45
282.045	7.68
282.26	-29.18
282.476	65.02
282.691	87.55
282.906	67.07
283.122	3.58
283.337	11.78
283.552	58.88
283.767	44.54
283.983	-8.7
284.198	22.02
284.413	132.61
284.628	-10.75
284.843	30.21
285.058	67.07
285.274	28.16
285.489	24.06
285.704	128.51
285.919	-43.52
286.134	15.87
286.349	44.54
286.564	26.11
286.779	67.07
286.995	-20.99
287.21	-37.38
287.425	15.87
287.64	19.97
287.855	79.36
288.07	-18.94
288.285	-4.61
288.5	69.12
288.715	87.55
288.93	101.89
289.145	-2.56
289.36	85.5
289.575	19.97
289.79	-6.66
290.004	73.21
290.219	56.83
290.434	48.64
290.649	73.21
290.864	11.78
291.079	36.35
291.294	30.21
291.509	50.69
291.724	71.17
291.938	26.11
292.153	62.98
292.368	22.02
292.583	9.73
292.798	73.21
293.012	60.93
293.227	-20.99
293.442	62.98
293.657	40.45
293.871	85.5
294.086	60.93
294.301	5.63
294.516	44.54
294.73	-8.7
294.945	-2.56
295.16	-27.14
295.374	73.21
295.589	91.65
295.804	46.59
296.018	99.84
296.233	48.64
296.447	11.78
296.662	11.78
296.877	48.64
297.091	52.74
297.306	65.02
297.52	50.69
297.735	34.3
297.949	22.02
298.164	36.35
298.378	42.5
298.593	-6.66
298.807	54.78
299.022	17.92
299.236	56.83
299.451	60.93
299.665	52.74
299.88	-6.66
300.094	32.26
300.309	-20.99
300.523	101.89
300.737	24.06
300.952	19.97
301.166	87.55
301.381	17.92
301.595	-0.51
301.809	40.45
302.024	67.07
302.238	40.45
302.452	69.12
302.667	65.02
302.881	85.5
303.095	-10.75
303.309	69.12
303.524	26.11
303.738	108.03
303.952	-39.42
304.166	15.87
304.381	34.3
304.595	142.85
304.809	-10.75
305.023	34.3
305.237	22.02
305.452	79.36
305.666	79.36
305.88	85.5
306.094	3.58
306.308	77.31
306.522	101.89
306.736	26.11
306.95	54.78
307.164	-14.85
307.379	69.12
307.593	34.3
307.807	34.3
308.021	50.69
308.235	36.35
308.449	22.02
308.663	-31.23
308.877	7.68
309.091	83.45
309.305	77.31
309.519	108.03
309.733	69.12
309.947	-8.7
310.161	42.5
310.374	40.45
310.588	65.02
310.802	22.02
311.016	71.17
311.23	114.17
311.444	36.35
311.658	58.88
311.872	134.65
312.085	101.89
312.299	7.68
312.513	67.07
312.727	28.16
312.941	69.12
313.154	99.84
313.368	73.21
313.582	5.63
313.796	65.02
314.009	126.46
314.223	81.41
314.437	46.59
314.651	-2.56
314.864	11.78
315.078	-0.51
315.292	-16.9
315.505	3.58
315.719	19.97
315.933	54.78
316.146	30.21
316.36	3.58
316.573	-2.56
316.787	-8.7
317.001	85.5
317.214	69.12
317.428	24.06
317.641	38.4
317.855	46.59
318.068	5.63
318.282	67.07
318.495	24.06
318.709	9.73
318.922	73.21
319.136	52.74
319.349	36.35
319.563	79.36
319.776	110.08
319.99	85.5
320.203	79.36
320.417	79.36
320.63	-23.04
320.843	24.06
321.057	85.5
321.27	108.03
321.483	48.64
321.697	58.88
321.91	36.35
322.124	67.07
322.337	-20.99
322.55	95.74
322.763	17.92
322.977	44.54
323.19	-2.56
323.403	34.3
323.617	83.45
323.83	40.45
324.043	7.68
324.256	7.68
324.469	1.54
324.683	26.11
324.896	46.59
325.109	19.97
325.322	28.16
325.535	52.74
325.748	83.45
325.962	60.93
326.175	-6.66
326.388	54.78
326.601	-25.09
326.814	19.97
327.027	30.21
327.24	116.22
327.453	7.68
327.666	36.35
327.879	95.74
328.092	46.59
328.305	-29.18
328.518	28.16
328.731	15.87
328.944	65.02
329.157	-27.14
329.37	120.32
329.583	73.21
329.796	48.64
330.009	5.63
330.222	99.84
330.435	67.07
330.648	89.6
330.861	3.58
331.073	38.4
331.286	62.98
331.499	44.54
331.712	54.78
331.925	58.88
332.138	-2.56
332.35	42.5
332.563	-55.81
332.776	101.89
332.989	36.35
333.202	93.69
333.414	7.68
333.627	65.02
333.84	79.36
334.053	65.02
334.265	81.41
334.478	54.78
334.691	42.5
334.903	34.3
335.116	17.92
335.329	32.26
335.541	58.88
335.754	60.93
335.966	17.92
336.179	83.45
336.392	73.21
336.604	46.59
336.817	-6.66
337.029	91.65
337.242	38.4
337.454	62.98
337.667	50.69
337.88	36.35
338.092	69.12
338.305	34.3
338.517	-64
338.729	48.64
338.942	77.31
339.154	9.73
339.367	24.06
339.579	-0.51
339.792	112.13
340.004	67.07
340.217	73.21
340.429	93.69
340.641	75.26
340.854	79.36
341.066	85.5
341.278	67.07
341.491	28.16
341.703	95.74
341.915	-8.7
342.128	48.64
342.34	5.63
342.552	50.69
342.764	-8.7
342.977	-6.66
343.189	62.98
343.401	36.35
343.613	40.45
343.826	38.4
344.038	40.45
344.25	85.5
344.462	54.78
344.674	65.02
344.886	79.36
345.099	130.56
345.311	75.26
345.523	89.6
345.735	-14.85
345.947	71.17
346.159	24.06
346.371	118.27
346.583	77.31
346.795	48.64
347.007	40.45
347.219	114.17
347.431	62.98
347.643	11.78
347.855	17.92
348.067	93.69
348.279	134.65
348.491	56.83
348.703	38.4
348.915	95.74
349.127	48.64
349.339	60.93
349.551	11.78
349.763	87.55
349.975	13.82
350.187	77.31
350.399	52.74
350.61	65.02
350.822	40.45
351.034	38.4
351.246	56.83
351.458	44.54
351.669	30.21
351.881	77.31
352.093	3.58
352.305	95.74
352.517	46.59
352.728	-16.9
352.94	48.64
353.152	75.26
353.363	71.17
353.575	60.93
353.787	93.69
353.999	75.26
354.21	71.17
354.422	48.64
354.633	85.5
354.845	15.87
355.057	40.45
355.268	130.56
355.48	26.11
355.692	114.17
355.903	71.17
356.115	65.02
356.326	-12.8
356.538	89.6
356.749	83.45
356.961	83.45
357.172	-2.56
357.384	7.68
357.595	60.93
357.807	-4.61
358.018	42.5
358.23	75.26
358.441	144.89
358.653	34.3
358.864	44.54
359.075	97.79
359.287	30.21
359.498	36.35
359.709	60.93
359.921	28.16
360.132	87.55
360.344	34.3
360.555	114.17
360.766	13.82
360.977	22.02
361.189	108.03
361.4	89.6
361.611	83.45
361.823	46.59
362.034	58.88
362.245	-10.75
362.456	108.03
362.667	130.56
362.879	44.54
363.09	52.74
363.301	60.93
363.512	79.36
363.723	32.26
363.935	32.26
364.146	77.31
364.357	65.02
364.568	22.02
364.779	1.54
364.99	83.45
365.201	75.26
365.412	99.84
365.623	-18.94
365.834	67.07
366.045	89.6
366.256	69.12
366.467	114.17
366.678	44.54
366.889	9.73
367.1	38.4
367.311	89.6
367.522	46.59
367.733	62.98
367.944	79.36
368.155	71.17
368.366	9.73
368.577	81.41
368.788	26.11
368.999	116.22
369.209	116.22
369.42	118.27
369.631	120.32
369.842	44.54
370.053	71.17
370.264	-12.8
370.474	114.17
370.685	75.26
370.896	60.93
371.107	-14.85
371.317	112.13
371.528	44.54
371.739	54.78
371.95	54.78
372.16	56.83
372.371	54.78
372.582	19.97
372.792	77.31
373.003	81.41
373.214	44.54
373.424	65.02
373.635	-39.42
373.846	79.36
374.056	11.78
374.267	73.21
374.477	-0.51
374.688	112.13
374.898	101.89
375.109	38.4
375.319	54.78
375.53	93.69
375.74	116.22
375.951	52.74
376.161	58.88
376.372	173.57
376.582	44.54
376.793	110.08
377.003	30.21
377.214	140.8
377.424	46.59
377.635	105.98
377.845	126.46
378.055	81.41
378.266	89.6
378.476	32.26
378.686	97.79
378.897	114.17
379.107	7.68
379.317	56.83
379.528	40.45
379.738	87.55
379.948	65.02
380.158	124.41
380.369	112.13
380.579	36.35
380.789	26.11
380.999	5.63
381.21	142.85
381.42	148.99
381.63	30.21
381.84	101.89
382.05	83.45
382.261	83.45
382.471	81.41
382.681	60.93
382.891	40.45
383.101	95.74
383.311	89.6
383.521	50.69
383.731	124.41
383.941	108.03
384.151	73.21
384.361	48.64
384.571	71.17
384.781	91.65
384.991	126.46
385.201	118.27
385.411	42.5
385.621	62.98
385.831	42.5
386.041	58.88
386.251	81.41
386.461	48.64
386.671	44.54
386.881	60.93
387.091	46.59
387.301	120.32
387.511	-4.61
387.72	19.97
387.93	99.84
388.14	19.97
388.35	67.07
388.56	34.3
388.769	95.74
388.979	79.36
389.189	22.02
389.399	30.21
389.609	65.02
389.818	126.46
390.028	75.26
390.238	1.54
390.447	52.74
390.657	56.83
390.867	95.74
391.076	5.63
391.286	50.69
391.496	75.26
391.705	-31.23
391.915	83.45
392.125	110.08
392.334	65.02
392.544	81.41
392.753	34.3
392.963	56.83
393.172	-12.8
393.382	110.08
393.591	118.27
393.801	62.98
394.01	118.27
394.22	144.89
394.429	99.84
394.639	93.69
394.848	112.13
395.058	122.37
395.267	87.55
395.477	52.74
395.686	124.41
395.895	134.65
396.105	36.35
396.314	77.31
396.524	126.46
396.733	126.46
396.942	134.65
397.152	99.84
397.361	177.66
397.57	71.17
397.78	132.61
397.989	128.51
398.198	200.19
398.407	124.41
398.617	132.61
398.826	73.21
399.035	91.65
399.244	155.13
399.453	101.89
399.663	65.02
399.872	138.75
400.081	85.5
400.29	173.57
400.499	116.22
400.708	118.27
400.917	140.8
401.127	97.79
401.336	99.84
401.545	132.61
401.754	175.61
401.963	130.56
402.172	161.28
402.381	93.69
402.59	153.09
402.799	132.61
403.008	60.93
403.217	192
403.426	140.8
403.635	144.89
403.844	175.61
404.053	124.41
404.262	148.99
404.471	216.57
404.68	175.61
404.888	148.99
405.097	144.89
405.306	198.14
405.515	222.72
405.724	280.06
405.933	222.72
406.142	187.9
406.35	230.91
406.559	214.52
406.768	261.63
406.977	259.58
407.185	243.2
407.394	218.62
407.603	175.61
407.812	200.19
408.02	300.54
408.229	323.07
408.438	263.68
408.646	312.83
408.855	318.97
409.064	318.97
409.272	325.12
409.481	368.12
409.69	429.56
409.898	296.44
410.107	333.31
410.315	355.83
410.524	335.35
410.733	325.12
410.941	413.18
411.15	398.84
411.358	402.94
411.567	499.19
411.775	435.71
411.984	413.18
412.192	513.53
412.401	505.34
412.609	640.5
412.818	591.35
413.026	574.97
413.234	683.51
413.443	583.16
413.651	595.45
413.86	634.36
414.068	632.31
414.276	812.53
414.485	646.65
414.693	720.37
414.901	736.76
415.11	798.2
415.318	833.01
415.526	818.68
415.734	882.16
415.943	859.63
416.151	986.61
416.359	980.47
416.567	1005.04
416.776	1123.82
416.984	1179.12
417.192	1076.72
417.4	1119.73
417.608	1140.21
417.817	1240.56
418.025	1230.32
418.233	1279.47
418.441	1347.05
418.649	1394.15
418.857	1398.25
419.065	1496.55
419.273	1494.51
419.481	1531.37
419.689	1684.97
419.897	1748.45
420.105	1820.13
420.313	1783.27
420.521	1910.24
420.729	1854.95
420.937	1981.92
421.145	2006.5
421.353	2125.28
421.561	2223.58
421.769	2223.58
421.977	2325.98
422.185	2213.34
422.393	2399.71
422.601	2594.26
422.809	2655.7
423.017	2565.59
423.224	2733.53
423.432	2762.2
423.64	2797.01
423.848	3171.79
424.056	3020.24
424.263	3360.2
424.471	3313.1
424.679	3358.16
424.887	3450.32
425.094	3745.22
425.302	3745.22
425.51	3786.18
425.718	3947.97
425.925	4054.47
426.133	4171.2
426.341	4310.46
426.548	4437.44
426.756	4613.56
426.964	4582.84
427.171	4887.99
427.379	5121.46
427.586	5078.45
427.794	5139.89
428.001	5610.92
428.209	5758.38
428.417	5649.83
428.624	6059.43
428.832	6102.43
429.039	5963.17
429.247	6127.01
429.454	6477.21
429.662	6993.3
429.869	6507.93
430.076	6993.3
430.284	6778.26
430.491	7181.71
430.699	7525.77
430.906	7718.28
431.114	7632.27
431.321	7884.17
431.528	8181.12
431.736	8705.4
431.943	8824.19
432.15	8748.41
432.358	8859
432.565	9194.87
432.772	9239.92
432.979	9835.88
433.187	9973.1
433.394	9930.09
433.601	10595.68
433.808	10521.95
434.016	10501.47
434.223	11183.45
434.43	11765.07
434.637	11439.44
434.844	12166.47
435.052	12647.74
435.259	12367.17
435.466	12522.82
435.673	12528.96
435.88	13534.51
436.087	13888.81
436.294	13931.82
436.501	13778.22
436.708	14140.71
436.915	14437.67
437.122	15297.81
437.329	14945.56
437.537	15762.7
437.743	15748.37
437.95	15598.87
438.157	16545.03
438.364	17114.36
438.571	16905.47
438.778	17331.45
438.985	18539.75
439.192	18050.28
439.399	18543.85
439.606	18060.52
439.813	19170.52
440.02	20425.93
440.227	19606.74
440.433	19897.55
440.64	20780.23
440.847	20479.18
441.054	20915.39
441.261	22256.81
441.467	22215.85
441.674	22293.68
441.881	23379.1
442.088	23405.72
442.294	22977.7
442.501	23757.97
442.708	24130.7
442.914	25246.85
443.121	25805.94
443.328	25453.69
443.534	27225.18
443.741	26516.59
443.948	25840.76
444.154	28314.7
444.361	28374.1
444.568	28036.18
444.774	28122.19
444.981	28554.32
445.187	29099.08
445.394	30723.12
445.6	29938.74
445.807	33281.03
446.013	31544.35
446.22	32295.96
446.426	33598.46
446.633	33727.49
446.839	34798.57
447.046	33391.62
447.252	35070.95
447.459	35476.45
447.665	35214.31
447.871	36930.51
448.078	38433.72
448.284	36733.9
448.491	37516.23
448.697	38962.09
448.903	39490.47
449.11	39826.34
449.316	39109.55
449.522	40010.65
449.728	40981.39
449.935	41411.46
450.141	41061.26
450.347	41972.61
450.553	41059.21
450.76	41372.55
450.966	42718.07
451.172	42296.19
451.378	43471.72
451.584	42591.09
451.791	43617.13
451.997	43367.27
452.203	44036.96
452.409	44141.41
452.615	44063.58
452.821	42173.31
453.027	42034.05
453.233	44327.77
453.44	42423.16
453.646	42959.73
453.852	43012.98
454.058	43684.71
454.264	42460.02
454.47	43359.08
454.676	42208.12
454.882	43928.42
455.088	40207.26
455.294	40244.12
455.5	41264.01
455.705	41913.22
455.911	39865.25
456.117	39168.94
456.323	38996.91
456.529	36883.41
456.735	38343.61
456.941	37290.95
457.147	36547.54
457.352	35539.94
457.558	35509.22
457.764	34972.65
457.97	34421.75
458.176	33881.08
458.381	33707.01
458.587	32525.33
458.793	32146.45
458.999	31022.12
459.204	33057.8
459.41	32191.51
459.616	29762.62
459.821	30106.68
460.027	29699.13
460.233	29291.59
460.438	27665.5
460.644	28372.05
460.85	26664.04
461.055	26287.21
461.261	26416.24
461.466	24153.23
461.672	23415.96
461.878	25433.21
462.083	23473.31
462.289	23288.99
462.494	22764.71
462.7	21742.77
462.905	21683.38
463.111	22056.11
463.316	22158.51
463.522	21261.5
463.727	21714.1
463.932	21890.23
464.138	21320.89
464.343	21470.39
464.549	20921.54
464.754	21462.2
464.959	21355.71
465.165	21226.68
465.37	20331.72
465.575	19893.46
465.781	20634.82
465.986	20884.67
466.191	20180.17
466.397	19768.53
466.602	18818.27
466.807	19621.08
467.012	19148
467.218	19236.06
467.423	19074.27
467.628	19299.55
467.833	20047.05
468.038	19148
468.244	18728.16
468.449	19635.41
468.654	18992.35
468.859	18554.08
469.064	18640.1
469.269	18081
469.474	17878.26
469.679	18244.84
469.885	17655.03
470.09	17872.11
470.295	18019.57
470.5	17638.64
470.705	17681.65
470.91	17183.99
471.115	17009.92
471.32	17263.86
471.525	17263.86
471.73	16741.63
471.935	16844.03
472.139	16235.78
472.344	16231.69
472.549	16194.82
472.754	16272.65
472.959	16049.42
473.164	15203.61
473.369	15271.19
473.574	15717.65
473.778	15557.91
473.983	15541.52
474.188	15383.83
474.393	14859.55
474.598	14886.17
474.802	14642.46
475.007	14531.87
475.212	14515.49
475.417	14040.36
475.621	14044.46
475.826	14167.34
476.031	13866.28
476.235	13430.07
476.44	14009.64
476.645	13413.68
476.849	13438.26
477.054	13292.85
477.259	13270.33
477.463	13167.93
477.668	12916.03
477.872	12883.26
478.077	12641.6
478.282	12553.54
478.486	12342.6
478.691	12191.05
478.895	12195.14
479.1	12303.68
479.304	12389.7
479.509	11875.66
479.713	12152.13
479.918	11760.97
480.122	11590.99
480.326	11627.85
480.531	11928.91
480.735	11720.01
480.94	11537.74
481.144	11871.56
481.348	11257.17
481.553	11525.46
481.757	11240.79
481.961	11588.94
482.166	11443.54
482.37	11367.76
482.574	11306.32
482.778	11380.05
482.983	11531.6
483.187	11294.04
483.391	11410.77
483.595	11496.78
483.8	11187.54
484.004	11277.65
484.208	11461.97
484.412	11177.3
484.616	11261.27
484.821	11611.47
485.025	11105.62
485.229	11289.94
485.433	11048.28
485.637	11285.84
485.841	11390.29
486.045	11027.8
486.249	11345.23
486.453	11171.16
486.657	11195.73
486.861	11232.6
487.065	11103.57
487.269	11218.26
487.473	10995.03
487.677	11156.82
487.881	11386.19
488.085	11267.41
488.289	11455.83
488.493	11263.32
488.697	11427.15
488.901	11590.99
489.105	11504.98
489.309	11476.3
489.512	11189.59
489.716	11472.21
489.92	11468.11
490.124	11468.11
490.328	11789.64
490.531	11486.54
490.735	11666.77
490.939	11613.52
491.143	11527.5
491.346	11625.81
491.55	11763.02
491.754	11795.79
491.958	11855.18
492.161	11980.11
492.365	11978.06
492.569	11945.29
492.772	12180.81
492.976	12100.94
493.18	11955.53
493.383	12215.62
493.587	12318.02
493.79	12508.48
493.994	12160.33
494.197	12299.59
494.401	12516.67
494.605	12668.22
494.808	12666.17
495.012	12741.95
495.215	12844.35
495.419	13004.09
495.622	12895.55
495.825	13235.51
496.029	13317.43
496.232	13389.11
496.436	13397.3
496.639	13677.87
496.843	13591.86
497.046	13759.79
497.249	14081.32
497.453	14218.54
497.656	14271.78
497.859	14161.19
498.063	14359.84
498.266	14820.64
498.469	14687.52
498.673	14839.07
498.876	15179.03
499.079	15346.97
499.282	14943.52
499.485	15621.39
499.689	15631.63
499.892	15717.65
500.095	15969.55
500.298	16397.57
500.501	16065.8
500.705	16571.65
500.908	16741.63
501.111	16846.08
501.314	17020.16
501.517	17186.04
501.72	17454.33
501.923	17429.75
502.126	17943.79
502.329	18162.92
502.532	18138.35
502.735	18259.18
502.938	18595.04
503.141	18943.2
503.344	18814.18
503.547	19047.65
503.75	19408.09
503.953	19602.64
504.156	19666.13
504.359	20045.01
504.562	20128.97
504.765	20438.22
504.968	20542.66
505.17	20749.51
505.373	20946.11
505.576	21484.73
505.779	21372.09
505.982	21660.85
506.185	21884.08
506.387	21859.51
506.59	22291.63
506.793	22500.52
506.996	22406.31
507.198	23184.54
507.401	22926.5
507.604	23585.94
507.807	23819.41
508.009	23946.39
508.212	24005.78
508.415	24429.71
508.617	24644.74
508.82	24767.62
509.022	24747.14
509.225	25382.01
509.428	25289.85
509.63	25803.89
509.833	25877.62
510.035	26410.09
510.238	26451.05
510.44	26848.36
510.643	26707.05
510.845	27303.01
511.048	27440.22
511.25	27458.65
511.453	28087.38
511.655	28685.39
511.858	28523.6
512.06	28865.61
512.262	28677.19
512.465	29174.85
512.667	29621.31
512.87	29555.77
513.072	29731.9
513.274	30377.01
513.477	30522.41
513.679	31171.62
513.881	30956.58
514.084	31253.54
514.286	31646.75
514.488	31704.09
514.69	32855.05
514.893	32394.26
515.095	32537.62
515.297	32926.73
515.499	33029.13
515.701	33797.12
515.904	33850.36
516.106	33883.13
516.308	34331.64
516.51	34759.66
516.712	34819.05
516.914	35261.41
517.116	35623.9
517.318	35838.94
517.52	35787.74
517.722	36068.31
517.925	36393.94
518.127	37073.87
518.329	37120.97
518.531	37045.19
518.733	37686.21
518.935	38114.23
519.136	37940.16
519.338	38704.05
519.54	38470.58
519.742	38874.03
519.944	39422.89
520.146	39642.02
520.348	39820.19
520.55	39859.1
520.752	40051.61
520.954	40911.76
521.155	40260.51
521.357	41194.38
521.559	41354.12
521.761	41722.76
521.963	41681.8
522.164	42001.28
522.366	42015.61
522.568	42767.22
522.77	42730.36
522.971	43410.28
523.173	43498.34
523.375	43322.22
523.576	44063.58
523.778	43518.82
523.98	44333.92
524.181	44340.06
524.383	44389.21
524.584	44903.25
524.786	44753.75
524.988	44923.73
525.189	45523.79
525.391	45394.76
525.592	45828.93
525.794	45585.22
525.995	46009.15
526.197	45826.88
526.398	45716.29
526.6	46390.08
526.801	46363.45
527.003	47125.3
527.204	46707.51
527.406	47260.46
527.607	46963.51
527.808	47686.44
528.01	46799.67
528.211	47311.66
528.412	48055.07
528.614	47768.36
528.815	47616.81
529.016	47885.09
529.218	47801.13
529.419	48382.75
529.62	47954.72
529.822	48343.84
530.023	48554.78
530.224	48448.28
530.425	48509.72
530.626	48126.75
530.828	48081.7
531.029	48843.54
531.23	48452.38
531.431	48571.16
531.632	48679.71
531.833	49058.58
532.035	48612.12
532.236	48808.73
532.437	49089.3
532.638	48757.53
532.839	48958.23
533.04	49040.15
533.241	48567.07
533.442	49627.91
533.643	49203.99
533.844	49007.38
534.045	49259.28
534.246	49068.82
534.447	49638.15
534.648	49191.7
534.849	49005.33
535.05	48870.17
535.251	49259.28
535.451	49017.62
535.652	49060.63
535.853	49464.08
536.054	49193.75
536.255	49339.15
536.456	48980.76
536.657	50115.33
536.857	49290
537.058	49326.86
537.259	49384.21
537.46	49378.06
537.66	49148.69
537.861	49339.15
538.062	49310.48
538.263	49203.99
538.463	48900.89
538.664	49318.67
538.865	49042.2
539.065	49529.61
539.266	48882.45
539.466	49654.54
539.667	48720.66
539.868	49621.77
540.068	49287.95
540.269	49105.68
540.469	49589
540.67	48956.18
540.87	49122.07
541.071	49095.44
541.271	49644.3
541.472	48849.69
541.672	48950.04
541.873	48851.73
542.073	48407.33
542.274	49357.58
542.474	49138.45
542.675	48683.8
542.875	49234.7
543.075	49185.55
543.276	48354.08
543.476	49228.56
543.676	49195.79
543.877	49029.91
544.077	49044.24
544.277	48730.9
544.478	48943.89
544.678	49025.81
544.878	48833.3
545.078	48939.8
545.279	48499.48
545.479	48431.9
545.679	49181.46
545.879	48718.62
546.079	48917.27
546.28	48675.61
546.48	48603.93
546.68	48933.65
546.88	48579.35
547.08	48552.73
547.28	48636.7
547.48	48468.76
547.68	48372.51
547.88	48169.76
548.081	48757.53
548.281	48464.67
548.481	48423.71
548.681	48857.88
548.881	48835.35
549.081	48821.02
549.28	48530.2
549.48	48947.99
549.68	48640.79
549.88	49314.58
550.08	48423.71
550.28	48513.82
550.48	48395.04
550.68	48974.61
550.88	48489.24
551.08	48362.27
551.279	48511.77
551.479	48309.02
551.679	48366.37
551.879	48392.99
552.079	48292.64
552.278	48560.92
552.478	48243.49
552.678	48364.32
552.878	48655.13
553.077	48278.3
553.277	47891.24
553.477	48640.79
553.676	48370.46
553.876	48558.88
554.076	48399.13
554.275	48071.46
554.475	47854.37
554.674	48349.98
554.874	48284.45
555.074	48038.69
555.273	48280.35
555.473	48571.16
555.672	48216.86
555.872	48165.67
556.071	48139.04
556.271	48321.31
556.47	47727.4
556.67	47596.33
556.869	47731.5
557.068	48055.07
557.268	47653.67
557.467	47858.47
557.667	47645.48
557.866	47674.15
558.065	47784.74
558.265	47049.52
558.464	47268.65
558.663	48071.46
558.863	47303.47
559.062	47803.17
559.261	46881.59
559.461	47612.71
559.66	46971.7
559.859	47094.58
560.058	46666.55
560.258	47385.39
560.457	46736.18
560.656	47481.64
560.855	47164.21
561.054	47192.88
561.253	46629.69
561.453	46885.68
561.652	46928.69
561.851	47002.42
562.05	46779.19
562.249	46297.92
562.448	47170.35
562.647	46558.01
562.846	46361.4
563.045	46680.89
563.244	45992.77
563.443	46803.77
563.642	45663.05
563.841	46326.59
564.04	45734.73
564.239	46340.92
564.438	45810.5
564.637	46412.6
564.836	46250.81
565.035	45804.36
565.234	46046.02
565.432	45364.04
565.631	45574.98
565.83	45990.72
566.029	45679.43
566.228	45568.84
566.427	45323.08
566.625	45456.2
566.824	44901.2
567.023	45261.65
567.222	45009.75
567.42	45273.93
567.619	45407.05
567.818	45005.65
568.016	44763.99
568.215	45407.05
568.414	44991.31
568.612	45120.34
568.811	44753.75
569.01	44286.81
569.208	44106.59
569.407	45208.4
569.605	44184.41
569.804	44659.54
570.002	43832.16
570.201	44307.29
570.4	44006.24
570.598	44579.67
570.797	43600.74
570.995	43852.64
571.193	43254.64
571.392	44116.83
571.59	43490.15
571.789	43537.26
571.987	43447.15
572.186	43670.37
572.384	43385.71
572.582	43844.45
572.781	43049.84
572.979	43109.23
573.177	43127.66
573.376	43017.07
573.574	42562.42
573.772	43459.43
573.971	42404.73
574.169	42767.22
574.367	42441.59
574.565	42623.86
574.763	42498.94
574.962	42339.19
575.16	41911.17
575.358	42410.87
575.556	41610.12
575.754	42142.59
575.952	41792.39
576.151	42410.87
576.349	42064.77
576.547	41509.77
576.745	41487.24
576.943	41722.76
577.141	41370.5
577.339	41362.31
577.537	41472.9
577.735	41563.01
577.933	40737.68
578.131	41421.7
578.329	41071.5
578.527	40872.85
578.725	40663.96
578.923	40934.29
579.121	40436.63
579.319	40962.96
579.516	40858.51
579.714	40913.81
579.912	39912.35
580.11	40506.26
580.308	40534.93
580.506	40375.19
580.704	39701.41
580.901	40039.33
581.099	40330.14
581.297	39543.72
581.495	39369.64
581.692	39873.44
581.89	39396.26
582.088	39908.26
582.285	39521.19
582.483	39670.69
582.681	39168.94
582.878	39541.67
583.076	38988.72
583.274	39091.12
583.471	38560.69
583.669	38749.1
583.866	38280.12
584.064	39078.83
584.262	38734.77
584.459	38876.08
584.657	38368.18
584.854	38794.16
585.052	37667.78
585.249	38484.92
585.447	38022.08
585.644	38081.47
585.841	37891.01
586.039	38153.15
586.236	37254.09
586.434	37157.83
586.631	37706.69
586.828	37753.79
587.026	37198.79
587.223	37303.24
587.42	37188.55
587.618	37438.4
587.815	36828.11
588.012	36756.43
588.21	36989.9
588.407	37145.55
588.604	36430.8
588.801	36344.79
588.999	36363.22
589.196	36279.25
589.393	36422.61
589.59	36176.86
589.787	36277.21
589.984	36004.83
590.182	35773.41
590.379	35914.72
590.576	35433.44
590.773	35695.58
590.97	35376.1
591.167	35478.5
591.364	35197.93
591.561	35378.15
591.758	34931.69
591.955	35290.09
592.152	35183.59
592.349	35060.71
592.546	34931.69
592.743	34722.8
592.94	34292.72
593.137	34677.74
593.334	34620.4
593.531	33924.09
593.727	34567.15
593.924	34647.02
594.121	33772.54
594.318	33999.87
594.515	33565.7
594.712	33999.87
594.908	33774.59
595.105	33821.69
595.302	33434.63
595.499	33768.44
595.696	33584.13
595.892	33254.4
596.089	33336.32
596.286	33119.24
596.482	32926.73
596.679	32990.22
596.876	33158.15
597.072	32728.08
597.269	32934.92
597.466	32766.99
597.662	32713.74
597.859	32547.86
598.055	32779.28
598.252	32338.96
598.448	32039.96
598.645	32064.53
598.841	32228.37
599.038	32056.34
599.234	32220.18
599.431	31491.1
599.627	31063.08
599.824	31943.7
600.02	31241.25
600.217	31448.1
600.413	31339.55
600.609	31083.56
600.806	31038.5
601.002	31376.42
601.198	31212.58
601.395	30749.74
601.591	30653.48
601.787	30917.67
601.984	30602.29
602.18	30821.42
602.376	30520.37
602.572	30245.94
602.769	30518.32
602.965	30045.24
603.161	30135.35
603.357	29822.01
603.553	29668.41
603.75	30004.28
603.946	29471.81
604.142	30057.53
604.338	29508.67
604.534	29506.62
604.73	29180.99
604.926	29316.16
605.122	29480
605.318	28996.68
605.514	29074.5
605.71	29072.45
605.906	28912.71
606.102	28750.92
606.298	29080.64
606.494	28824.65
606.69	28818.5
606.886	28662.86
607.082	28585.04
607.278	28888.14
607.474	28054.61
607.67	28208.21
607.866	28128.34
608.062	28535.88
608.257	28261.46
608.453	28341.33
608.649	28216.4
608.845	28173.39
609.041	28116.05
609.236	28068.95
609.432	28064.85
609.628	28073.04
609.824	28224.59
610.019	27784.28
610.215	28005.46
610.411	27571.29
610.606	27505.76
610.802	27812.95
610.998	27792.47
611.193	27450.46
611.389	27462.75
611.584	27321.44
611.78	27331.68
611.976	27446.37
612.171	27464.8
612.367	27343.97
612.562	27042.92
612.758	26661.99
612.953	26936.42
613.149	27343.97
613.344	27118.69
613.539	27262.05
613.735	26645.61
613.93	26727.53
614.126	26840.17
614.321	26887.27
614.517	26750.06
614.712	27010.15
614.907	26694.76
615.103	26522.73
615.298	26590.31
615.493	26549.35
615.688	26152.05
615.884	26602.6
616.079	26217.58
616.274	26582.12
616.47	26090.61
616.665	26365.04
616.86	26037.36
617.055	26240.11
617.25	26139.76
617.445	26203.25
617.641	25549.95
617.836	26025.07
618.031	25703.54
618.226	25955.44
618.421	25863.29
618.616	25801.85
618.811	25257.09
619.006	25953.4
619.201	25072.77
619.396	25369.72
619.591	24894.6
619.786	25517.18
619.981	24753.29
620.176	25025.67
620.371	24513.67
620.566	24935.56
620.761	24675.46
620.956	24355.98
621.151	24448.14
621.346	24505.48
621.541	24235.15
621.735	24419.47
621.93	23917.72
622.125	23796.88
622.32	23471.26
622.515	23409.82
622.709	23633.05
622.904	23624.86
623.099	23248.03
623.294	23413.91
623.488	23073.95
623.683	23082.14
623.878	22561.96
624.072	22805.67
624.267	22658.21
624.462	22402.22
624.656	22498.47
624.851	22152.37
625.046	22297.77
625.24	22250.67
625.435	22021.3
625.629	21765.3
625.824	21640.37
626.018	21660.85
626.213	21062.85
626.407	21433.53
626.602	21001.41
626.796	21144.77
626.991	21120.19
627.185	20804.8
627.38	20776.13
627.574	20679.88
627.768	20616.39
627.963	20034.77
628.157	20296.91
628.352	20458.7
628.546	20153.55
628.74	20196.56
628.935	20038.86
629.129	20069.58
629.323	19750.1
629.517	19698.9
629.712	19543.25
629.906	19530.97
630.1	19033.31
630.294	19303.64
630.489	19057.89
630.683	19258.59
630.877	18912.48
631.071	18844.9
631.265	18820.32
631.459	18687.2
631.653	18353.38
631.848	18543.85
632.042	18416.87
632.236	18500.84
632.43	18285.8
632.624	18236.65
632.818	18140.4
633.012	18013.42
633.206	17945.84
633.4	17984.75
633.594	17515.76
633.788	17390.84
633.982	17820.91
634.176	17339.64
634.369	17368.31
634.563	17263.86
634.757	17024.25
634.951	17145.08
635.145	17057.02
635.339	16995.58
635.533	16635.14
635.726	16659.71
635.92	16442.63
636.114	16807.17
636.308	16522.5
636.501	16375.05
636.695	16596.23
636.889	16297.22
637.083	16037.13
637.276	16252.17
637.47	15944.97
637.664	15979.79
637.857	15891.73
638.051	16008.46
638.244	15586.58
638.438	15684.88
638.632	15488.28
638.825	15353.11
639.019	15389.97
639.212	15363.35
639.406	15295.77
639.599	15138.07
639.793	15170.84
639.986	15146.26
640.18	14834.97
640.373	14939.42
640.567	14746.91
640.76	14644.51
640.954	14593.31
641.147	14490.91
641.34	14374.18
641.534	14351.65
641.727	14431.52
641.92	14468.39
642.114	14171.43
642.307	14103.85
642.5	13952.3
642.694	13843.76
642.887	13759.79
643.08	13985.07
643.273	13704.49
643.467	13446.45
643.66	13464.88
643.853	13538.61
644.046	13126.97
644.239	13337.91
644.432	13333.81
644.626	13167.93
644.819	13528.37
645.012	13229.37
645.205	13180.21
645.398	13215.03
645.591	12887.36
645.784	12973.37
645.977	12860.73
646.17	12893.5
646.363	12739.9
646.556	12602.69
646.749	12684.61
646.942	12469.57
647.135	12414.27
647.328	12539.2
647.521	12289.35
647.714	12229.96
647.907	12180.81
648.099	11990.35
648.292	12049.74
648.485	11746.64
648.678	11832.65
648.871	11752.78
649.064	11879.75
649.256	12055.88
649.449	11613.52
649.642	11566.42
649.835	11668.81
650.027	11365.71
650.22	11439.44
650.413	11556.18
650.605	11490.64
650.798	11263.32
650.991	11152.73
651.183	11347.28
651.376	11138.39
651.568	11103.57
651.761	11122.01
651.954	10970.46
652.146	10878.3
652.339	10978.65
652.531	10767.71
652.724	10610.01
652.916	10435.94
653.109	10532.19
653.301	10564.96
653.494	10548.58
653.686	10325.35
653.879	10544.48
654.071	10337.63
654.263	10364.26
654.456	10118.5
654.648	10184.04
654.84	10034.53
655.033	10106.21
655.225	9880.94
655.417	10003.82
655.61	9799.02
655.802	9942.38
655.994	9975.14
656.186	9739.63
656.379	9903.46
656.571	9733.48
656.763	9583.98
656.955	9495.92
657.148	9702.76
657.34	9581.93
657.532	9383.28
657.724	9461.1
657.916	9512.3
658.108	9211.25
658.3	9119.09
658.492	9327.99
658.684	9090.42
658.876	9164.15
659.068	9074.04
659.26	8930.68
659.452	8963.45
659.644	8863.1
659.836	9008.5
660.028	8920.44
660.22	8713.6
660.412	8781.18
660.604	8801.66
660.796	8789.37
660.988	8486.27
661.18	8512.89
661.372	8357.25
661.563	8426.88
661.755	8357.25
661.947	8400.26
662.139	8416.64
662.331	8453.5
662.522	8240.51
662.714	8170.88
662.906	8414.59
663.097	8213.89
663.289	7980.42
663.481	8109.44
663.673	8011.14
663.864	7843.21
664.056	7873.93
664.247	7849.35
664.439	7933.32
664.631	7783.82
664.822	7749
665.014	7781.77
665.205	7683.47
665.397	7452.05
665.588	7683.47
665.78	7519.63
665.971	7462.29
666.163	7691.66
666.354	7493.01
666.546	7329.17
666.737	7230.87
666.929	7384.46
667.12	7269.78
667.311	7347.6
667.503	7292.3
667.694	7257.49
667.885	7304.59
668.077	7114.13
668.268	7060.88
668.459	7181.71
668.651	7067.03
668.842	6978.97
669.033	6952.34
669.224	6915.48
669.416	7077.27
669.607	6868.38
669.798	6710.68
669.989	6927.77
670.18	6755.74
670.371	6626.71
670.563	6706.59
670.754	6481.31
670.945	6688.15
671.136	6684.06
671.327	6399.39
671.518	6473.12
671.709	6534.56
671.9	6682.01
672.091	6458.78
672.282	6442.4
672.473	6616.48
672.664	6415.77
672.855	6509.98
673.046	6483.36
673.237	6376.86
673.428	6421.92
673.619	6317.47
673.809	6215.07
674	6172.07
674.191	6206.88
674.382	6127.01
674.573	6290.85
674.764	6149.54
674.954	6059.43
675.145	5877.16
675.336	5885.35
675.527	6120.87
675.717	6147.49
675.908	6079.91
676.099	6088.1
676.289	5971.36
676.48	6053.28
676.671	5772.71
676.861	5856.68
677.052	5723.56
677.243	5844.39
677.433	5782.95
677.624	5791.14
677.814	5889.45
678.005	5887.4
678.195	5713.32
678.386	5694.89
678.576	5627.31
678.767	5565.87
678.957	5676.46
679.148	5584.3
679.338	5672.36
679.529	5717.42
679.719	5494.19
679.909	5512.62
680.1	5553.58
680.29	5490.09
680.481	5297.58
680.671	5434.8
680.861	5488.04
681.052	5512.62
681.242	5338.54
681.432	5359.02
681.622	5117.36
681.813	5264.82
682.003	5260.72
682.193	5467.56
682.383	5385.65
682.573	5330.35
682.764	5262.77
682.954	5213.62
683.144	5168.56
683.334	5164.47
683.524	5086.64
683.714	5275.06
683.904	5125.55
684.094	5098.93
684.284	5162.42
684.474	5109.17
684.664	5103.03
684.854	5080.5
685.044	5111.22
685.234	4822.45
685.424	4965.81
685.614	4994.48
685.804	4892.09
685.994	4910.52
686.184	5105.07
686.374	4904.37
686.564	4830.65
686.753	4887.99
686.943	4734.39
687.133	4730.3
687.323	4826.55
687.513	4740.54
687.702	4746.68
687.892	4703.67
688.082	4679.1
688.272	4791.73
688.461	4564.41
688.651	4687.29
688.841	4658.62
689.03	4611.51
689.22	4675
689.41	4378.05
689.599	4572.6
689.789	4507.07
689.979	4457.92
690.168	4453.82
690.358	4564.41
690.547	4367.81
690.737	4447.68
690.926	4406.72
691.116	4226.5
691.305	4273.6
691.495	4314.56
691.684	4341.18
691.874	4431.29
692.063	4302.27
692.252	4283.84
692.442	4206.02
692.631	4189.63
692.82	4226.5
693.01	4134.34
693.199	3968.45
693.388	4066.75
693.578	4001.22
693.767	4101.57
693.956	4054.47
694.146	3917.25
694.335	3950.02
694.524	4015.55
694.713	3876.29
694.902	3902.92
695.092	4007.36
695.281	3845.57
695.47	3876.29
695.659	3739.08
695.848	3818.95
696.037	3782.09
696.226	3759.56
696.415	3818.95
696.604	3751.37
696.793	3773.89
696.982	3722.7
697.171	3749.32
697.36	3790.28
697.549	3714.5
697.738	3743.17
697.927	3653.06
698.116	3712.46
698.305	3585.48
698.494	3683.78
698.683	3577.29
698.872	3732.94
699.061	3476.94
699.25	3661.26
699.438	3646.92
699.627	3552.71
699.816	3638.73
700.005	3554.76
700.193	3597.77
700.382	3655.11
700.571	3452.36
700.76	3575.24
700.948	3567.05
701.137	3605.96
701.326	3458.51
701.514	3532.23
701.703	3464.65
701.892	3503.56
702.08	3501.51
702.269	3507.66
702.457	3472.84
702.646	3524.04
702.834	3413.45
703.023	3497.42
703.212	3513.8
703.4	3485.13
703.589	3366.35
703.777	3382.73
703.965	3427.79
704.154	3323.34
704.342	3425.74
704.531	3397.07
704.719	3419.6
704.907	3442.12
705.096	3390.92
705.284	3415.5
705.472	3298.77
705.661	3343.82
705.849	3415.5
706.037	3294.67
706.226	3333.58
706.414	3325.39
706.602	3327.44
706.79	3433.93
706.979	3368.4
707.167	3423.69
707.355	3220.94
707.543	3266
707.731	3354.06
707.919	3231.18
708.107	3317.2
708.296	3161.55
708.484	3143.12
708.672	3167.7
708.86	3268.05
709.048	3329.49
709.236	3130.83
709.424	3122.64
709.612	3233.23
709.8	3270.09
709.988	3233.23
710.176	3309.01
710.364	3190.22
710.551	3167.7
710.739	3093.97
710.927	3175.89
711.115	3259.85
711.303	3220.94
711.491	3177.94
711.679	3118.54
711.866	3071.44
712.054	3214.8
712.242	3198.42
712.43	3216.85
712.617	3253.71
712.805	2964.95
712.993	3036.63
713.181	3085.78
713.368	3143.12
713.556	3128.78
713.744	2977.23
713.931	3198.42
714.119	3038.67
714.306	3165.65
714.494	3093.97
714.682	3169.74
714.869	3098.06
715.057	3053.01
715.244	3061.2
715.432	3198.42
715.619	3016.15
715.807	3048.91
715.994	3182.03
716.182	3106.26
716.369	3061.2
716.556	3182.03
716.744	3059.15
716.931	3192.27
717.119	2981.33
717.306	3118.54
717.493	3139.02
717.681	3020.24
717.868	3145.17
718.055	3071.44
718.242	3098.06
718.43	3102.16
718.617	2850.26
718.804	2995.67
718.991	3122.64
719.179	3134.93
719.366	3001.81
719.553	3071.44
719.74	3093.97
719.927	3032.53
720.114	2887.12
720.301	3050.96
720.488	3001.81
720.676	3026.39
720.863	2930.13
721.05	2987.47
721.237	2803.16
721.424	3014.1
721.611	3022.29
721.798	3083.73
721.985	2819.54
722.172	2983.38
722.358	3034.58
722.545	2874.84
722.732	3001.81
722.919	2860.5
723.106	2919.89
723.293	2934.23
723.48	3108.3
723.667	2946.52
723.853	2944.47
724.04	2860.5
724.227	2889.17
724.414	3001.81
724.6	2964.95
724.787	2981.33
724.974	2944.47
725.161	2903.51
725.347	2893.27
725.534	3042.77
725.72	3032.53
725.907	2940.37
726.094	3020.24
726.28	2880.98
726.467	2821.59
726.653	2844.12
726.84	2958.8
727.027	2905.56
727.213	2942.42
727.4	2844.12
727.586	2919.89
727.773	2926.04
727.959	2885.08
728.145	2860.5
728.332	2934.23
728.518	2872.79
728.705	2960.85
728.891	2891.22
729.077	2983.38
729.264	2954.71
729.45	2878.93
729.636	2962.9
729.823	2848.21
730.009	2958.8
730.195	2858.45
730.382	2864.6
730.568	2938.32
730.754	2840.02
730.94	2764.25
731.126	2905.56
731.313	2786.77
731.499	2852.31
731.685	2885.08
731.871	2840.02
732.057	2876.88
732.243	2911.7
732.429	2866.64
732.615	2825.68
732.801	2854.36
732.987	2874.84
733.173	2784.73
733.359	2751.96
733.545	2704.85
733.731	2805.21
733.917	2883.03
734.103	2809.3
734.289	2782.68
734.475	2700.76
734.661	2928.08
734.847	2770.39
735.033	2768.34
735.219	2805.21
735.404	2754.01
735.59	2739.67
735.776	2790.87
735.962	2678.23
736.148	2747.86
736.333	2866.64
736.519	2725.33
736.705	2751.96
736.89	2762.2
737.076	2774.49
737.262	2641.37
737.447	2735.57
737.633	2784.73
737.819	2690.52
738.004	2745.81
738.19	2633.18
738.375	2788.82
738.561	2643.42
738.747	2706.9
738.932	2655.7
739.118	2809.3
739.303	2690.52
739.489	2733.53
739.674	2780.63
739.859	2624.98
740.045	2647.51
740.23	2586.07
740.416	2692.57
740.601	2667.99
740.786	2602.46
740.972	2694.61
741.157	2657.75
741.342	2637.27
741.528	2645.46
741.713	2670.04
741.898	2672.09
742.084	2512.35
742.269	2526.68
742.454	2633.18
742.639	2502.11
742.824	2534.87
743.01	2563.54
743.195	2635.22
743.38	2461.15
743.565	2436.57
743.75	2473.43
743.935	2440.67
744.12	2424.28
744.305	2455
744.49	2407.9
744.675	2422.24
744.86	2448.86
745.045	2293.21
745.23	2287.07
745.415	2291.17
745.6	2270.69
745.785	2354.65
745.97	2418.14
746.155	2311.64
746.34	2194.91
746.525	2196.96
746.71	2344.41
746.895	2266.59
747.079	2242.01
747.264	2237.92
747.449	2248.16
747.634	2205.15
747.819	2205.15
748.003	2190.81
748.188	2160.1
748.373	2223.58
748.557	2215.39
748.742	2199.01
748.927	2127.33
749.111	2147.81
749.296	2168.29
749.481	2143.71
749.665	2069.98
749.85	1951.2
750.034	2115.04
750.219	2047.46
750.404	1977.83
750.588	1943.01
750.773	2018.79
750.957	1916.39
751.141	1959.39
751.326	1971.68
751.51	1930.72
751.695	1916.39
751.879	2022.88
752.064	1928.67
752.248	1998.31
752.432	1979.87
752.617	1908.19
752.801	1924.58
752.985	1902.05
753.17	1934.82
753.354	1955.3
753.538	1828.32
753.722	1799.65
753.907	1809.89
754.091	1816.04
754.275	1680.87
754.459	1660.39
754.643	1789.41
754.828	1727.97
755.012	1713.64
755.196	1652.2
755.38	1678.82
755.564	1705.45
755.748	1824.23
755.932	1758.69
756.116	1715.69
756.3	1693.16
756.484	1578.47
756.668	1674.73
756.852	1582.57
757.036	1662.44
757.22	1525.22
757.404	1631.72
757.588	1498.6
757.772	1461.74
757.956	1557.99
758.14	1506.79
758.323	1422.83
758.507	1594.86
758.691	1457.64
758.875	1500.65
759.059	1482.22
759.242	1537.51
759.426	1451.5
759.61	1443.31
759.794	1400.3
759.977	1500.65
760.161	1410.54
760.345	1517.03
760.528	1506.79
760.712	1353.2
760.895	1461.74
761.079	1461.74
761.263	1412.59
761.446	1332.72
761.63	1310.19
761.813	1365.48
761.997	1383.91
762.18	1295.85
762.364	1340.91
762.547	1369.58
762.731	1357.29
762.914	1263.08
763.098	1283.56
763.281	1224.17
763.464	1283.56
763.648	1310.19
763.831	1256.94
764.015	1283.56
764.198	1175.02
764.381	1334.76
764.564	1271.28
764.748	1175.02
764.931	1283.56
765.114	1226.22
765.297	1226.22
765.481	1222.13
765.664	1244.65
765.847	1144.3
766.03	1181.17
766.213	1213.93
766.397	1183.21
766.58	1256.94
766.763	1187.31
766.946	1170.93
767.129	1152.49
767.312	1207.79
767.495	1170.93
767.678	1164.78
767.861	1150.45
768.044	1123.82
768.227	1136.11
768.41	1175.02
768.593	1156.59
768.776	1105.39
768.959	1164.78
769.142	1093.1
769.324	1181.17
769.507	1197.55
769.69	1025.52
769.873	1144.3
770.056	1084.91
770.239	966.13
770.421	1115.63
770.604	1107.44
770.787	1074.67
770.97	1041.9
771.152	959.99
771.335	1121.77
771.518	1009.14
771.7	1031.66
771.883	1074.67
772.066	1050.1
772.248	1056.24
772.431	1074.67
772.613	1009.14
772.796	935.41
772.978	914.93
773.161	921.07
773.343	925.17
773.526	968.18
773.708	951.79
773.891	968.18
774.073	927.22
774.256	886.26
774.438	898.55
774.621	902.64
774.803	894.45
774.985	898.55
775.168	886.26
775.35	800.24
775.532	849.4
775.715	820.72
775.897	906.74
776.079	857.59
776.261	949.75
776.444	777.72
776.626	855.54
776.808	949.75
776.99	953.84
777.173	880.11
777.355	882.16
777.537	814.58
777.719	804.34
777.901	880.11
778.083	787.96
778.265	777.72
778.447	849.4
778.629	816.63
778.811	843.25
778.993	699.89
779.175	804.34
779.357	810.48
779.539	765.43
779.721	806.39
779.903	828.92
780.085	775.67
780.267	755.19
780.449	773.62
780.631	730.61
780.812	697.85
780.994	783.86
781.176	687.61
781.358	693.75
781.54	691.7
781.721	714.23
781.903	730.61
782.085	628.21
782.267	644.6
782.448	572.92
782.63	654.84
782.812	603.64
782.993	546.3
783.175	689.65
783.357	679.41
783.538	648.69
783.72	685.56
783.901	708.09
784.083	652.79
784.264	624.12
784.446	632.31
784.627	534.01
784.809	626.17
784.99	486.9
785.172	581.11
785.353	540.15
785.535	587.26
785.716	593.4
785.897	622.07
786.079	546.3
786.26	589.3
786.441	595.45
786.623	519.67
786.804	501.24
786.985	566.78
787.167	558.58
787.348	572.92
787.529	523.77
787.71	597.49
787.891	546.3
788.073	499.19
788.254	486.9
788.435	417.27
788.616	484.86
788.797	482.81
788.978	468.47
789.159	503.29
789.34	427.51
789.522	407.03
789.703	478.71
789.884	450.04
790.065	491
790.246	474.62
790.427	435.71
790.607	495.1
790.788	534.01
790.969	515.58
791.15	486.9
791.331	454.14
791.512	372.22
791.693	462.33
791.874	437.75
792.054	474.62
792.235	478.71
792.416	409.08
792.597	462.33
792.778	445.95
792.958	460.28
793.139	429.56
793.32	450.04
793.5	374.27
793.681	407.03
793.862	392.7
794.042	368.12
794.223	349.69
794.404	409.08
794.584	398.84
794.765	380.41
794.945	382.46
795.126	402.94
795.306	361.98
795.487	294.4
795.667	409.08
795.848	343.55
796.028	376.31
796.209	400.89
796.389	447.99
796.57	384.51
796.75	372.22
796.93	460.28
797.111	331.26
797.291	331.26
797.471	421.37
797.652	374.27
797.832	300.54
798.012	347.64
798.192	284.16
798.373	230.91
798.553	298.49
798.733	275.96
798.913	306.68
799.093	355.83
799.274	259.58
799.454	443.9
799.634	333.31
799.814	368.12
799.994	318.97
800.174	343.55
800.354	282.11
800.534	271.87
800.714	308.73
800.894	390.65
801.074	296.44
801.254	337.4
801.434	364.03
801.614	286.2
801.794	253.44
801.974	697.85
802.154	286.2
802.334	347.64
802.514	292.35
802.693	308.73
802.873	269.82
803.053	235
803.233	290.3
803.413	232.96
803.592	292.35
803.772	222.72
803.952	331.26
804.131	245.24
804.311	318.97
804.491	271.87
804.67	181.76
804.85	271.87
805.03	261.63
805.209	298.49
805.389	312.83
805.568	300.54
805.748	261.63
805.928	267.77
806.107	220.67
806.287	321.02
806.466	327.16
806.646	263.68
806.825	228.86
807.004	273.92
807.184	318.97
807.363	237.05
807.543	278.01
807.722	269.82
807.901	243.2
808.081	318.97
808.26	253.44
808.439	251.39
808.619	235
808.798	243.2
808.977	198.14
809.156	198.14
809.336	318.97
809.515	192
809.694	173.57
809.873	167.42
810.052	177.66
810.231	265.72
810.411	167.42
810.59	222.72
810.769	261.63
810.948	194.05
811.127	220.67
811.306	216.57
811.485	226.81
811.664	239.1
811.843	192
812.022	175.61
812.201	136.7
812.38	189.95
812.559	210.43
812.737	171.52
812.916	157.18
813.095	189.95
813.274	159.23
813.453	181.76
813.632	159.23
813.811	206.33
813.989	241.15
814.168	192
814.347	122.37
814.526	112.13
814.704	214.52
814.883	177.66
815.062	212.48
815.24	171.52
815.419	206.33
815.598	159.23
815.776	93.69
815.955	132.61
816.133	122.37
816.312	167.42
816.49	192
816.669	163.33
816.847	159.23
817.026	163.33
817.204	181.76
817.383	136.7
817.561	134.65
817.74	204.28
817.918	189.95
818.097	198.14
818.275	103.93
818.453	159.23
818.632	251.39
818.81	218.62
818.988	200.19
819.167	108.03
819.345	153.09
819.523	120.32
819.701	110.08
819.879	161.28
820.058	151.04
820.236	134.65
820.414	118.27
820.592	132.61
820.77	157.18
820.948	163.33
821.127	183.81
821.305	230.91
821.483	134.65
821.661	232.96
821.839	120.32
822.017	208.38
822.195	138.75
822.373	138.75
822.551	200.19
822.729	175.61
822.907	101.89
823.085	169.47
823.262	116.22
823.44	146.94
823.618	198.14
823.796	148.99
823.974	142.85
824.152	161.28
824.329	126.46
824.507	116.22
824.685	177.66
824.863	120.32
825.04	206.33
825.218	124.41
825.396	136.7
825.574	151.04
825.751	116.22
825.929	116.22
826.107	128.51
826.284	167.42
826.462	124.41
826.639	110.08
826.817	132.61
826.994	138.75
827.172	83.45
827.349	167.42
827.527	116.22
827.704	140.8
827.882	157.18
828.059	130.56
828.237	85.5
828.414	79.36
828.591	28.16
828.769	108.03
828.946	134.65
829.124	167.42
829.301	108.03
829.478	146.94
829.655	116.22
829.833	79.36
830.01	79.36
830.187	108.03
830.364	108.03
830.542	103.93
830.719	138.75
830.896	136.7
831.073	69.12
831.25	220.67
831.427	73.21
831.604	69.12
831.782	105.98
831.959	124.41
832.136	71.17
832.313	60.93
832.49	126.46
832.667	167.42
832.844	118.27
833.021	103.93
833.198	105.98
833.374	24.06
833.551	185.85
833.728	105.98
833.905	124.41
834.082	48.64
834.259	36.35
834.436	144.89
834.612	161.28
834.789	128.51
834.966	95.74
835.143	114.17
835.319	11.78
835.496	159.23
835.673	91.65
835.85	136.7
836.026	134.65
836.203	110.08
836.38	105.98
836.556	81.41
836.733	97.79
836.909	40.45
837.086	103.93
837.262	89.6
837.439	58.88
837.616	-0.51
837.792	89.6
837.968	58.88
838.145	1.54
838.321	75.26
838.498	65.02
838.674	136.7
838.851	132.61
839.027	54.78
839.203	85.5
839.38	87.55
839.556	132.61
839.732	58.88
839.909	75.26
840.085	124.41
840.261	5.63
840.437	89.6
840.614	38.4
840.79	62.98
840.966	108.03
841.142	75.26
841.318	130.56
841.494	179.71
841.671	85.5
841.847	52.74
842.023	73.21
842.199	56.83
842.375	114.17
842.551	73.21
842.727	103.93
842.903	69.12
843.079	36.35
843.255	44.54
843.431	34.3
843.607	22.02
843.783	-2.56
843.959	60.93
844.134	34.3
844.31	75.26
844.486	81.41
844.662	26.11
844.838	44.54
845.013	26.11
845.189	52.74
845.365	71.17
845.541	56.83
845.716	89.6
845.892	34.3
846.068	40.45
846.244	44.54
846.419	138.75
846.595	54.78
846.77	71.17
846.946	54.78
847.122	97.79
847.297	81.41
847.473	112.13
847.648	91.65
847.824	58.88
847.999	24.06
848.175	24.06
848.35	93.69
848.526	60.93
848.701	85.5
848.876	-20.99
849.052	93.69
849.227	44.54
849.403	1.54
849.578	-2.56
849.753	60.93
849.929	73.21
850.104	87.55
850.279	48.64
850.454	19.97
850.63	-39.42
850.805	85.5
850.98	93.69
851.155	52.74
851.33	122.37
851.505	34.3
851.681	54.78
851.856	65.02
852.031	62.98
852.206	97.79
852.381	71.17
852.556	95.74
852.731	11.78
852.906	52.74
853.081	17.92
853.256	138.75
853.431	44.54
853.606	-10.75
853.781	26.11
853.956	-16.9
854.131	93.69
854.305	91.65
854.48	-53.76
854.655	52.74
854.83	38.4
855.005	7.68
855.18	34.3
855.354	44.54
855.529	19.97
855.704	56.83
855.879	46.59
856.053	-20.99
856.228	93.69
856.403	1.54
856.577	-4.61
856.752	58.88
856.926	11.78
857.101	22.02
857.276	11.78
857.45	30.21
857.625	26.11
857.799	52.74
857.974	46.59
858.148	62.98
858.323	62.98
858.497	24.06
858.672	67.07
858.846	34.3
859.02	130.56
859.195	38.4
859.369	58.88
859.543	24.06
859.718	9.73
859.892	9.73
860.066	83.45
860.241	30.21
860.415	75.26
860.589	11.78
860.763	65.02
860.938	19.97
861.112	79.36
861.286	52.74
861.46	62.98
861.634	40.45
861.808	65.02
861.982	11.78
862.157	44.54
862.331	46.59
862.505	54.78
862.679	22.02
862.853	79.36
863.027	30.21
863.201	50.69
863.375	26.11
863.549	-18.94
863.722	5.63
863.896	36.35
864.07	28.16
864.244	50.69
864.418	19.97
864.592	30.21
864.766	30.21
864.939	36.35
865.113	67.07
865.287	65.02
865.461	73.21
865.634	36.35
865.808	9.73
865.982	52.74
866.156	13.82
866.329	22.02
866.503	54.78
866.676	34.3
866.85	99.84
867.024	-6.66
867.197	-6.66
867.371	9.73
867.544	26.11
867.718	56.83
867.891	67.07
868.065	58.88
868.238	-2.56
868.412	58.88
868.585	1.54
868.759	-59.9
868.932	52.74
869.105	3.58
869.279	122.37
869.452	48.64
869.625	44.54
869.799	65.02
869.972	77.31
870.145	26.11
870.319	-25.09
870.492	-0.51
870.665	62.98
870.838	-29.18
871.011	3.58
871.185	52.74
871.358	71.17
871.531	54.78
871.704	38.4
871.877	40.45
872.05	-6.66
872.223	36.35
872.396	19.97
872.569	93.69
872.742	130.56
872.915	-0.51
873.088	-18.94
873.261	32.26
873.434	22.02
873.607	56.83
873.78	-16.9
873.953	-12.8
874.126	26.11
874.299	85.5
874.471	-10.75
874.644	-90.62
874.817	28.16
874.99	50.69
875.163	38.4
875.335	38.4
875.508	5.63
875.681	73.21
875.853	44.54
876.026	56.83
876.199	-25.09
876.371	73.21
876.544	-29.18
876.717	52.74
876.889	32.26
877.062	38.4
877.234	101.89
877.407	32.26
877.579	75.26
877.752	9.73
877.924	58.88
878.097	17.92
878.269	65.02
878.442	34.3
878.614	71.17
878.786	22.02
878.959	7.68
879.131	22.02
879.303	-45.57
879.476	5.63
879.648	15.87
879.82	50.69
879.993	38.4
880.165	26.11
880.337	36.35
880.509	34.3
880.681	-27.14
880.854	-10.75
881.026	7.68
881.198	3.58
881.37	19.97
881.542	-35.33
881.714	62.98
881.886	73.21
882.058	50.69
882.23	110.08
882.402	-29.18
882.574	19.97
882.746	13.82
882.918	7.68
883.09	-12.8
883.262	36.35
883.434	28.16
883.606	-8.7
883.778	17.92
883.95	79.36
884.122	-37.38
884.293	108.03
884.465	-14.85
884.637	34.3
884.809	28.16
884.98	46.59
885.152	-23.04
885.324	81.41
885.496	13.82
885.667	-29.18
885.839	19.97
886.011	48.64
886.182	-41.47
886.354	17.92
886.525	7.68
886.697	52.74
886.869	54.78
887.04	7.68
887.212	67.07
887.383	46.59
887.555	89.6
887.726	56.83
887.897	13.82
888.069	99.84
888.24	11.78
888.412	34.3
888.583	-4.61
888.754	17.92
888.926	-27.14
889.097	-23.04
889.268	-14.85
889.44	13.82
889.611	1.54
889.782	85.5
889.953	-18.94
890.125	44.54
890.296	40.45
890.467	81.41
890.638	30.21
890.809	44.54
890.98	26.11
891.151	65.02
891.323	73.21
891.494	-39.42
891.665	32.26
891.836	60.93
892.007	46.59
892.178	32.26
892.349	73.21
892.52	-25.09
892.691	77.31
892.862	-27.14
893.032	-31.23
893.203	44.54
893.374	-2.56
893.545	3.58
893.716	46.59
893.887	52.74
894.057	30.21
894.228	13.82
894.399	-37.38
894.57	67.07
894.74	-18.94
894.911	-0.51
895.082	19.97
895.253	73.21
895.423	9.73
895.594	32.26
895.764	50.69
895.935	73.21
896.106	36.35
896.276	-31.23
896.447	-8.7
896.617	-4.61
896.788	28.16
896.958	-6.66
897.129	-16.9
897.299	28.16
897.47	77.31
897.64	48.64
897.81	24.06
897.981	36.35
898.151	11.78
898.322	24.06
898.492	-31.23
898.662	48.64
898.832	7.68
899.003	38.4
899.173	28.16
899.343	17.92
899.513	48.64
