Data from USB4F104151__32__12-27-17-534.txt Node

Date: Fri Mar 14 12:27:17 EDT 2025
User: louis
Spectrometer: USB4F10415
Trigger mode: 4
Integration Time (sec): 2.000000E-2
Scans to average: 1
Electric dark correction enabled: true
Nonlinearity correction enabled: false
Boxcar width: 0
XAxis mode: Wavelengths
Number of Pixels in Spectrum: 3648
>>>>>Begin Spectral Data<<<<<
178.204	-85.5
178.424	-85.5
178.644	-85.5
178.864	-99.84
179.084	-5.63
179.304	39.42
179.524	18.94
179.744	-19.97
179.964	0.51
180.184	-7.68
180.404	12.8
180.624	-11.78
180.844	8.7
181.064	-28.16
181.283	4.61
181.503	-28.16
181.723	10.75
181.943	-54.78
182.163	-13.82
182.383	35.33
182.602	59.9
182.822	29.18
183.042	49.66
183.262	47.62
183.482	45.57
183.701	-22.02
183.921	-9.73
184.141	-52.74
184.361	64
184.58	6.66
184.8	0.51
185.02	-36.35
185.239	18.94
185.459	23.04
185.679	-44.54
185.898	-5.63
186.118	61.95
186.338	-5.63
186.557	6.66
186.777	88.57
186.997	16.9
187.216	25.09
187.436	-3.58
187.655	45.57
187.875	49.66
188.095	43.52
188.314	27.14
188.534	20.99
188.753	27.14
188.973	-24.06
189.192	119.29
189.412	0.51
189.631	33.28
189.851	-34.3
190.07	37.38
190.29	37.38
190.509	-17.92
190.729	20.99
190.948	57.86
191.168	139.77
191.387	-9.73
191.607	-7.68
191.826	53.76
192.045	12.8
192.265	14.85
192.484	0.51
192.704	-54.78
192.923	-7.68
193.142	45.57
193.362	74.24
193.581	55.81
193.8	23.04
194.02	82.43
194.239	70.14
194.458	16.9
194.678	43.52
194.897	8.7
195.116	14.85
195.335	16.9
195.555	55.81
195.774	29.18
195.993	-34.3
196.212	-19.97
196.432	18.94
196.651	-9.73
196.87	53.76
197.089	10.75
197.308	25.09
197.528	80.38
197.747	-19.97
197.966	51.71
198.185	14.85
198.404	33.28
198.623	27.14
198.842	0.51
199.062	49.66
199.281	82.43
199.5	14.85
199.719	14.85
199.938	-46.59
200.157	61.95
200.376	6.66
200.595	-5.63
200.814	76.29
201.033	23.04
201.252	66.05
201.471	-9.73
201.69	25.09
201.909	51.71
202.128	14.85
202.347	-30.21
202.566	23.04
202.785	-50.69
203.004	6.66
203.223	53.76
203.442	6.66
203.661	-7.68
203.879	78.33
204.098	33.28
204.317	-54.78
204.536	-22.02
204.755	29.18
204.974	18.94
205.193	0.51
205.411	45.57
205.63	33.28
205.849	37.38
206.068	29.18
206.287	45.57
206.505	-44.54
206.724	8.7
206.943	35.33
207.162	10.75
207.381	-26.11
207.599	107.01
207.818	16.9
208.037	35.33
208.255	-3.58
208.474	76.29
208.693	49.66
208.911	68.09
209.13	23.04
209.349	53.76
209.567	76.29
209.786	-65.02
210.005	25.09
210.223	29.18
210.442	-28.16
210.661	29.18
210.879	70.14
211.098	-17.92
211.316	10.75
211.535	64
211.753	-15.87
211.972	70.14
212.191	-1.54
212.409	70.14
212.628	23.04
212.846	-22.02
213.065	37.38
213.283	20.99
213.502	-1.54
213.72	20.99
213.938	27.14
214.157	61.95
214.375	51.71
214.594	25.09
214.812	43.52
215.031	0.51
215.249	8.7
215.467	41.47
215.686	-15.87
215.904	35.33
216.122	8.7
216.341	-42.5
216.559	-38.4
216.778	27.14
216.996	2.56
217.214	-58.88
217.432	-40.45
217.651	51.71
217.869	27.14
218.087	39.42
218.306	-26.11
218.524	16.9
218.742	-32.26
218.96	-48.64
219.179	23.04
219.397	-11.78
219.615	49.66
219.833	61.95
220.051	-46.59
220.27	12.8
220.488	90.62
220.706	-32.26
220.924	70.14
221.142	39.42
221.36	-34.3
221.578	-9.73
221.796	41.47
222.015	2.56
222.233	16.9
222.451	2.56
222.669	43.52
222.887	-5.63
223.105	-38.4
223.323	-46.59
223.541	45.57
223.759	18.94
223.977	-19.97
224.195	27.14
224.413	37.38
224.631	123.39
224.849	20.99
225.067	53.76
225.285	-44.54
225.503	10.75
225.721	-11.78
225.939	12.8
226.157	-5.63
226.375	80.38
226.592	-71.17
226.81	66.05
227.028	53.76
227.246	51.71
227.464	86.53
227.682	47.62
227.9	-7.68
228.117	45.57
228.335	43.52
228.553	41.47
228.771	47.62
228.989	-56.83
229.206	61.95
229.424	64
229.642	-7.68
229.86	10.75
230.077	68.09
230.295	78.33
230.513	25.09
230.731	2.56
230.948	27.14
231.166	66.05
231.384	16.9
231.601	12.8
231.819	57.86
232.037	51.71
232.254	-36.35
232.472	43.52
232.689	33.28
232.907	2.56
233.125	4.61
233.342	33.28
233.56	31.23
233.777	14.85
233.995	107.01
234.213	68.09
234.43	18.94
234.648	90.62
234.865	37.38
235.083	-11.78
235.3	47.62
235.518	-22.02
235.735	45.57
235.953	-1.54
236.17	45.57
236.388	4.61
236.605	14.85
236.822	45.57
237.04	68.09
237.257	37.38
237.475	53.76
237.692	23.04
237.909	10.75
238.127	-5.63
238.344	-50.69
238.562	64
238.779	10.75
238.996	66.05
239.214	-5.63
239.431	25.09
239.648	4.61
239.865	35.33
240.083	-9.73
240.3	-17.92
240.517	-40.45
240.735	25.09
240.952	18.94
241.169	70.14
241.386	6.66
241.603	-56.83
241.821	57.86
242.038	-28.16
242.255	2.56
242.472	-116.22
242.689	-11.78
242.907	49.66
243.124	-30.21
243.341	-71.17
243.558	-38.4
243.775	-42.5
243.992	2.56
244.209	76.29
244.426	86.53
244.643	76.29
244.86	-15.87
245.078	18.94
245.295	29.18
245.512	37.38
245.729	0.51
245.946	53.76
246.163	66.05
246.38	12.8
246.597	98.81
246.814	33.28
247.031	45.57
247.248	35.33
247.464	6.66
247.681	45.57
247.898	45.57
248.115	49.66
248.332	0.51
248.549	39.42
248.766	-3.58
248.983	74.24
249.2	68.09
249.417	12.8
249.633	-5.63
249.85	43.52
250.067	37.38
250.284	-3.58
250.501	35.33
250.717	70.14
250.934	-67.07
251.151	27.14
251.368	41.47
251.585	70.14
251.801	-134.65
252.018	-28.16
252.235	55.81
252.451	41.47
252.668	-42.5
252.885	49.66
253.102	57.86
253.318	6.66
253.535	61.95
253.752	2.56
253.968	31.23
254.185	16.9
254.401	8.7
254.618	16.9
254.835	-30.21
255.051	2.56
255.268	-15.87
255.484	-42.5
255.701	0.51
255.917	78.33
256.134	51.71
256.351	-36.35
256.567	27.14
256.784	66.05
257	31.23
257.217	-19.97
257.433	80.38
257.65	-3.58
257.866	96.77
258.082	-44.54
258.299	37.38
258.515	12.8
258.732	-11.78
258.948	-26.11
259.165	4.61
259.381	39.42
259.597	29.18
259.814	-3.58
260.03	-34.3
260.246	-44.54
260.463	-73.21
260.679	-11.78
260.895	41.47
261.112	45.57
261.328	2.56
261.544	94.72
261.761	43.52
261.977	86.53
262.193	-11.78
262.409	98.81
262.626	80.38
262.842	14.85
263.058	8.7
263.274	107.01
263.49	64
263.707	-52.74
263.923	12.8
264.139	10.75
264.355	29.18
264.571	53.76
264.787	31.23
265.004	61.95
265.22	8.7
265.436	80.38
265.652	-11.78
265.868	76.29
266.084	55.81
266.3	16.9
266.516	0.51
266.732	18.94
266.948	37.38
267.164	41.47
267.38	43.52
267.596	10.75
267.812	12.8
268.028	20.99
268.244	-22.02
268.46	-13.82
268.676	-9.73
268.892	-3.58
269.108	33.28
269.324	-22.02
269.54	35.33
269.756	31.23
269.972	35.33
270.188	88.57
270.403	-3.58
270.619	35.33
270.835	0.51
271.051	55.81
271.267	8.7
271.483	29.18
271.698	74.24
271.914	-75.26
272.13	12.8
272.346	68.09
272.562	16.9
272.777	92.67
272.993	4.61
273.209	6.66
273.425	20.99
273.64	-48.64
273.856	55.81
274.072	37.38
274.287	-30.21
274.503	57.86
274.719	29.18
274.934	25.09
275.15	20.99
275.366	49.66
275.581	76.29
275.797	61.95
276.012	-44.54
276.228	-3.58
276.444	14.85
276.659	84.48
276.875	29.18
277.09	-26.11
277.306	37.38
277.521	0.51
277.737	-42.5
277.952	39.42
278.168	12.8
278.383	18.94
278.599	-24.06
278.814	10.75
279.03	66.05
279.245	31.23
279.461	-26.11
279.676	25.09
279.892	-32.26
280.107	49.66
280.322	12.8
280.538	-77.31
280.753	31.23
280.969	29.18
281.184	41.47
281.399	25.09
281.615	23.04
281.83	33.28
282.045	35.33
282.26	41.47
282.476	-30.21
282.691	39.42
282.906	25.09
283.122	2.56
283.337	14.85
283.552	64
283.767	27.14
283.983	92.67
284.198	33.28
284.413	25.09
284.628	-28.16
284.843	-22.02
285.058	12.8
285.274	12.8
285.489	33.28
285.704	74.24
285.919	-81.41
286.134	45.57
286.349	-56.83
286.564	-11.78
286.779	82.43
286.995	59.9
287.21	-24.06
287.425	2.56
287.64	-58.88
287.855	16.9
288.07	39.42
288.285	-3.58
288.5	-5.63
288.715	39.42
288.93	-7.68
289.145	16.9
289.36	57.86
289.575	-7.68
289.79	25.09
290.004	55.81
290.219	12.8
290.434	-36.35
290.649	41.47
290.864	59.9
291.079	33.28
291.294	18.94
291.509	41.47
291.724	49.66
291.938	72.19
292.153	78.33
292.368	-28.16
292.583	33.28
292.798	102.91
293.012	104.96
293.227	12.8
293.442	68.09
293.657	41.47
293.871	25.09
294.086	-15.87
294.301	10.75
294.516	39.42
294.73	111.1
294.945	31.23
295.16	53.76
295.374	47.62
295.589	12.8
295.804	78.33
296.018	61.95
296.233	14.85
296.447	20.99
296.662	18.94
296.877	41.47
297.091	49.66
297.306	8.7
297.52	-52.74
297.735	-44.54
297.949	-5.63
298.164	78.33
298.378	4.61
298.593	0.51
298.807	43.52
299.022	20.99
299.236	18.94
299.451	41.47
299.665	143.87
299.88	-36.35
300.094	29.18
300.309	-1.54
300.523	37.38
300.737	23.04
300.952	0.51
301.166	104.96
301.381	35.33
301.595	20.99
301.809	55.81
302.024	43.52
302.238	16.9
302.452	57.86
302.667	41.47
302.881	14.85
303.095	18.94
303.309	92.67
303.524	33.28
303.738	66.05
303.952	25.09
304.166	10.75
304.381	-24.06
304.595	80.38
304.809	-30.21
305.023	37.38
305.237	27.14
305.452	119.29
305.666	78.33
305.88	76.29
306.094	107.01
306.308	49.66
306.522	-22.02
306.736	-11.78
306.95	-36.35
307.164	16.9
307.379	53.76
307.593	18.94
307.807	16.9
308.021	10.75
308.235	8.7
308.449	31.23
308.663	31.23
308.877	109.05
309.091	20.99
309.305	-3.58
309.519	10.75
309.733	109.05
309.947	14.85
310.161	-5.63
310.374	-28.16
310.588	51.71
310.802	80.38
311.016	18.94
311.23	-13.82
311.444	25.09
311.658	-24.06
311.872	-7.68
312.085	66.05
312.299	59.9
312.513	-46.59
312.727	123.39
312.941	39.42
313.154	33.28
313.368	25.09
313.582	37.38
313.796	20.99
314.009	-3.58
314.223	-24.06
314.437	-22.02
314.651	-1.54
314.864	-26.11
315.078	4.61
315.292	4.61
315.505	-7.68
315.719	-28.16
315.933	88.57
316.146	4.61
316.36	53.76
316.573	29.18
316.787	-34.3
317.001	78.33
317.214	61.95
317.428	0.51
317.641	86.53
317.855	109.05
318.068	-75.26
318.282	2.56
318.495	80.38
318.709	-19.97
318.922	-75.26
319.136	84.48
319.349	47.62
319.563	51.71
319.776	39.42
319.99	14.85
320.203	39.42
320.417	8.7
320.63	8.7
320.843	61.95
321.057	-28.16
321.27	33.28
321.483	102.91
321.697	86.53
321.91	-42.5
322.124	-13.82
322.337	14.85
322.55	55.81
322.763	39.42
322.977	6.66
323.19	70.14
323.403	39.42
323.617	14.85
323.83	61.95
324.043	39.42
324.256	-42.5
324.469	31.23
324.683	72.19
324.896	-36.35
325.109	23.04
325.322	-11.78
325.535	68.09
325.748	49.66
325.962	96.77
326.175	20.99
326.388	45.57
326.601	72.19
326.814	6.66
327.027	2.56
327.24	123.39
327.453	16.9
327.666	-15.87
327.879	86.53
328.092	18.94
328.305	43.52
328.518	84.48
328.731	20.99
328.944	59.9
329.157	-48.64
329.37	55.81
329.583	41.47
329.796	61.95
330.009	70.14
330.222	43.52
330.435	6.66
330.648	68.09
330.861	-28.16
331.073	92.67
331.286	31.23
331.499	12.8
331.712	-44.54
331.925	-15.87
332.138	78.33
332.35	43.52
332.563	2.56
332.776	-9.73
332.989	-19.97
333.202	25.09
333.414	-13.82
333.627	-9.73
333.84	14.85
334.053	6.66
334.265	37.38
334.478	23.04
334.691	66.05
334.903	14.85
335.116	29.18
335.329	49.66
335.541	27.14
335.754	35.33
335.966	39.42
336.179	57.86
336.392	-36.35
336.604	45.57
336.817	31.23
337.029	35.33
337.242	0.51
337.454	18.94
337.667	-58.88
337.88	-5.63
338.092	49.66
338.305	53.76
338.517	2.56
338.729	25.09
338.942	55.81
339.154	100.86
339.367	53.76
339.579	41.47
339.792	-1.54
340.004	12.8
340.217	88.57
340.429	64
340.641	-32.26
340.854	-15.87
341.066	12.8
341.278	98.81
341.491	154.11
341.703	20.99
341.915	-28.16
342.128	104.96
342.34	96.77
342.552	78.33
342.764	90.62
342.977	57.86
343.189	20.99
343.401	92.67
343.613	41.47
343.826	-7.68
344.038	-24.06
344.25	51.71
344.462	-15.87
344.674	41.47
344.886	0.51
345.099	72.19
345.311	23.04
345.523	12.8
345.735	-24.06
345.947	37.38
346.159	33.28
346.371	33.28
346.583	-1.54
346.795	66.05
347.007	76.29
347.219	10.75
347.431	-48.64
347.643	6.66
347.855	37.38
348.067	57.86
348.279	14.85
348.491	6.66
348.703	59.9
348.915	-22.02
349.127	10.75
349.339	41.47
349.551	18.94
349.763	23.04
349.975	18.94
350.187	2.56
350.399	94.72
350.61	53.76
350.822	-38.4
351.034	168.45
351.246	76.29
351.458	43.52
351.669	25.09
351.881	66.05
352.093	70.14
352.305	51.71
352.517	12.8
352.728	74.24
352.94	43.52
353.152	27.14
353.363	49.66
353.575	147.97
353.787	23.04
353.999	14.85
354.21	47.62
354.422	10.75
354.633	29.18
354.845	18.94
355.057	80.38
355.268	43.52
355.48	49.66
355.692	61.95
355.903	57.86
356.115	-17.92
356.326	33.28
356.538	20.99
356.749	41.47
356.961	66.05
357.172	125.44
357.384	59.9
357.595	68.09
357.807	35.33
358.018	88.57
358.23	107.01
358.441	107.01
358.653	0.51
358.864	57.86
359.075	-30.21
359.287	78.33
359.498	16.9
359.709	16.9
359.921	-22.02
360.132	47.62
360.344	49.66
360.555	0.51
360.766	59.9
360.977	-19.97
361.189	104.96
361.4	66.05
361.611	43.52
361.823	68.09
362.034	72.19
362.245	-46.59
362.456	37.38
362.667	25.09
362.879	12.8
363.09	45.57
363.301	43.52
363.512	43.52
363.723	37.38
363.935	72.19
364.146	39.42
364.357	14.85
364.568	-1.54
364.779	-69.12
364.99	43.52
365.201	-48.64
365.412	35.33
365.623	-9.73
365.834	74.24
366.045	41.47
366.256	-19.97
366.467	80.38
366.678	43.52
366.889	80.38
367.1	12.8
367.311	39.42
367.522	16.9
367.733	6.66
367.944	78.33
368.155	6.66
368.366	12.8
368.577	68.09
368.788	92.67
368.999	43.52
369.209	57.86
369.42	80.38
369.631	53.76
369.842	72.19
370.053	-9.73
370.264	102.91
370.474	33.28
370.685	23.04
370.896	12.8
371.107	55.81
371.317	35.33
371.528	49.66
371.739	-1.54
371.95	14.85
372.16	88.57
372.371	16.9
372.582	45.57
372.792	55.81
373.003	31.23
373.214	27.14
373.424	-5.63
373.635	-1.54
373.846	35.33
374.056	6.66
374.267	49.66
374.477	-1.54
374.688	23.04
374.898	64
375.109	4.61
375.319	41.47
375.53	-9.73
375.74	-1.54
375.951	70.14
376.161	0.51
376.372	123.39
376.582	68.09
376.793	55.81
377.003	-9.73
377.214	55.81
377.424	92.67
377.635	53.76
377.845	27.14
378.055	57.86
378.266	59.9
378.476	45.57
378.686	88.57
378.897	-13.82
379.107	45.57
379.317	-3.58
379.528	76.29
379.738	61.95
379.948	25.09
380.158	82.43
380.369	6.66
380.579	12.8
380.789	47.62
380.999	88.57
381.21	-3.58
381.42	-5.63
381.63	64
381.84	25.09
382.05	-13.82
382.261	78.33
382.471	43.52
382.681	100.86
382.891	74.24
383.101	84.48
383.311	59.9
383.521	74.24
383.731	47.62
383.941	139.77
384.151	90.62
384.361	98.81
384.571	41.47
384.781	90.62
384.991	72.19
385.201	31.23
385.411	82.43
385.621	51.71
385.831	-3.58
386.041	82.43
386.251	37.38
386.461	23.04
386.671	66.05
386.881	57.86
387.091	12.8
387.301	10.75
387.511	43.52
387.72	117.25
387.93	49.66
388.14	57.86
388.35	47.62
388.56	49.66
388.769	82.43
388.979	94.72
389.189	-7.68
389.399	39.42
389.609	37.38
389.818	49.66
390.028	18.94
390.238	55.81
390.447	-24.06
390.657	45.57
390.867	74.24
391.076	-13.82
391.286	49.66
391.496	84.48
391.705	25.09
391.915	45.57
392.125	107.01
392.334	4.61
392.544	53.76
392.753	53.76
392.963	-34.3
393.172	94.72
393.382	84.48
393.591	41.47
393.801	41.47
394.01	80.38
394.22	76.29
394.429	47.62
394.639	102.91
394.848	152.06
395.058	109.05
395.267	23.04
395.477	78.33
395.686	61.95
395.895	86.53
396.105	174.59
396.314	111.1
396.524	102.91
396.733	57.86
396.942	80.38
397.152	64
397.361	100.86
397.57	80.38
397.78	127.49
397.989	94.72
398.198	74.24
398.407	109.05
398.617	25.09
398.826	43.52
399.035	88.57
399.244	78.33
399.453	14.85
399.663	137.73
399.872	143.87
400.081	96.77
400.29	107.01
400.499	100.86
400.708	117.25
400.917	37.38
401.127	109.05
401.336	20.99
401.545	129.53
401.754	143.87
401.963	119.29
402.172	70.14
402.381	70.14
402.59	98.81
402.799	125.44
403.008	70.14
403.217	16.9
403.426	100.86
403.635	72.19
403.844	109.05
404.053	74.24
404.262	115.2
404.471	84.48
404.68	129.53
404.888	147.97
405.097	80.38
405.306	180.73
405.515	113.15
405.724	127.49
405.933	197.12
406.142	102.91
406.35	125.44
406.559	55.81
406.768	129.53
406.977	150.01
407.185	186.88
407.394	180.73
407.603	92.67
407.812	178.69
408.02	150.01
408.229	221.69
408.438	174.59
408.646	78.33
408.855	160.25
409.064	250.36
409.272	225.79
409.481	276.99
409.69	238.08
409.898	178.69
410.107	250.36
410.315	145.92
410.524	246.27
410.733	274.94
410.941	240.12
411.15	254.46
411.358	276.99
411.567	352.76
411.775	240.12
411.984	340.47
412.192	367.1
412.401	412.15
412.609	446.97
412.818	371.19
413.026	360.95
413.234	422.39
413.443	422.39
413.651	389.63
413.86	436.73
414.068	485.88
414.276	475.64
414.485	502.26
414.693	520.7
414.901	604.66
415.11	535.03
415.318	514.55
415.526	659.96
415.734	578.04
415.943	633.33
416.151	657.91
416.359	731.64
416.567	729.59
416.776	733.68
416.984	647.67
417.192	799.22
417.4	803.32
417.608	739.83
417.817	813.56
418.025	899.57
418.233	885.23
418.441	885.23
418.649	932.34
418.857	985.58
419.065	1165.81
419.273	1038.83
419.481	1077.74
419.689	1112.56
419.897	1124.85
420.105	1180.14
420.313	1229.29
420.521	1266.16
420.729	1296.88
420.937	1348.08
421.145	1343.98
421.353	1518.06
421.561	1491.43
421.769	1552.87
421.977	1591.78
422.185	1622.5
422.393	1696.23
422.601	1843.68
422.809	1796.58
423.017	1792.48
423.224	1855.97
423.432	1950.18
423.64	1968.61
423.848	2148.83
424.056	2058.72
424.263	2187.74
424.471	2243.04
424.679	2380.25
424.887	2277.85
425.094	2453.98
425.302	2499.03
425.51	2507.23
425.718	2689.49
425.925	2793.94
426.133	2785.75
426.341	3013.07
426.548	3011.03
426.756	3070.42
426.964	3187.15
427.171	3377.61
427.379	3385.8
427.586	3406.28
427.794	3541.45
428.001	3641.8
428.209	3666.38
428.417	3830.21
428.624	4147.65
428.832	4063.68
429.039	4016.58
429.247	4168.13
429.454	4524.47
429.662	4729.27
429.869	4272.57
430.076	4663.74
430.284	4614.59
430.491	4850.1
430.699	5173.68
430.906	5128.63
431.114	5196.21
431.321	5331.37
431.528	5484.97
431.736	5835.17
431.943	6119.84
432.15	5761.45
432.358	6009.25
432.565	6295.97
432.772	6289.82
432.979	6666.65
433.187	6875.54
433.394	6769.05
433.601	7274.9
433.808	7289.23
434.016	7225.75
434.223	7612.81
434.43	7979.4
434.637	7948.68
434.844	8288.64
435.052	8438.14
435.259	8540.54
435.466	8569.21
435.673	8458.62
435.88	9027.96
436.087	9345.39
436.294	9597.29
436.501	9191.8
436.708	9548.14
436.915	9726.32
437.122	10348.9
437.329	10180.96
437.537	10641.76
437.743	10748.25
437.95	10705.24
438.157	11176.28
438.364	11462.99
438.571	11448.66
438.778	11671.89
438.985	12499.27
439.192	12101.96
439.399	12554.56
439.606	12163.4
439.813	12958.01
440.02	13377.84
440.227	13439.28
440.433	13236.53
440.64	13687.09
440.847	13609.26
441.054	13951.28
441.261	15051.03
441.467	14653.73
441.674	15008.03
441.881	15538.45
442.088	15530.26
442.294	15366.42
442.501	15583.51
442.708	16337.16
442.914	16984.32
443.121	17688.82
443.328	17078.52
443.534	18102.51
443.741	17619.19
443.948	17586.42
444.154	18845.92
444.361	18936.03
444.568	18917.6
444.774	19032.29
444.981	19132.64
445.187	19648.72
445.394	20558.02
445.6	20242.64
445.807	22120.62
446.013	21403.83
446.22	21692.6
446.426	22671.53
446.633	22923.43
446.839	23269.53
447.046	22450.35
447.252	23797.91
447.459	23832.72
447.665	23558.3
447.871	24830.09
448.078	26024.05
448.284	24854.66
448.491	25405.56
448.697	26046.58
448.903	26966.12
449.11	26951.78
449.316	26433.64
449.522	26968.16
449.728	27670.62
449.935	27867.22
450.141	27773.02
450.347	28342.35
450.553	27654.23
450.76	28364.88
450.966	29085.76
451.172	28473.42
451.378	29558.84
451.584	28827.72
451.791	29497.41
451.997	29337.66
452.203	29771.83
452.409	29999.16
452.615	29747.26
452.821	28964.93
453.027	28457.04
453.233	29747.26
453.44	28840.01
453.646	29155.4
453.852	29401.15
454.058	29734.97
454.264	28411.98
454.47	29257.79
454.676	28694.6
454.882	29841.46
455.088	27310.18
455.294	27709.53
455.5	27918.42
455.705	28598.35
455.911	27160.67
456.117	26822.76
456.323	26278
456.529	24930.44
456.735	25770.1
456.941	25094.27
457.147	24885.38
457.352	24309.9
457.558	24078.48
457.764	23769.24
457.97	23537.82
458.176	22890.66
458.381	22904.99
458.587	21862.58
458.793	21930.16
458.999	21113.02
459.204	22323.37
459.41	21487.8
459.616	20340.94
459.821	20267.21
460.027	20070.61
460.233	19517.65
460.438	18686.18
460.644	19204.31
460.85	18043.12
461.055	17694.96
461.261	17719.54
461.466	16517.38
461.672	16091.4
461.878	17207.55
462.083	16025.87
462.289	15778.06
462.494	15536.4
462.7	14948.64
462.905	14405.92
463.111	14764.32
463.316	15008.03
463.522	14686.5
463.727	14801.18
463.932	14672.16
464.138	14627.1
464.343	14487.84
464.549	14033.19
464.754	14641.44
464.959	14543.14
465.165	14436.64
465.37	13605.17
465.575	13394.23
465.781	13576.5
465.986	14143.78
466.191	13662.51
466.397	13107.51
466.602	12636.48
466.807	13179.19
467.012	13025.59
467.218	12970.3
467.423	12923.19
467.628	12988.73
467.833	13531.44
468.038	13095.22
468.244	12591.42
468.449	13179.19
468.654	12581.18
468.859	12548.42
469.064	12454.21
469.269	11938.12
469.474	12050.76
469.679	12403.01
469.885	11954.51
470.09	11974.99
470.295	11999.56
470.5	11733.32
470.705	11864.39
470.91	11549.01
471.115	11620.69
471.32	11684.17
471.525	11690.32
471.73	11250
471.935	11411.79
472.139	11006.3
472.344	10955.1
472.549	10969.43
472.754	10996.06
472.959	10744.16
473.164	10305.89
473.369	10258.79
473.574	10596.7
473.778	10568.03
473.983	10477.92
474.188	10387.81
474.393	9941.35
474.598	9795.95
474.802	9961.83
475.007	9634.16
475.212	9931.11
475.417	9623.92
475.621	9486.7
475.826	9472.37
476.031	9417.07
476.235	9226.61
476.44	9261.43
476.645	9261.43
476.849	9163.12
477.054	8804.73
477.259	8634.75
477.463	8923.51
477.668	8685.95
477.872	8724.86
478.077	8657.28
478.282	8610.17
478.486	8405.38
478.691	8229.25
478.895	8364.42
479.1	8210.82
479.304	8120.71
479.509	7952.77
479.713	8106.37
479.918	7924.1
480.122	7809.42
480.326	8229.25
480.531	8067.46
480.735	7760.27
480.94	7854.47
481.144	8108.42
481.348	7686.54
481.553	7627.15
481.757	7713.16
481.961	7780.75
482.166	7946.63
482.37	7723.4
482.574	7432.59
482.778	7805.32
482.983	7735.69
483.187	7514.51
483.391	7573.9
483.595	7680.39
483.8	7526.8
484.004	7764.36
484.208	7713.16
484.412	7618.96
484.616	7664.01
484.821	7592.33
485.025	7772.55
485.229	7684.49
485.433	7606.67
485.637	7696.78
485.841	7602.57
486.045	7596.43
486.249	7489.93
486.453	7518.61
486.657	7569.8
486.861	7735.69
487.065	7496.08
487.269	7537.04
487.473	7496.08
487.677	7743.88
487.881	7811.46
488.085	7711.11
488.289	7833.99
488.493	7600.52
488.697	7872.9
488.901	7704.97
489.105	7469.45
489.309	7807.37
489.512	7784.84
489.716	7618.96
489.92	7676.3
490.124	7874.95
490.328	7893.38
490.531	7715.21
490.735	7848.33
490.939	7866.76
491.143	7844.23
491.346	7952.77
491.55	7981.45
491.754	8012.17
491.958	7942.53
492.161	8176
492.365	8145.28
492.569	8089.99
492.772	7989.64
492.976	8073.6
493.18	8157.57
493.383	8128.9
493.587	8274.31
493.79	8436.1
493.994	8411.52
494.197	8583.55
494.401	8446.34
494.605	8491.39
494.808	8509.82
495.012	8546.69
495.215	8690.04
495.419	8923.51
495.622	8774.01
495.825	8853.88
496.029	8999.29
496.232	9091.45
496.436	9138.55
496.639	9189.75
496.843	9312.63
497.046	9374.06
497.249	9326.96
497.453	9472.37
497.656	9419.12
497.859	9562.48
498.063	9681.26
498.266	10090.85
498.469	9828.71
498.673	10242.4
498.876	10185.06
499.079	10164.58
499.282	10434.91
499.485	10510.69
499.689	10592.61
499.892	10713.44
500.095	10760.54
500.298	10901.85
500.501	10877.27
500.705	11055.45
500.908	11202.9
501.111	11540.82
501.314	11207
501.517	11655.5
501.72	11616.59
501.923	11737.42
502.126	11821.39
502.329	12245.32
502.532	12288.32
502.735	12284.23
502.938	12628.29
503.141	12435.78
503.344	12751.17
503.547	13023.55
503.75	13070.65
503.953	13214.01
504.156	13445.43
504.359	13424.95
504.562	13465.91
504.765	13822.25
504.968	13836.59
505.17	14135.59
505.373	14000.43
505.576	14162.22
505.779	14678.3
505.982	14500.13
506.185	14993.69
506.387	14969.12
506.59	14977.31
506.793	15157.53
506.996	15214.87
507.198	15569.17
507.401	15470.87
507.604	15761.68
507.807	16187.66
508.009	16255.24
508.212	16400.65
508.415	16673.03
508.617	16576.77
508.82	16648.45
509.022	16752.9
509.225	17099
509.428	17295.61
509.63	17408.25
509.833	17467.64
510.035	17899.76
510.238	18041.07
510.44	18045.16
510.643	18200.81
510.845	18563.3
511.048	18327.78
511.25	18761.95
511.453	18880.74
511.655	19476.69
511.858	19302.62
512.06	19382.49
512.262	19740.88
512.465	19912.91
512.667	20117.71
512.87	20078.8
513.072	20322.51
513.274	20641.99
513.477	20820.16
513.679	20799.68
513.881	21184.7
514.084	21160.13
514.286	21135.55
514.488	21481.66
514.69	22067.38
514.893	21921.97
515.095	22110.38
515.297	22315.18
515.499	22239.4
515.701	22943.91
515.904	23003.3
516.106	23038.11
516.308	23218.33
516.51	23621.78
516.712	23550.1
516.914	23773.33
517.116	24203.41
517.318	24307.85
517.52	24283.28
517.722	24453.26
517.925	24948.87
518.127	25073.79
518.329	25385.08
518.531	25049.22
518.733	25852.02
518.935	25915.51
519.136	25718.9
519.338	26228.85
519.54	26300.53
519.742	26767.46
519.944	26710.12
520.146	26646.63
520.348	27482.2
520.55	27416.67
520.752	27600.99
520.954	28282.96
521.155	27633.75
521.357	28035.16
521.559	27990.1
521.761	28538.96
521.963	28379.21
522.164	28756.04
522.366	28674.12
522.568	29003.85
522.77	29073.48
522.971	29917.24
523.173	29581.37
523.375	29460.54
523.576	29952.05
523.778	30038.07
523.98	30171.19
524.181	30265.39
524.383	30337.07
524.584	30552.11
524.786	30703.66
524.988	30472.24
525.189	30986.28
525.391	31193.12
525.592	31066.15
525.794	31291.43
525.995	31365.15
526.197	31442.98
526.398	31729.69
526.6	31604.77
526.801	32036.89
527.003	31893.53
527.204	32008.22
527.406	32487.44
527.607	32311.31
527.808	32557.07
528.01	32182.29
528.211	32458.77
528.412	33216.52
528.614	33144.84
528.815	32653.33
529.016	33114.12
529.218	33116.17
529.419	33431.55
529.62	33124.36
529.822	32864.27
530.023	33103.88
530.224	33173.51
530.425	32944.14
530.626	32999.43
530.828	33085.45
531.029	33802.24
531.23	33419.27
531.431	33312.77
531.632	33630.21
531.833	33542.14
532.035	33966.07
532.236	33720.32
532.437	33785.85
532.638	33794.04
532.839	33935.35
533.04	33943.55
533.241	33679.36
533.442	34027.51
533.643	33830.91
533.844	34111.48
534.045	34097.14
534.246	33648.64
534.447	34066.42
534.648	33667.07
534.849	34011.13
535.05	33497.09
535.251	34119.67
535.451	33970.17
535.652	34095.1
535.853	33964.03
536.054	34154.49
536.255	34203.64
536.456	33701.89
536.657	34412.53
536.857	33896.44
537.058	33742.85
537.259	33732.61
537.46	34467.83
537.66	34013.18
537.861	33798.14
538.062	33949.69
538.263	33982.46
538.463	33781.76
538.664	33980.41
538.865	34326.52
539.065	34107.38
539.266	34025.46
539.466	34344.95
539.667	33640.45
539.868	33929.21
540.068	33798.14
540.269	34117.62
540.469	34281.46
540.67	33558.53
540.87	34099.19
541.071	34088.95
541.271	34174.97
541.472	33601.54
541.672	33601.54
541.873	33792
542.073	33830.91
542.274	34150.39
542.474	33968.12
542.675	33796.09
542.875	34072.57
543.075	33505.28
543.276	33650.69
543.476	34088.95
543.676	33820.67
543.877	34172.92
544.077	33751.04
544.277	33771.52
544.478	33699.84
544.678	33703.93
544.878	33843.2
545.078	33914.87
545.279	33816.57
545.479	33529.86
545.679	34068.47
545.879	33816.57
546.079	33673.21
546.28	33605.63
546.48	33327.11
546.68	33759.23
546.88	33824.76
547.08	34031.61
547.28	33435.65
547.48	33378.31
547.68	33566.72
547.88	33382.4
548.081	33744.89
548.281	33826.81
548.481	33583.1
548.681	33826.81
548.881	33794.04
549.081	33515.52
549.28	33974.27
549.48	33771.52
549.68	33789.95
549.88	33863.68
550.08	33552.38
550.28	33765.37
550.48	33460.23
550.68	33816.57
550.88	33425.41
551.08	33697.79
551.279	33480.71
551.479	33607.68
551.679	33849.34
551.879	33572.86
552.079	33521.66
552.278	33103.88
552.478	33566.72
552.678	33708.03
552.878	33683.45
553.077	33501.18
553.277	33042.44
553.477	33562.62
553.676	33269.76
553.876	33226.76
554.076	33366.02
554.275	33183.75
554.475	32911.37
554.674	33232.9
554.874	33298.44
555.074	33388.55
555.273	33632.25
555.473	33288.2
555.672	32798.73
555.872	33226.76
556.071	32968.71
556.271	33290.24
556.47	33118.21
556.67	32913.42
556.869	32942.09
557.068	33089.54
557.268	33200.13
557.467	33116.17
557.667	32874.51
557.866	32907.27
558.065	32589.84
558.265	32532.5
558.464	32808.97
558.663	32909.32
558.863	32520.21
559.062	32784.4
559.261	32647.18
559.461	33034.25
559.66	32393.23
559.859	32868.36
560.058	32528.4
560.258	32634.89
560.457	32606.22
560.656	32632.85
560.855	32401.43
561.054	32548.88
561.253	32083.99
561.453	32573.45
561.652	32331.79
561.851	32235.54
562.05	32292.88
562.249	31766.56
562.448	31991.83
562.647	32032.79
562.846	32024.6
563.045	32147.48
563.244	32065.56
563.443	32503.82
563.642	31770.65
563.841	31817.75
564.04	31936.54
564.239	32069.65
564.438	31612.96
564.637	31645.73
564.836	31887.39
565.035	31250.47
565.234	31465.5
565.432	31244.32
565.631	31352.87
565.83	31451.17
566.029	31254.56
566.228	31133.73
566.427	31397.92
566.625	30877.74
566.824	30830.63
567.023	31166.5
567.222	30670.89
567.42	31590.43
567.619	30967.85
567.818	30871.59
568.016	30709.8
568.215	31266.85
568.414	30855.21
568.612	30933.03
568.811	30283.83
569.01	30462
569.208	30175.28
569.407	30662.7
569.605	30294.07
569.804	30660.65
570.002	29993.01
570.201	30646.32
570.4	30238.77
570.598	30222.39
570.797	29962.29
570.995	30203.96
571.193	29659.2
571.392	30206
571.59	30128.18
571.789	30011.45
571.987	29796.41
572.186	29872.18
572.384	29614.14
572.582	29853.75
572.781	29698.11
572.979	29501.5
573.177	29438.01
573.376	29472.83
573.574	29063.24
573.772	29280.32
573.971	29200.45
574.169	29306.94
574.367	28815.43
574.565	29499.45
574.763	29235.27
574.962	29210.69
575.16	28846.15
575.358	29118.53
575.556	28586.06
575.754	28870.73
575.952	28600.4
576.151	28833.86
576.349	28504.14
576.547	28180.56
576.745	28676.17
576.943	28414.03
577.141	28217.43
577.339	28168.27
577.537	28045.4
577.735	28319.82
577.933	28065.88
578.131	28219.47
578.329	28293.2
578.527	27992.15
578.725	27809.88
578.923	27922.52
579.121	27781.21
579.319	27570.27
579.516	27891.8
579.714	27547.74
579.912	27762.78
580.11	27351.13
580.308	27582.56
580.506	27435.1
580.704	27045.99
580.901	26939.49
581.099	27443.29
581.297	27125.86
581.495	27121.76
581.692	27160.67
581.89	26886.25
582.088	27234.4
582.285	26658.92
582.483	26730.6
582.681	26634.35
582.878	26744.94
583.076	26392.69
583.274	26736.74
583.471	26153.07
583.669	26650.73
583.866	26376.3
584.064	26364.01
584.262	26048.63
584.459	26445.93
584.657	26040.43
584.854	26243.18
585.052	25997.43
585.249	26136.69
585.447	25911.41
585.644	25714.81
585.841	25747.58
586.039	26079.35
586.236	25702.52
586.434	26038.39
586.631	25469.05
586.828	25374.84
587.026	25567.35
587.223	25294.97
587.42	25362.56
587.618	25426.04
587.815	24828.04
588.012	25084.03
588.21	24901.76
588.407	24940.68
588.604	24776.84
588.801	24516.75
588.999	24969.35
589.196	24703.11
589.393	24535.18
589.59	24768.65
589.787	24397.96
589.984	24451.21
590.182	24309.9
590.379	24506.51
590.576	24383.63
590.773	24365.2
590.97	23898.26
591.167	24473.74
591.364	23820.44
591.561	24000.66
591.758	23896.21
591.955	23654.55
592.152	23865.49
592.349	23660.69
592.546	23689.37
592.743	23683.22
592.94	23310.49
593.137	23578.78
593.334	23617.69
593.531	22997.15
593.727	23537.82
593.924	23300.25
594.121	23316.64
594.318	23320.73
594.515	22612.13
594.712	23107.74
594.908	22927.52
595.105	22909.09
595.302	22886.56
595.499	22894.75
595.696	22681.77
595.892	22599.85
596.089	22558.89
596.286	22634.66
596.482	22671.53
596.679	22298.8
596.876	22599.85
597.072	22208.69
597.269	22134.96
597.466	21907.63
597.662	22079.66
597.859	21803.19
598.055	22065.33
598.252	21944.5
598.448	21776.56
598.645	21889.2
598.841	21450.94
599.038	21924.02
599.234	21498.04
599.431	21354.68
599.627	21489.85
599.824	21764.28
600.02	21483.7
600.217	21090.49
600.413	21174.46
600.609	21448.89
600.806	20713.67
601.002	21166.27
601.198	21004.48
601.395	20750.53
601.591	20904.13
601.787	21088.45
601.984	20728
602.18	21055.68
602.376	20619.46
602.572	20535.49
602.769	20590.79
602.965	20269.26
603.161	20416.71
603.357	20480.2
603.553	20512.97
603.75	20498.63
603.946	20132.04
604.142	20256.97
604.338	20089.04
604.534	19880.14
604.73	19882.19
604.926	20035.79
605.122	19812.56
605.318	19923.15
605.514	19833.04
605.71	19724.5
605.906	19599.57
606.102	19507.41
606.298	19611.86
606.494	19661.01
606.69	19708.12
606.886	19812.56
607.082	19253.47
607.278	19505.37
607.474	19349.72
607.67	19427.54
607.866	19103.96
608.062	19456.22
608.257	18993.37
608.453	19138.78
608.649	19187.93
608.845	18888.93
609.041	19020
609.236	19048.67
609.432	18940.13
609.628	18878.69
609.824	19308.76
610.019	19044.57
610.215	18845.92
610.411	18792.67
610.606	18546.92
610.802	18854.11
610.998	18518.25
611.193	18585.83
611.389	18458.85
611.584	18518.25
611.78	18684.13
611.976	18526.44
612.171	18553.06
612.367	18514.15
612.562	18424.04
612.758	18172.14
612.953	18243.82
613.149	18325.74
613.344	18438.37
613.539	18465
613.735	18192.62
613.93	18135.28
614.126	18014.45
614.321	18143.47
614.517	18211.05
614.712	18082.03
614.907	17969.39
615.103	18286.82
615.298	17889.52
615.493	18102.51
615.688	17920.24
615.884	18188.52
616.079	17977.58
616.274	18045.16
616.47	17768.69
616.665	17959.15
616.86	17621.24
617.055	17707.25
617.25	17510.64
617.445	17770.74
617.641	17115.39
617.836	17723.63
618.031	17293.56
618.226	17504.5
618.421	17424.63
618.616	17420.53
618.811	16986.36
619.006	17613.04
619.201	17072.38
619.396	17135.87
619.591	16941.31
619.786	17080.57
619.981	16738.56
620.176	16967.93
620.371	16677.12
620.566	16800
620.761	16523.52
620.956	16742.66
621.151	16593.15
621.346	16662.79
621.541	16247.05
621.735	16242.95
621.93	16019.72
622.125	16083.21
622.32	16066.83
622.515	16009.48
622.709	15980.81
622.904	15880.46
623.099	15810.83
623.294	15765.78
623.488	15665.42
623.683	15718.67
623.878	15243.54
624.072	15388.95
624.267	15429.91
624.462	15436.05
624.656	15026.46
624.851	15120.67
625.046	14958.88
625.24	15270.17
625.435	14645.54
625.629	14778.65
625.824	14709.02
626.018	14833.95
626.213	14567.71
626.407	14659.87
626.602	14274.85
626.796	14410.02
626.991	14192.94
627.185	13994.28
627.38	13992.23
627.574	14043.43
627.768	14106.92
627.963	13836.59
628.157	13971.75
628.352	13781.29
628.546	13420.85
628.74	13818.16
628.935	13572.4
629.129	13388.08
629.323	13224.25
629.517	13359.41
629.712	13164.86
629.906	13146.42
630.1	13066.55
630.294	13076.79
630.489	12953.91
630.683	12890.43
630.877	12763.45
631.071	12904.76
631.265	12689.73
631.459	12765.5
631.653	12550.46
631.848	12562.75
632.042	12353.86
632.236	12312.9
632.43	12104.01
632.624	12276.04
632.818	12329.28
633.012	12013.9
633.206	12089.67
633.4	12138.82
633.594	11903.31
633.788	11948.36
633.982	11874.63
634.176	11692.37
634.369	11725.13
634.563	11843.92
634.757	11762
634.951	11614.54
635.145	11512.14
635.339	11585.87
635.533	11303.25
635.726	11430.23
635.92	11366.74
636.114	11137.37
636.308	11241.81
636.501	11180.37
636.695	10953.05
636.889	11131.22
637.083	10996.06
637.276	10961.24
637.47	10910.04
637.664	10799.45
637.857	10625.37
638.051	10688.86
638.244	10367.33
638.438	10574.17
638.632	10600.8
638.825	10305.89
639.019	10494.3
639.212	10312.03
639.406	10254.69
639.599	10264.93
639.793	10187.11
639.986	10318.18
640.18	10156.39
640.373	10006.89
640.567	9802.09
640.76	10000.74
640.954	9810.28
641.147	9802.09
641.34	9775.47
641.534	9564.53
641.727	9632.11
641.92	9548.14
642.114	9699.69
642.307	9429.36
642.5	9513.33
642.694	9437.55
642.887	9443.7
643.08	9435.5
643.273	9222.52
643.467	9374.06
643.66	9105.78
643.853	9042.29
644.046	9185.65
644.239	9281.91
644.432	9202.04
644.626	9154.93
644.819	9218.42
645.012	8927.61
645.205	8913.27
645.398	8933.75
645.591	8862.07
645.784	8925.56
645.977	8647.04
646.17	8608.12
646.363	8477.05
646.556	8403.33
646.749	8601.98
646.942	8452.48
647.135	8440.19
647.328	8345.98
647.521	8429.95
647.714	8188.29
647.907	8176
648.099	8348.03
648.292	8130.95
648.485	8176
648.678	8196.48
648.871	8155.52
649.064	8003.97
649.256	7944.58
649.449	8012.17
649.642	7911.82
649.835	7727.5
650.027	7819.66
650.22	7864.71
650.413	7793.03
650.605	7629.2
650.798	7616.91
650.991	7457.17
651.183	7543.18
651.376	7606.67
651.568	7569.8
651.761	7405.97
651.954	7508.37
652.146	7555.47
652.339	7463.31
652.531	7281.04
652.724	7360.91
652.916	7182.74
653.109	7242.13
653.301	7086.48
653.494	7154.07
653.686	7074.2
653.879	6916.5
654.071	7006.61
654.263	7020.95
654.456	7174.55
654.648	7020.95
654.84	6883.73
655.033	6683.03
655.225	6793.62
655.417	6846.87
655.61	6742.43
655.802	6781.34
655.994	6541.72
656.186	6605.21
656.379	6605.21
656.571	6586.78
656.763	6373.79
656.955	6525.34
657.148	6570.4
657.34	6508.96
657.532	6271.39
657.724	6369.69
657.916	6455.71
658.108	6353.31
658.3	6058.4
658.492	6367.65
658.684	6150.56
658.876	6111.65
659.068	6212
659.26	6232.48
659.452	6173.09
659.644	6121.89
659.836	6082.98
660.028	6017.44
660.22	5876.13
660.412	5927.33
660.604	5829.03
660.796	5878.18
660.988	5816.74
661.18	5816.74
661.372	5808.55
661.563	5867.94
661.755	5714.34
661.947	5716.39
662.139	5695.91
662.331	5677.48
662.522	5724.58
662.714	5523.88
662.906	5585.32
663.097	5489.07
663.289	5382.57
663.481	5452.2
663.673	5509.55
663.864	5407.15
664.056	5636.52
664.247	5411.25
664.439	5255.6
664.631	5417.39
664.822	5278.13
665.014	5278.13
665.205	5190.06
665.397	5163.44
665.588	5427.63
665.78	5126.58
665.971	5298.61
666.163	5190.06
666.354	5120.43
666.546	5126.58
666.737	5179.82
666.929	5009.84
667.12	5020.08
667.311	4872.63
667.503	5018.04
667.694	4856.25
667.885	4934.07
668.077	4923.83
668.268	4686.26
668.459	4788.66
668.651	4770.23
668.842	4872.63
669.033	4719.03
669.224	4608.44
669.416	4784.57
669.607	4704.7
669.798	4710.84
669.989	4729.27
670.18	4770.23
670.371	4516.28
670.563	4637.11
670.754	4528.57
670.945	4454.84
671.136	4628.92
671.327	4387.26
671.518	4573.63
671.709	4409.79
671.9	4575.67
672.091	4389.31
672.282	4303.29
672.473	4434.36
672.664	4385.21
672.855	4430.27
673.046	4436.41
673.237	4428.22
673.428	4309.44
673.619	4256.19
673.809	4325.82
674	4346.3
674.191	4248
674.382	4276.67
674.573	4366.78
674.764	4207.04
674.954	4348.35
675.145	4231.62
675.336	4139.46
675.527	4268.48
675.717	4194.75
675.908	4166.08
676.099	3971.52
676.289	4088.26
676.48	4139.46
676.671	4028.87
676.861	4147.65
677.052	4073.92
677.243	3961.28
677.433	4018.63
677.624	4082.11
677.814	4016.58
678.005	3975.62
678.195	4098.5
678.386	3862.98
678.576	3908.04
678.767	3924.42
678.957	3887.56
679.148	3844.55
679.338	3869.12
679.529	3955.14
679.719	3971.52
679.909	3844.55
680.1	3799.49
680.29	3912.13
680.481	3774.92
680.671	3774.92
680.861	3803.59
681.052	3781.06
681.242	3750.34
681.432	3924.42
681.622	3832.26
681.813	3860.93
682.003	3697.1
682.193	3819.97
682.383	3885.51
682.573	3799.49
682.764	3684.81
682.954	3744.2
683.144	3740.1
683.334	3686.86
683.524	3666.38
683.714	3604.94
683.904	3674.57
684.094	3604.94
684.284	3662.28
684.474	3482.06
684.664	3660.23
684.854	3482.06
685.044	3621.32
685.234	3553.74
685.424	3494.35
685.614	3541.45
685.804	3551.69
685.994	3506.63
686.184	3541.45
686.374	3623.37
686.564	3416.52
686.753	3367.37
686.943	3434.96
687.133	3447.24
687.323	3598.79
687.513	3559.88
687.702	3348.94
687.892	3437
688.082	3258.83
688.272	3361.23
688.461	3297.74
688.651	3232.21
688.841	3353.04
689.03	3273.17
689.22	3254.73
689.41	3252.69
689.599	3316.17
689.789	3224.01
689.979	3113.42
690.168	3160.53
690.358	3217.87
690.547	3287.5
690.737	3215.82
690.926	3068.37
691.116	3054.03
691.305	3138
691.495	3154.38
691.684	3178.96
691.874	3072.47
692.063	3060.18
692.252	3074.51
692.442	3062.23
692.631	2953.68
692.82	2949.59
693.01	2943.44
693.199	2968.02
693.388	2818.52
693.578	2890.2
693.767	2894.29
693.956	2986.45
694.146	2959.83
694.335	2789.85
694.524	2869.72
694.713	2853.33
694.902	2832.85
695.092	2791.89
695.281	2666.97
695.47	2693.59
695.659	2769.37
695.848	2767.32
696.037	2752.98
696.226	2793.94
696.415	2746.84
696.604	2742.74
696.793	2787.8
696.982	2763.22
697.171	2732.5
697.36	2771.41
697.549	2712.02
697.738	2597.34
697.927	2691.54
698.116	2718.17
698.305	2683.35
698.494	2572.76
698.683	2605.53
698.872	2599.38
699.061	2605.53
699.25	2566.62
699.438	2617.82
699.627	2437.59
699.816	2587.1
700.005	2558.42
700.193	2492.89
700.382	2527.71
700.571	2445.79
700.76	2484.7
700.948	2619.86
701.137	2490.84
701.326	2501.08
701.514	2451.93
701.703	2515.42
701.892	2396.64
702.08	2619.86
702.269	2474.46
702.457	2488.79
702.646	2460.12
702.834	2447.83
703.023	2464.22
703.212	2568.66
703.4	2525.66
703.589	2437.59
703.777	2474.46
703.965	2345.44
704.154	2445.79
704.342	2329.05
704.531	2386.4
704.719	2402.78
704.907	2437.59
705.096	2466.27
705.284	2429.4
705.472	2421.21
705.661	2402.78
705.849	2482.65
706.037	2505.18
706.226	2380.25
706.414	2275.81
706.602	2372.06
706.79	2349.53
706.979	2396.64
707.167	2337.24
707.355	2343.39
707.543	2249.18
707.731	2337.24
707.919	2435.55
708.107	2302.43
708.296	2392.54
708.484	2312.67
708.672	2386.4
708.86	2396.64
709.048	2396.64
709.236	2331.1
709.424	2413.02
709.612	2365.92
709.8	2431.45
709.988	2327
710.176	2349.53
710.364	2388.44
710.551	2388.44
710.739	2281.95
710.927	2419.16
711.115	2247.13
711.303	2333.15
711.491	2202.08
711.679	2353.63
711.866	2347.48
712.054	2349.53
712.242	2230.75
712.43	2259.42
712.617	2380.25
712.805	2197.98
712.993	2288.09
713.181	2294.24
713.368	2437.59
713.556	2320.86
713.744	2277.85
713.931	2355.68
714.119	2435.55
714.306	2269.66
714.494	2222.56
714.682	2370.01
714.869	2275.81
715.057	2273.76
715.244	2284
715.432	2238.94
715.619	2159.07
715.807	2300.38
715.994	2298.33
716.182	2320.86
716.369	2343.39
716.556	2310.62
716.744	2523.61
716.931	2228.7
717.119	2335.2
717.306	2365.92
717.493	2331.1
717.681	2314.72
717.868	2261.47
718.055	2286.05
718.242	2324.96
718.43	2363.87
718.617	2478.55
718.804	2304.48
718.991	2310.62
719.179	2429.4
719.366	2292.19
719.553	2466.27
719.74	2206.17
719.927	2281.95
720.114	2384.35
720.301	2273.76
720.488	2228.7
720.676	2200.03
720.863	2296.28
721.05	2374.11
721.237	2314.72
721.424	2286.05
721.611	2281.95
721.798	2347.48
721.985	2243.04
722.172	2386.4
722.358	2277.85
722.545	2427.35
722.732	2243.04
722.919	2347.48
723.106	2359.77
723.293	2316.76
723.48	2238.94
723.667	2212.32
723.853	2243.04
724.04	2310.62
724.227	2294.24
724.414	2245.09
724.6	2220.51
724.787	2216.41
724.974	2365.92
725.161	2159.07
725.347	2284
725.534	2359.77
725.72	2263.52
725.907	2316.76
726.094	2255.33
726.28	2171.36
726.467	2335.2
726.653	2210.27
726.84	2331.1
727.027	2367.96
727.213	2230.75
727.4	2224.61
727.586	2300.38
727.773	2253.28
727.959	2232.8
728.145	2347.48
728.332	2277.85
728.518	2169.31
728.705	2365.92
728.891	2259.42
729.077	2308.57
729.264	2273.76
729.45	2183.65
729.636	2212.32
729.823	2243.04
730.009	2253.28
730.195	2249.18
730.382	2218.46
730.568	2310.62
730.754	2378.2
730.94	2243.04
731.126	2294.24
731.313	2431.45
731.499	2306.52
731.685	2257.37
731.871	2281.95
732.057	2269.66
732.243	2214.37
732.429	2402.78
732.615	2187.74
732.801	2273.76
732.987	2304.48
733.173	2265.57
733.359	2230.75
733.545	2318.81
733.731	2324.96
733.917	2265.57
734.103	2279.9
734.289	2220.51
734.475	2226.65
734.661	2269.66
734.847	2292.19
735.033	2324.96
735.219	2281.95
735.404	2259.42
735.59	2367.96
735.776	2267.61
735.962	2195.93
736.148	2247.13
736.333	2218.46
736.519	2206.17
736.705	2222.56
736.89	2286.05
737.076	2103.78
737.262	2165.21
737.447	2228.7
737.633	2249.18
737.819	2208.22
738.004	2142.69
738.19	2324.96
738.375	2218.46
738.561	2224.61
738.747	2181.6
738.932	2169.31
739.118	2251.23
739.303	2286.05
739.489	2195.93
739.674	2109.92
739.859	2179.55
740.045	2169.31
740.23	2245.09
740.416	2105.82
740.601	2197.98
740.786	2294.24
740.972	2105.82
741.157	2081.25
741.342	2003.43
741.528	2081.25
741.713	2134.5
741.898	2191.84
742.084	2056.67
742.269	2111.97
742.454	2060.77
742.639	2093.54
742.824	2085.34
743.01	2085.34
743.195	1993.19
743.38	2073.06
743.565	2040.29
743.75	2105.82
743.935	1966.56
744.12	2028
744.305	2050.53
744.49	2042.34
744.675	1966.56
744.86	1958.37
745.045	1982.95
745.23	2003.43
745.415	1880.55
745.6	1966.56
745.785	1853.92
745.97	1870.31
746.155	1946.08
746.34	1960.42
746.525	1892.84
746.71	2007.52
746.895	1817.06
747.079	1815.01
747.264	1862.12
747.449	1794.53
747.634	1796.58
747.819	1874.4
748.003	1757.67
748.188	1798.63
748.373	1784.29
748.557	1831.4
748.742	1685.99
748.927	1724.9
749.111	1765.86
749.296	1825.25
749.481	1724.9
749.665	1630.7
749.85	1657.32
750.034	1784.29
750.219	1729
750.404	1726.95
750.588	1667.56
750.773	1583.59
750.957	1632.74
751.141	1520.1
751.326	1655.27
751.51	1632.74
751.695	1608.17
751.879	1636.84
752.064	1634.79
752.248	1507.82
752.432	1567.21
752.617	1575.4
752.801	1591.78
752.985	1530.34
753.17	1503.72
753.354	1440.23
753.538	1495.53
753.722	1438.19
753.907	1429.99
754.091	1427.95
754.275	1524.2
754.459	1382.89
754.643	1380.84
754.828	1300.97
755.012	1470.95
755.196	1429.99
755.38	1317.36
755.564	1440.23
755.748	1417.71
755.932	1473
756.116	1384.94
756.3	1386.99
756.484	1298.92
756.668	1311.21
756.852	1237.49
757.036	1325.55
757.22	1280.49
757.404	1303.02
757.588	1288.68
757.772	1268.2
757.956	1331.69
758.14	1221.1
758.323	1264.11
758.507	1225.2
758.691	1231.34
758.875	1268.2
759.059	1348.08
759.242	1260.01
759.426	1116.65
759.61	1200.62
759.794	1190.38
759.977	1186.29
760.161	1255.92
760.345	1124.85
760.528	1200.62
760.712	1063.41
760.895	1219.05
761.079	1083.89
761.263	1124.85
761.446	1094.13
761.63	1024.5
761.813	1108.46
761.997	1112.56
762.18	1108.46
762.364	1122.8
762.547	1092.08
762.731	1124.85
762.914	1120.75
763.098	1004.02
763.281	956.91
763.464	1059.31
763.648	1075.7
763.831	1104.37
764.015	1030.64
764.198	1092.08
764.381	1085.94
764.564	1034.74
764.748	1090.03
764.931	1110.51
765.114	1057.26
765.297	1075.7
765.481	1051.12
765.664	1008.11
765.847	1059.31
766.03	1004.02
766.213	911.86
766.397	903.67
766.58	969.2
766.763	1034.74
766.946	1010.16
767.129	987.63
767.312	958.96
767.495	946.67
767.678	791.03
767.861	1081.84
768.044	836.08
768.227	895.47
768.41	895.47
768.593	973.3
768.776	1010.16
768.959	901.62
769.142	907.76
769.324	934.39
769.507	825.84
769.69	965.11
769.873	834.04
770.056	948.72
770.239	852.47
770.421	856.56
770.604	797.17
770.787	895.47
770.97	803.32
771.152	848.37
771.335	850.42
771.518	827.89
771.7	883.19
771.883	868.85
772.066	811.51
772.248	782.84
772.431	860.66
772.613	913.91
772.796	844.28
772.978	905.71
773.161	721.4
773.343	907.76
773.526	725.49
773.708	840.18
773.891	752.12
774.073	801.27
774.256	709.11
774.438	825.84
774.621	715.25
774.803	784.88
774.985	739.83
775.168	801.27
775.35	739.83
775.532	737.78
775.715	639.48
775.897	670.2
776.079	680.44
776.261	752.12
776.444	766.45
776.626	725.49
776.808	569.85
776.99	670.2
777.173	686.58
777.355	668.15
777.537	633.33
777.719	682.49
777.901	623.09
778.083	614.9
778.265	600.57
778.447	623.09
778.629	752.12
778.811	598.52
778.993	715.25
779.175	754.16
779.357	508.41
779.539	514.55
779.721	610.81
779.903	664.05
780.085	602.61
780.267	563.7
780.449	641.53
780.631	547.32
780.812	619
780.994	637.43
781.176	551.42
781.358	539.13
781.54	637.43
781.721	496.12
781.903	561.66
782.085	485.88
782.267	518.65
782.448	539.13
782.63	471.54
782.812	428.54
782.993	594.42
783.175	528.89
783.357	545.27
783.538	598.52
783.72	537.08
783.901	403.96
784.083	481.78
784.264	541.18
784.446	426.49
784.627	438.78
784.809	451.07
784.99	449.02
785.172	467.45
785.353	455.16
785.535	432.63
785.716	469.5
785.897	436.73
786.079	446.97
786.26	434.68
786.441	414.2
786.623	406.01
786.804	422.39
786.985	408.06
787.167	406.01
787.348	393.72
787.529	381.43
787.71	506.36
787.891	414.2
788.073	348.67
788.254	324.09
788.435	416.25
788.616	414.2
788.797	354.81
788.978	369.15
789.159	434.68
789.34	324.09
789.522	358.91
789.703	344.57
789.884	340.47
790.065	389.63
790.246	363
790.427	406.01
790.607	406.01
790.788	416.25
790.969	305.66
791.15	403.96
791.331	336.38
791.512	291.32
791.693	367.1
791.874	338.43
792.054	383.48
792.235	438.78
792.416	334.33
792.597	256.51
792.778	344.57
792.958	322.04
793.139	326.14
793.32	301.56
793.5	270.84
793.681	317.95
793.862	360.95
794.042	199.16
794.223	328.19
794.404	340.47
794.584	340.47
794.765	303.61
794.945	377.34
795.126	330.23
795.306	289.28
795.487	395.77
795.667	274.94
795.848	340.47
796.028	350.71
796.209	303.61
796.389	262.65
796.57	352.76
796.75	231.93
796.93	295.42
797.111	272.89
797.291	285.18
797.471	363
797.652	315.9
797.832	252.41
798.012	258.56
798.192	264.7
798.373	209.4
798.553	217.6
798.733	324.09
798.913	252.41
799.093	248.32
799.274	289.28
799.454	260.6
799.634	231.93
799.814	293.37
799.994	270.84
800.174	238.08
800.354	330.23
800.534	248.32
800.714	176.64
800.894	258.56
801.074	186.88
801.254	236.03
801.434	295.42
801.614	270.84
801.794	184.83
801.974	709.11
802.154	248.32
802.334	258.56
802.514	233.98
802.693	190.97
802.873	164.35
803.053	217.6
803.233	244.22
803.413	231.93
803.592	193.02
803.772	186.88
803.952	254.46
804.131	266.75
804.311	219.64
804.491	268.8
804.67	184.83
804.85	205.31
805.03	199.16
805.209	180.73
805.389	209.4
805.568	225.79
805.748	203.26
805.928	219.64
806.107	158.21
806.287	160.25
806.466	217.6
806.646	193.02
806.825	211.45
807.004	160.25
807.184	266.75
807.363	156.16
807.543	254.46
807.722	240.12
807.901	193.02
808.081	150.01
808.26	150.01
808.439	190.97
808.619	184.83
808.798	209.4
808.977	193.02
809.156	168.45
809.336	190.97
809.515	193.02
809.694	227.84
809.873	193.02
810.052	160.25
810.231	199.16
810.411	170.49
810.59	213.5
810.769	248.32
810.948	240.12
811.127	76.29
811.306	170.49
811.485	229.88
811.664	178.69
811.843	211.45
812.022	215.55
812.201	78.33
812.38	156.16
812.559	141.82
812.737	182.78
812.916	96.77
813.095	115.2
813.274	176.64
813.453	223.74
813.632	96.77
813.811	90.62
813.989	127.49
814.168	119.29
814.347	94.72
814.526	152.06
814.704	139.77
814.883	109.05
815.062	76.29
815.24	147.97
815.419	141.82
815.598	131.58
815.776	107.01
815.955	119.29
816.133	182.78
816.312	137.73
816.49	180.73
816.669	102.91
816.847	78.33
817.026	156.16
817.204	129.53
817.383	113.15
817.561	98.81
817.74	125.44
817.918	125.44
818.097	209.4
818.275	188.93
818.453	186.88
818.632	150.01
818.81	203.26
818.988	115.2
819.167	102.91
819.345	133.63
819.523	68.09
819.701	180.73
819.879	123.39
820.058	125.44
820.236	59.9
820.414	61.95
820.592	117.25
820.77	96.77
820.948	90.62
821.127	55.81
821.305	111.1
821.483	184.83
821.661	113.15
821.839	135.68
822.017	12.8
822.195	160.25
822.373	49.66
822.551	115.2
822.729	107.01
822.907	76.29
823.085	141.82
823.262	47.62
823.44	100.86
823.618	94.72
823.796	111.1
823.974	141.82
824.152	143.87
824.329	131.58
824.507	143.87
824.685	70.14
824.863	92.67
825.04	94.72
825.218	123.39
825.396	96.77
825.574	111.1
825.751	104.96
825.929	113.15
826.107	98.81
826.284	111.1
826.462	68.09
826.639	74.24
826.817	35.33
826.994	92.67
827.172	57.86
827.349	94.72
827.527	84.48
827.704	109.05
827.882	41.47
828.059	43.52
828.237	78.33
828.414	104.96
828.591	64
828.769	74.24
828.946	86.53
829.124	51.71
829.301	90.62
829.478	88.57
829.655	170.49
829.833	152.06
830.01	33.28
830.187	154.11
830.364	72.19
830.542	76.29
830.719	129.53
830.896	115.2
831.073	88.57
831.25	57.86
831.427	160.25
831.604	14.85
831.782	29.18
831.959	66.05
832.136	158.21
832.313	59.9
832.49	70.14
832.667	86.53
832.844	88.57
833.021	57.86
833.198	59.9
833.374	41.47
833.551	96.77
833.728	92.67
833.905	98.81
834.082	78.33
834.259	86.53
834.436	88.57
834.612	31.23
834.789	76.29
834.966	94.72
835.143	129.53
835.319	-40.45
835.496	119.29
835.673	41.47
835.85	137.73
836.026	115.2
836.203	96.77
836.38	98.81
836.556	117.25
836.733	57.86
836.909	96.77
837.086	23.04
837.262	31.23
837.439	57.86
837.616	127.49
837.792	72.19
837.968	86.53
838.145	20.99
838.321	68.09
838.498	61.95
838.674	82.43
838.851	86.53
839.027	131.58
839.203	33.28
839.38	109.05
839.556	51.71
839.732	125.44
839.909	10.75
840.085	84.48
840.261	88.57
840.437	35.33
840.614	41.47
840.79	111.1
840.966	64
841.142	61.95
841.318	61.95
841.494	98.81
841.671	55.81
841.847	12.8
842.023	59.9
842.199	111.1
842.375	100.86
842.551	-40.45
842.727	-69.12
842.903	123.39
843.079	-9.73
843.255	70.14
843.431	0.51
843.607	74.24
843.783	12.8
843.959	29.18
844.134	-11.78
844.31	84.48
844.486	18.94
844.662	0.51
844.838	31.23
845.013	20.99
845.189	86.53
845.365	47.62
845.541	47.62
845.716	92.67
845.892	68.09
846.068	23.04
846.244	-1.54
846.419	57.86
846.595	31.23
846.77	100.86
846.946	72.19
847.122	27.14
847.297	51.71
847.473	43.52
847.648	25.09
847.824	107.01
847.999	-28.16
848.175	25.09
848.35	70.14
848.526	131.58
848.701	113.15
848.876	12.8
849.052	98.81
849.227	47.62
849.403	8.7
849.578	76.29
849.753	-5.63
849.929	68.09
850.104	49.66
850.279	12.8
850.454	55.81
850.63	-34.3
850.805	55.81
850.98	20.99
851.155	45.57
851.33	80.38
851.505	-19.97
851.681	107.01
851.856	-24.06
852.031	82.43
852.206	14.85
852.381	47.62
852.556	-15.87
852.731	68.09
852.906	-19.97
853.081	6.66
853.256	51.71
853.431	82.43
853.606	61.95
853.781	49.66
853.956	82.43
854.131	-22.02
854.305	45.57
854.48	12.8
854.655	10.75
854.83	41.47
855.005	-15.87
855.18	29.18
855.354	12.8
855.529	78.33
855.704	55.81
855.879	20.99
856.053	-40.45
856.228	23.04
856.403	-19.97
856.577	4.61
856.752	43.52
856.926	25.09
857.101	-24.06
857.276	25.09
857.45	31.23
857.625	29.18
857.799	16.9
857.974	-19.97
858.148	-32.26
858.323	10.75
858.497	14.85
858.672	49.66
858.846	16.9
859.02	66.05
859.195	-26.11
859.369	-22.02
859.543	-13.82
859.718	12.8
859.892	-26.11
860.066	53.76
860.241	25.09
860.415	-5.63
860.589	14.85
860.763	-54.78
860.938	-69.12
861.112	12.8
861.286	80.38
861.46	8.7
861.634	47.62
861.808	80.38
861.982	2.56
862.157	59.9
862.331	0.51
862.505	47.62
862.679	86.53
862.853	41.47
863.027	33.28
863.201	74.24
863.375	-19.97
863.549	-5.63
863.722	2.56
863.896	25.09
864.07	-48.64
864.244	-7.68
864.418	0.51
864.592	78.33
864.766	-13.82
864.939	-11.78
865.113	-3.58
865.287	59.9
865.461	-50.69
865.634	74.24
865.808	12.8
865.982	43.52
866.156	102.91
866.329	37.38
866.503	31.23
866.676	57.86
866.85	76.29
867.024	-9.73
867.197	27.14
867.371	-17.92
867.544	45.57
867.718	4.61
867.891	12.8
868.065	14.85
868.238	-46.59
868.412	53.76
868.585	-11.78
868.759	12.8
868.932	-9.73
869.105	2.56
869.279	49.66
869.452	64
869.625	39.42
869.799	18.94
869.972	59.9
870.145	4.61
870.319	107.01
870.492	4.61
870.665	82.43
870.838	10.75
871.011	-26.11
871.185	-1.54
871.358	31.23
871.531	4.61
871.704	-34.3
871.877	-15.87
872.05	-24.06
872.223	23.04
872.396	20.99
872.569	107.01
872.742	-38.4
872.915	98.81
873.088	25.09
873.261	8.7
873.434	-3.58
873.607	41.47
873.78	-50.69
873.953	43.52
874.126	-42.5
874.299	35.33
874.471	-11.78
874.644	-11.78
874.817	31.23
874.99	16.9
875.163	-15.87
875.335	14.85
875.508	-42.5
875.681	25.09
875.853	49.66
876.026	43.52
876.199	16.9
876.371	64
876.544	-38.4
876.717	-5.63
876.889	-28.16
877.062	131.58
877.234	-50.69
877.407	39.42
877.579	-5.63
877.752	61.95
877.924	-22.02
878.097	37.38
878.269	43.52
878.442	29.18
878.614	8.7
878.786	-1.54
878.959	27.14
879.131	-28.16
879.303	35.33
879.476	-85.5
879.648	82.43
879.82	29.18
879.993	18.94
880.165	41.47
880.337	-3.58
880.509	14.85
880.681	6.66
880.854	23.04
881.026	64
881.198	-7.68
881.37	23.04
881.542	-15.87
881.714	-19.97
881.886	35.33
882.058	-11.78
882.23	76.29
882.402	-5.63
882.574	-60.93
882.746	-40.45
882.918	72.19
883.09	29.18
883.262	-30.21
883.434	-32.26
883.606	-1.54
883.778	4.61
883.95	39.42
884.122	-3.58
884.293	-13.82
884.465	70.14
884.637	10.75
884.809	-11.78
884.98	8.7
885.152	59.9
885.324	-22.02
885.496	-120.32
885.667	33.28
885.839	6.66
886.011	78.33
886.182	-1.54
886.354	16.9
886.525	-11.78
886.697	-46.59
886.869	8.7
887.04	-24.06
887.212	8.7
887.383	47.62
887.555	6.66
887.726	4.61
887.897	-30.21
888.069	-44.54
888.24	18.94
888.412	4.61
888.583	23.04
888.754	8.7
888.926	16.9
889.097	-60.93
889.268	23.04
889.44	-9.73
889.611	-9.73
889.782	55.81
889.953	2.56
890.125	68.09
890.296	35.33
890.467	-77.31
890.638	-50.69
890.809	94.72
890.98	-32.26
891.151	49.66
891.323	61.95
891.494	37.38
891.665	-22.02
891.836	-32.26
892.007	39.42
892.178	119.29
892.349	-34.3
892.52	-36.35
892.691	-30.21
892.862	14.85
893.032	4.61
893.203	0.51
893.374	20.99
893.545	-26.11
893.716	-44.54
893.887	102.91
894.057	-69.12
894.228	31.23
894.399	18.94
894.57	-73.21
894.74	-17.92
894.911	94.72
895.082	86.53
895.253	-24.06
895.423	33.28
895.594	-17.92
895.764	37.38
895.935	-62.98
896.106	6.66
896.276	133.63
896.447	4.61
896.617	0.51
896.788	33.28
896.958	-38.4
897.129	-34.3
897.299	-44.54
897.47	-5.63
897.64	37.38
897.81	-48.64
897.981	66.05
898.151	27.14
898.322	-44.54
898.492	37.38
898.662	-26.11
898.832	39.42
899.003	35.33
899.173	-77.31
899.343	-19.97
899.513	-32.26
