Data from USB4F104151__60__12-27-38-452.txt Node

Date: Fri Mar 14 12:27:38 EDT 2025
User: louis
Spectrometer: USB4F10415
Trigger mode: 4
Integration Time (sec): 2.000000E-2
Scans to average: 1
Electric dark correction enabled: true
Nonlinearity correction enabled: false
Boxcar width: 0
XAxis mode: Wavelengths
Number of Pixels in Spectrum: 3648
>>>>>Begin Spectral Data<<<<<
178.204	-46.93
178.424	-46.93
178.644	-46.93
178.864	-135
179.084	-149.33
179.304	-30.55
179.524	-28.5
179.744	59.56
179.964	20.65
180.184	18.6
180.404	-5.97
180.624	-51.03
180.844	14.51
181.064	32.94
181.283	-20.31
181.503	22.7
181.723	-32.6
181.943	-55.12
182.163	37.03
182.383	-34.64
182.602	69.8
182.822	43.18
183.042	20.65
183.262	-34.64
183.482	14.51
183.701	-16.21
183.921	96.43
184.141	-20.31
184.361	67.75
184.58	55.47
184.8	-22.36
185.02	30.89
185.239	-20.31
185.459	-42.84
185.679	34.99
185.898	-38.74
186.118	32.94
186.338	-8.02
186.557	28.84
186.777	10.41
186.997	6.31
187.216	-1.88
187.436	34.99
187.655	-71.51
187.875	-3.93
188.095	16.55
188.314	-34.64
188.534	71.85
188.753	51.37
188.973	84.14
189.192	102.57
189.412	28.84
189.631	-3.93
189.851	18.6
190.07	24.75
190.29	-20.31
190.509	-22.36
190.729	22.7
190.948	63.66
191.168	102.57
191.387	2.22
191.607	61.61
191.826	28.84
192.045	-32.6
192.265	32.94
192.484	20.65
192.704	45.23
192.923	-46.93
193.142	65.71
193.362	104.62
193.581	47.27
193.8	6.31
194.02	16.55
194.239	14.51
194.458	12.46
194.678	-10.07
194.897	10.41
195.116	18.6
195.335	55.47
195.555	69.8
195.774	-83.8
195.993	32.94
196.212	-3.93
196.432	26.79
196.651	37.03
196.87	-16.21
197.089	6.31
197.308	32.94
197.528	37.03
197.747	0.17
197.966	16.55
198.185	18.6
198.404	45.23
198.623	-5.97
198.842	30.89
199.062	24.75
199.281	73.9
199.5	32.94
199.719	69.8
199.938	6.31
200.157	127.14
200.376	73.9
200.595	69.8
200.814	4.27
201.033	-16.21
201.252	8.36
201.471	32.94
201.69	65.71
201.909	41.13
202.128	43.18
202.347	114.86
202.566	37.03
202.785	-3.93
203.004	-34.64
203.223	135.34
203.442	-38.74
203.661	45.23
203.879	-8.02
204.098	82.09
204.317	24.75
204.536	57.51
204.755	18.6
204.974	10.41
205.193	28.84
205.411	2.22
205.63	-71.51
205.849	90.28
206.068	30.89
206.287	-14.17
206.505	45.23
206.724	43.18
206.943	28.84
207.162	-30.55
207.381	51.37
207.599	26.79
207.818	45.23
208.037	32.94
208.255	-20.31
208.474	-10.07
208.693	6.31
208.911	30.89
209.13	69.8
209.349	37.03
209.567	-10.07
209.786	61.61
210.005	43.18
210.223	41.13
210.442	43.18
210.661	45.23
210.879	22.7
211.098	2.22
211.316	-16.21
211.535	-40.79
211.753	-40.79
211.972	77.99
212.191	-30.55
212.409	12.46
212.628	18.6
212.846	37.03
213.065	47.27
213.283	92.33
213.502	-5.97
213.72	55.47
213.938	77.99
214.157	59.56
214.375	-34.64
214.594	34.99
214.812	102.57
215.031	32.94
215.249	32.94
215.467	14.51
215.686	24.75
215.904	63.66
216.122	-22.36
216.341	82.09
216.559	8.36
216.778	45.23
216.996	10.41
217.214	-18.26
217.432	14.51
217.651	22.7
217.869	59.56
218.087	-30.55
218.306	22.7
218.524	51.37
218.742	6.31
218.96	-40.79
219.179	26.79
219.397	30.89
219.615	88.23
219.833	47.27
220.051	-55.12
220.27	106.67
220.488	63.66
220.706	-26.45
220.924	16.55
221.142	-22.36
221.36	55.47
221.578	32.94
221.796	-40.79
222.015	37.03
222.233	96.43
222.451	18.6
222.669	-5.97
222.887	-3.93
223.105	20.65
223.323	39.08
223.541	63.66
223.759	59.56
223.977	37.03
224.195	12.46
224.413	8.36
224.631	-16.21
224.849	4.27
225.067	67.75
225.285	18.6
225.503	14.51
225.721	-12.12
225.939	39.08
226.157	71.85
226.375	10.41
226.592	-12.12
226.81	-3.93
227.028	106.67
227.246	30.89
227.464	4.27
227.682	-5.97
227.9	57.51
228.117	55.47
228.335	-10.07
228.553	-42.84
228.771	26.79
228.989	43.18
229.206	41.13
229.424	-8.02
229.642	-3.93
229.86	22.7
230.077	2.22
230.295	88.23
230.513	84.14
230.731	71.85
230.948	61.61
231.166	41.13
231.384	30.89
231.601	47.27
231.819	51.37
232.037	-8.02
232.254	-8.02
232.472	-1.88
232.689	30.89
232.907	32.94
233.125	-16.21
233.342	32.94
233.56	20.65
233.777	61.61
233.995	6.31
234.213	106.67
234.43	57.51
234.648	-16.21
234.865	-10.07
235.083	14.51
235.3	65.71
235.518	53.42
235.735	37.03
235.953	43.18
236.17	63.66
236.388	16.55
236.605	69.8
236.822	57.51
237.04	28.84
237.257	4.27
237.475	-28.5
237.692	51.37
237.909	37.03
238.127	-24.4
238.344	37.03
238.562	37.03
238.779	-20.31
238.996	12.46
239.214	80.04
239.431	16.55
239.648	45.23
239.865	8.36
240.083	69.8
240.3	10.41
240.517	30.89
240.735	43.18
240.952	39.08
241.169	-38.74
241.386	34.99
241.603	10.41
241.821	34.99
242.038	49.32
242.255	69.8
242.472	-42.84
242.689	-53.08
242.907	-22.36
243.124	69.8
243.341	49.32
243.558	20.65
243.775	-8.02
243.992	37.03
244.209	34.99
244.426	108.71
244.643	2.22
244.86	45.23
245.078	90.28
245.295	12.46
245.512	24.75
245.729	-24.4
245.946	104.62
246.163	43.18
246.38	-22.36
246.597	0.17
246.814	2.22
247.031	-26.45
247.248	65.71
247.464	59.56
247.681	41.13
247.898	37.03
248.115	30.89
248.332	-18.26
248.549	-8.02
248.766	53.42
248.983	-3.93
249.2	34.99
249.417	96.43
249.633	63.66
249.85	-36.69
250.067	55.47
250.284	57.51
250.501	71.85
250.717	37.03
250.934	-34.64
251.151	37.03
251.368	-1.88
251.585	18.6
251.801	41.13
252.018	-18.26
252.235	61.61
252.451	-1.88
252.668	55.47
252.885	10.41
253.102	71.85
253.318	45.23
253.535	20.65
253.752	2.22
253.968	67.75
254.185	75.95
254.401	8.36
254.618	43.18
254.835	37.03
255.051	88.23
255.268	0.17
255.484	6.31
255.701	-14.17
255.917	51.37
256.134	84.14
256.351	30.89
256.567	18.6
256.784	77.99
257	-10.07
257.217	88.23
257.433	34.99
257.65	80.04
257.866	49.32
258.082	20.65
258.299	8.36
258.515	43.18
258.732	34.99
258.948	30.89
259.165	49.32
259.381	0.17
259.597	18.6
259.814	-42.84
260.03	24.75
260.246	-16.21
260.463	92.33
260.679	26.79
260.895	0.17
261.112	88.23
261.328	41.13
261.544	-20.31
261.761	121
261.977	94.38
262.193	-20.31
262.409	63.66
262.626	-20.31
262.842	-24.4
263.058	37.03
263.274	14.51
263.49	4.27
263.707	-22.36
263.923	-5.97
264.139	61.61
264.355	-10.07
264.571	84.14
264.787	2.22
265.004	28.84
265.22	32.94
265.436	69.8
265.652	-28.5
265.868	8.36
266.084	-24.4
266.3	-34.64
266.516	8.36
266.732	41.13
266.948	51.37
267.164	30.89
267.38	-67.41
267.596	92.33
267.812	96.43
268.028	16.55
268.244	18.6
268.46	28.84
268.676	0.17
268.892	73.9
269.108	30.89
269.324	18.6
269.54	-51.03
269.756	63.66
269.972	8.36
270.188	75.95
270.403	-38.74
270.619	57.51
270.835	45.23
271.051	69.8
271.267	-28.5
271.483	-53.08
271.698	41.13
271.914	49.32
272.13	-40.79
272.346	22.7
272.562	4.27
272.777	30.89
272.993	18.6
273.209	14.51
273.425	82.09
273.64	-10.07
273.856	-12.12
274.072	12.46
274.287	63.66
274.503	30.89
274.719	-46.93
274.934	30.89
275.15	-24.4
275.366	24.75
275.581	10.41
275.797	57.51
276.012	67.75
276.228	16.55
276.444	-20.31
276.659	57.51
276.875	-5.97
277.09	69.8
277.306	-1.88
277.521	106.67
277.737	-12.12
277.952	43.18
278.168	92.33
278.383	88.23
278.599	53.42
278.814	10.41
279.03	0.17
279.245	94.38
279.461	16.55
279.676	22.7
279.892	14.51
280.107	39.08
280.322	-34.64
280.538	61.61
280.753	-5.97
280.969	69.8
281.184	-40.79
281.399	55.47
281.615	34.99
281.83	45.23
282.045	-12.12
282.26	37.03
282.476	20.65
282.691	80.04
282.906	61.61
283.122	12.46
283.337	39.08
283.552	22.7
283.767	34.99
283.983	102.57
284.198	41.13
284.413	26.79
284.628	6.31
284.843	-65.36
285.058	30.89
285.274	24.75
285.489	-79.7
285.704	24.75
285.919	24.75
286.134	18.6
286.349	55.47
286.564	4.27
286.779	45.23
286.995	57.51
287.21	-14.17
287.425	26.79
287.64	57.51
287.855	41.13
288.07	-59.22
288.285	34.99
288.5	37.03
288.715	47.27
288.93	6.31
289.145	-12.12
289.36	-3.93
289.575	49.32
289.79	110.76
290.004	-20.31
290.219	16.55
290.434	43.18
290.649	10.41
290.864	6.31
291.079	32.94
291.294	22.7
291.509	57.51
291.724	67.75
291.938	82.09
292.153	-14.17
292.368	-26.45
292.583	45.23
292.798	51.37
293.012	57.51
293.227	37.03
293.442	-12.12
293.657	45.23
293.871	39.08
294.086	88.23
294.301	61.61
294.516	-1.88
294.73	22.7
294.945	37.03
295.16	-3.93
295.374	106.67
295.589	37.03
295.804	-14.17
296.018	104.62
296.233	108.71
296.447	8.36
296.662	-22.36
296.877	94.38
297.091	-24.4
297.306	-32.6
297.52	51.37
297.735	114.86
297.949	18.6
298.164	125.1
298.378	-57.17
298.593	61.61
298.807	110.76
299.022	61.61
299.236	102.57
299.451	-28.5
299.665	-18.26
299.88	55.47
300.094	53.42
300.309	-18.26
300.523	20.65
300.737	28.84
300.952	65.71
301.166	30.89
301.381	24.75
301.595	10.41
301.809	-26.45
302.024	39.08
302.238	-36.69
302.452	102.57
302.667	12.46
302.881	69.8
303.095	80.04
303.309	-26.45
303.524	18.6
303.738	-10.07
303.952	8.36
304.166	16.55
304.381	-12.12
304.595	28.84
304.809	-42.84
305.023	121
305.237	55.47
305.452	37.03
305.666	73.9
305.88	106.67
306.094	92.33
306.308	51.37
306.522	141.48
306.736	61.61
306.95	82.09
307.164	77.99
307.379	-5.97
307.593	71.85
307.807	32.94
308.021	55.47
308.235	51.37
308.449	-30.55
308.663	8.36
308.877	92.33
309.091	77.99
309.305	8.36
309.519	-1.88
309.733	96.43
309.947	45.23
310.161	90.28
310.374	14.51
310.588	47.27
310.802	8.36
311.016	14.51
311.23	-57.17
311.444	20.65
311.658	30.89
311.872	86.19
312.085	59.56
312.299	96.43
312.513	61.61
312.727	82.09
312.941	20.65
313.154	67.75
313.368	-8.02
313.582	45.23
313.796	6.31
314.009	6.31
314.223	-1.88
314.437	-3.93
314.651	80.04
314.864	-46.93
315.078	45.23
315.292	77.99
315.505	39.08
315.719	67.75
315.933	-18.26
316.146	-5.97
316.36	57.51
316.573	123.05
316.787	-26.45
317.001	-5.97
317.214	22.7
317.428	39.08
317.641	-20.31
317.855	-34.64
318.068	30.89
318.282	32.94
318.495	110.76
318.709	32.94
318.922	-51.03
319.136	108.71
319.349	28.84
319.563	41.13
319.776	2.22
319.99	4.27
320.203	45.23
320.417	37.03
320.63	4.27
320.843	47.27
321.057	-10.07
321.27	24.75
321.483	41.13
321.697	88.23
321.91	0.17
322.124	59.56
322.337	82.09
322.55	2.22
322.763	39.08
322.977	75.95
323.19	20.65
323.403	59.56
323.617	-12.12
323.83	127.14
324.043	-20.31
324.256	0.17
324.469	45.23
324.683	90.28
324.896	24.75
325.109	84.14
325.322	-20.31
325.535	55.47
325.748	34.99
325.962	-5.97
326.175	2.22
326.388	-53.08
326.601	100.52
326.814	18.6
327.027	49.32
327.24	-12.12
327.453	2.22
327.666	104.62
327.879	22.7
328.092	90.28
328.305	-20.31
328.518	-36.69
328.731	53.42
328.944	12.46
329.157	43.18
329.37	57.51
329.583	65.71
329.796	47.27
330.009	-3.93
330.222	2.22
330.435	-1.88
330.648	-18.26
330.861	65.71
331.073	-22.36
331.286	22.7
331.499	65.71
331.712	-20.31
331.925	65.71
332.138	-44.88
332.35	69.8
332.563	30.89
332.776	77.99
332.989	8.36
333.202	32.94
333.414	80.04
333.627	47.27
333.84	34.99
334.053	57.51
334.265	37.03
334.478	30.89
334.691	47.27
334.903	10.41
335.116	-10.07
335.329	43.18
335.541	69.8
335.754	63.66
335.966	45.23
336.179	65.71
336.392	61.61
336.604	43.18
336.817	18.6
337.029	82.09
337.242	14.51
337.454	57.51
337.667	43.18
337.88	43.18
338.092	28.84
338.305	24.75
338.517	34.99
338.729	73.9
338.942	16.55
339.154	26.79
339.367	18.6
339.579	116.9
339.792	32.94
340.004	75.95
340.217	-30.55
340.429	-12.12
340.641	73.9
340.854	-75.6
341.066	-1.88
341.278	28.84
341.491	84.14
341.703	108.71
341.915	-10.07
342.128	24.75
342.34	-18.26
342.552	24.75
342.764	4.27
342.977	77.99
343.189	14.51
343.401	12.46
343.613	49.32
343.826	14.51
344.038	-8.02
344.25	37.03
344.462	47.27
344.674	-5.97
344.886	88.23
345.099	18.6
345.311	121
345.523	114.86
345.735	28.84
345.947	22.7
346.159	14.51
346.371	67.75
346.583	24.75
346.795	137.38
347.007	-8.02
347.219	57.51
347.431	-16.21
347.643	32.94
347.855	-8.02
348.067	37.03
348.279	-38.74
348.491	16.55
348.703	12.46
348.915	20.65
349.127	-14.17
349.339	26.79
349.551	-5.97
349.763	28.84
349.975	22.7
350.187	55.47
350.399	121
350.61	14.51
350.822	12.46
351.034	92.33
351.246	53.42
351.458	96.43
351.669	57.51
351.881	-5.97
352.093	37.03
352.305	47.27
352.517	22.7
352.728	96.43
352.94	37.03
353.152	75.95
353.363	10.41
353.575	8.36
353.787	28.84
353.999	30.89
354.21	47.27
354.422	77.99
354.633	43.18
354.845	-32.6
355.057	57.51
355.268	157.86
355.48	37.03
355.692	-1.88
355.903	49.32
356.115	63.66
356.326	2.22
356.538	102.57
356.749	63.66
356.961	127.14
357.172	-63.32
357.384	-34.64
357.595	32.94
357.807	61.61
358.018	-5.97
358.23	131.24
358.441	34.99
358.653	77.99
358.864	43.18
359.075	-28.5
359.287	-3.93
359.498	-5.97
359.709	34.99
359.921	67.75
360.132	55.47
360.344	24.75
360.555	75.95
360.766	133.29
360.977	129.19
361.189	12.46
361.4	45.23
361.611	37.03
361.823	116.9
362.034	77.99
362.245	37.03
362.456	43.18
362.667	-26.45
362.879	80.04
363.09	49.32
363.301	92.33
363.512	63.66
363.723	53.42
363.935	-22.36
364.146	49.32
364.357	53.42
364.568	-20.31
364.779	-36.69
364.99	112.81
365.201	43.18
365.412	16.55
365.623	0.17
365.834	43.18
366.045	88.23
366.256	2.22
366.467	71.85
366.678	16.55
366.889	8.36
367.1	55.47
367.311	127.14
367.522	45.23
367.733	47.27
367.944	39.08
368.155	135.34
368.366	86.19
368.577	10.41
368.788	63.66
368.999	20.65
369.209	37.03
369.42	104.62
369.631	14.51
369.842	43.18
370.053	57.51
370.264	129.19
370.474	37.03
370.685	100.52
370.896	14.51
371.107	-12.12
371.317	30.89
371.528	14.51
371.739	92.33
371.95	69.8
372.16	47.27
372.371	41.13
372.582	39.08
372.792	82.09
373.003	65.71
373.214	104.62
373.424	51.37
373.635	16.55
373.846	108.71
374.056	30.89
374.267	88.23
374.477	-65.36
374.688	82.09
374.898	108.71
375.109	49.32
375.319	6.31
375.53	77.99
375.74	63.66
375.951	14.51
376.161	84.14
376.372	71.85
376.582	63.66
376.793	-8.02
377.003	59.56
377.214	61.61
377.424	-24.4
377.635	65.71
377.845	-26.45
378.055	69.8
378.266	-22.36
378.476	51.37
378.686	63.66
378.897	45.23
379.107	43.18
379.317	84.14
379.528	32.94
379.738	110.76
379.948	34.99
380.158	63.66
380.369	47.27
380.579	49.32
380.789	-16.21
380.999	51.37
381.21	4.27
381.42	69.8
381.63	12.46
381.84	94.38
382.05	47.27
382.261	90.28
382.471	121
382.681	28.84
382.891	34.99
383.101	39.08
383.311	43.18
383.521	-8.02
383.731	67.75
383.941	45.23
384.151	2.22
384.361	53.42
384.571	73.9
384.781	55.47
384.991	88.23
385.201	37.03
385.411	71.85
385.621	69.8
385.831	55.47
386.041	65.71
386.251	22.7
386.461	47.27
386.671	34.99
386.881	39.08
387.091	61.61
387.301	10.41
387.511	28.84
387.72	96.43
387.93	143.53
388.14	-10.07
388.35	16.55
388.56	53.42
388.769	43.18
388.979	71.85
389.189	80.04
389.399	18.6
389.609	67.75
389.818	123.05
390.028	-18.26
390.238	59.56
390.447	-12.12
390.657	30.89
390.867	75.95
391.076	30.89
391.286	59.56
391.496	139.43
391.705	88.23
391.915	110.76
392.125	49.32
392.334	41.13
392.544	118.95
392.753	55.47
392.963	82.09
393.172	37.03
393.382	127.14
393.591	133.29
393.801	-16.21
394.01	102.57
394.22	55.47
394.429	43.18
394.639	94.38
394.848	41.13
395.058	118.95
395.267	47.27
395.477	12.46
395.686	104.62
395.895	151.72
396.105	106.67
396.314	51.37
396.524	69.8
396.733	-10.07
396.942	141.48
397.152	121
397.361	84.14
397.57	110.76
397.78	94.38
397.989	43.18
398.198	125.1
398.407	110.76
398.617	139.43
398.826	161.96
399.035	51.37
399.244	88.23
399.453	71.85
399.663	92.33
399.872	127.14
400.081	65.71
400.29	149.67
400.499	77.99
400.708	59.56
400.917	67.75
401.127	112.81
401.336	77.99
401.545	161.96
401.754	98.47
401.963	164.01
402.172	24.75
402.381	104.62
402.59	139.43
402.799	104.62
403.008	92.33
403.217	51.37
403.426	94.38
403.635	98.47
403.844	151.72
404.053	127.14
404.262	176.3
404.471	127.14
404.68	145.58
404.888	131.24
405.097	49.32
405.306	133.29
405.515	215.21
405.724	129.19
405.933	178.34
406.142	123.05
406.35	184.49
406.559	198.82
406.768	170.15
406.977	164.01
407.185	211.11
407.394	168.1
407.603	98.47
407.812	151.72
408.02	196.78
408.229	207.02
408.438	211.11
408.646	254.12
408.855	237.74
409.064	194.73
409.272	194.73
409.481	266.41
409.69	342.18
409.898	262.31
410.107	256.17
410.315	346.28
410.524	211.11
410.733	247.97
410.941	295.08
411.15	333.99
411.358	301.22
411.567	342.18
411.775	368.81
411.984	352.42
412.192	432.29
412.401	393.38
412.609	475.3
412.818	420
413.026	424.1
413.234	532.64
413.443	477.35
413.651	415.91
413.86	546.98
414.068	602.27
414.276	536.74
414.485	510.11
414.693	561.31
414.901	659.62
415.11	612.51
415.318	694.43
415.526	612.51
415.734	710.82
415.943	733.34
416.151	725.15
416.359	714.91
416.567	802.97
416.776	821.41
416.984	819.36
417.192	815.26
417.4	864.41
417.608	995.48
417.817	860.32
418.025	981.15
418.233	1079.45
418.441	1011.87
418.649	1030.3
418.857	1114.27
419.065	1220.76
419.273	1058.97
419.481	1294.49
419.689	1280.15
419.897	1308.82
420.105	1302.68
420.313	1388.69
420.521	1376.41
420.729	1386.65
420.937	1513.62
421.145	1577.11
421.353	1626.26
421.561	1761.42
421.769	1671.31
421.977	1900.69
422.185	1845.39
422.393	1917.07
422.601	1937.55
422.809	1951.88
423.017	2099.34
423.224	2078.86
423.432	2105.48
423.64	2285.7
423.848	2408.58
424.056	2291.85
424.263	2541.7
424.471	2543.75
424.679	2617.47
424.887	2748.54
425.094	2791.55
425.302	2771.07
425.51	2875.52
425.718	3043.45
425.925	3033.21
426.133	3135.61
426.341	3238.01
426.548	3580.02
426.756	3412.09
426.964	3596.4
427.171	3684.47
427.379	3803.25
427.586	3950.7
427.794	3952.75
428.001	4192.36
428.209	4522.09
428.417	4307.05
428.624	4825.19
428.832	4632.68
429.039	4571.24
429.247	4548.71
429.454	4964.45
429.662	5269.59
429.869	5075.04
430.076	5328.99
430.284	5159
430.491	5486.68
430.699	5619.8
430.906	5673.04
431.114	5978.19
431.321	6264.91
431.528	6260.81
431.736	6617.16
431.943	6955.07
432.15	6781
432.358	6811.71
432.565	7411.77
432.772	7073.85
432.979	7581.75
433.187	7673.91
433.394	7608.37
433.601	8298.54
433.808	8103.98
434.016	8233.01
434.223	8542.25
434.43	9136.16
434.637	8869.92
434.844	9400.35
435.052	9742.36
435.259	9615.38
435.466	9742.36
435.673	9644.06
435.88	10250.25
436.087	10500.11
436.294	10860.55
436.501	10426.38
436.708	10782.73
436.915	10934.28
437.122	11565.05
437.329	11579.39
437.537	12023.8
437.743	12105.71
437.95	11886.58
438.157	12490.73
438.364	13025.25
438.571	12998.63
438.778	13015.01
438.985	14401.49
439.192	13770.71
439.399	14133.2
439.606	14079.96
439.813	14567.37
440.02	15577.02
440.227	15335.36
440.433	15112.13
440.64	15554.49
440.847	15601.6
441.054	15964.09
441.261	16990.12
441.467	16842.67
441.674	17399.71
441.881	17747.87
442.088	17684.38
442.294	17348.51
442.501	17897.37
442.708	18313.11
442.914	19099.53
443.121	19906.43
443.328	19281.8
443.534	20621.17
443.741	20205.43
443.948	19996.54
444.154	21501.79
444.361	21315.43
444.568	21307.24
444.774	21370.72
444.981	21645.15
445.187	22316.89
445.394	23322.44
445.6	23091.02
445.807	25268.01
446.013	23928.64
446.22	24635.19
446.426	26072.86
446.633	25990.94
446.839	26447.64
447.046	25296.68
447.252	26826.51
447.459	27283.21
447.665	26781.46
447.871	27881.22
448.078	29128.43
448.284	27907.84
448.491	28729.08
448.697	29621.99
448.903	30289.63
449.11	30191.33
449.316	29896.42
449.522	30740.18
449.728	31229.65
449.935	31514.31
450.141	31567.56
450.347	32276.16
450.553	31432.4
450.76	31723.21
450.966	32755.38
451.172	32566.97
451.378	33152.69
451.584	32331.45
451.791	33423.02
451.997	33089.2
452.203	33812.13
452.409	34082.47
452.615	33957.54
452.821	32521.91
453.027	32011.97
453.233	34053.8
453.44	32411.32
453.646	33132.21
453.852	32954.04
454.058	33658.54
454.264	32751.29
454.47	33377.97
454.676	32218.82
454.882	33431.21
455.088	30383.84
455.294	30865.11
455.5	31530.7
455.705	31674.06
455.911	30504.67
456.117	30021.34
456.323	29480.68
456.529	28534.52
456.735	29472.49
456.941	28423.93
457.147	28137.21
457.352	27275.02
457.558	27086.61
457.764	26910.48
457.97	26265.37
458.176	25857.82
458.381	25900.83
458.587	24735.54
458.793	24606.52
458.999	23336.77
459.204	24964.91
459.41	24287.03
459.616	22929.23
459.821	22806.35
460.027	22773.58
460.233	22536.02
460.438	21049.19
460.644	21276.52
460.85	20111.22
461.055	20072.31
461.261	20012.92
461.466	18532.24
461.672	17987.48
461.878	19062.66
462.083	17756.06
462.289	17680.28
462.494	17391.52
462.7	16699.31
462.905	16320.43
463.111	16553.9
463.316	16951.21
463.522	16306.1
463.727	16603.05
463.932	16498.61
464.138	16168.88
464.343	16385.97
464.549	15808.44
464.754	16539.57
464.959	16113.59
465.165	16252.85
465.37	15622.08
465.575	15185.86
465.781	15660.99
465.986	15710.14
466.191	15355.84
466.397	14981.06
466.602	14393.3
466.807	14634.96
467.012	14671.82
467.218	14583.76
467.423	14608.33
467.628	14378.96
467.833	15454.14
468.038	14591.95
468.244	14241.75
468.449	14831.56
468.654	14184.4
468.859	14141.39
469.064	13909.97
469.269	13432.8
469.474	13680.6
469.679	14213.07
469.885	13580.25
470.09	13711.32
470.295	13451.23
470.5	13262.82
470.705	13502.43
470.91	13203.43
471.115	12996.58
471.32	13168.61
471.525	13000.68
471.73	12560.36
471.935	12668.91
472.139	12263.41
472.344	12503.02
472.549	12206.06
472.754	12283.89
472.959	11763.7
473.164	11827.19
473.369	11368.45
473.574	12154.87
473.778	11859.96
473.983	11730.94
474.188	11978.74
474.393	11249.66
474.598	11386.88
474.802	11163.65
475.007	11184.13
475.212	10958.85
475.417	10809.35
475.621	10747.91
475.826	10688.52
476.031	10491.91
476.235	10299.41
476.44	10579.98
476.645	10149.9
476.849	10237.97
477.054	10162.19
477.259	9981.97
477.463	9920.53
477.668	9615.38
477.872	9787.41
478.077	9639.96
478.282	9422.87
478.486	9465.88
478.691	9199.65
478.895	9211.93
479.1	9140.26
479.304	9457.69
479.509	9041.95
479.713	9164.83
479.918	8798.24
480.122	8884.26
480.326	8867.88
480.531	8962.08
480.735	8732.71
480.94	8706.09
481.144	9058.34
481.348	8783.91
481.553	8716.33
481.757	8751.14
481.961	8779.81
482.166	8704.04
482.37	8691.75
482.574	8357.93
482.778	8427.56
482.983	8734.76
483.187	8568.87
483.391	8718.37
483.595	8622.12
483.8	8443.95
484.004	8435.75
484.208	8572.97
484.412	8400.94
484.616	8601.64
484.821	8407.08
485.025	8398.89
485.229	8615.98
485.433	8509.48
485.637	8476.71
485.841	8560.68
486.045	8452.14
486.249	8493.1
486.453	8284.2
486.657	8400.94
486.861	8722.47
487.065	8419.37
487.269	8380.46
487.473	8523.82
487.677	8720.42
487.881	8851.49
488.085	8448.04
488.289	8636.45
488.493	8546.34
488.697	8622.12
488.901	8734.76
489.105	8609.83
489.309	8652.84
489.512	8865.83
489.716	8554.54
489.92	8718.37
490.124	8589.35
490.328	8761.38
490.531	8532.01
490.735	8724.52
490.939	8767.52
491.143	8892.45
491.346	8806.44
491.55	8845.35
491.754	8998.95
491.958	9119.78
492.161	8908.83
492.365	9056.29
492.569	8894.5
492.772	8910.88
492.976	9013.28
493.18	9224.22
493.383	9164.83
493.587	9433.11
493.79	9101.34
493.994	9291.8
494.197	9547.8
494.401	9426.97
494.605	9455.64
494.808	9852.95
495.012	9621.53
495.215	9693.21
495.419	9562.14
495.622	9861.14
495.825	9986.07
496.029	9951.25
496.232	10055.7
496.436	10192.91
496.639	10403.85
496.843	10053.65
497.046	10377.23
497.249	10418.19
497.453	10725.38
497.656	10792.97
497.859	10688.52
498.063	10686.47
498.266	11182.08
498.469	10885.12
498.673	11292.67
498.876	11333.63
499.079	11413.5
499.282	11446.27
499.485	11741.18
499.689	11739.13
499.892	11907.06
500.095	12001.27
500.298	12140.53
500.501	11974.64
500.705	12400.62
500.908	12642.28
501.111	12574.7
501.314	12851.17
501.517	13096.93
501.72	13193.19
501.923	13021.16
502.126	13400.03
502.329	13572.06
502.532	13758.42
502.735	13678.55
502.938	13772.76
503.141	13948.89
503.344	14366.67
503.547	14444.49
503.75	14550.99
503.953	14839.75
504.156	14653.39
504.359	14882.76
504.562	15136.71
504.765	15278.02
504.968	15415.23
505.17	15816.63
505.373	15751.1
505.576	15992.76
505.779	16240.56
505.982	16209.84
506.185	16506.8
506.387	16615.34
506.59	16592.81
506.793	17192.87
506.996	16943.02
507.198	17663.9
507.401	17182.63
507.604	17682.33
507.807	17876.89
508.009	17938.33
508.212	18141.08
508.415	18511.76
508.617	18532.24
508.82	18755.47
509.022	18653.07
509.225	19197.83
509.428	19275.65
509.63	19470.21
509.833	19443.59
510.035	20043.64
510.238	19951.48
510.44	19982.2
510.643	20549.49
510.845	20651.89
511.048	20506.48
511.25	20948.84
511.453	20895.6
511.655	21653.34
511.858	21602.15
512.06	21444.45
512.262	22064.99
512.465	21778.27
512.667	22177.62
512.87	22681.42
513.072	22998.86
513.274	23111.5
513.477	23166.79
513.679	22994.76
513.881	23451.46
514.084	23832.38
514.286	23902.01
514.488	23951.17
514.69	24618.8
514.893	24704.82
515.095	24620.85
515.297	24987.44
515.499	25147.18
515.701	25425.7
515.904	25577.25
516.106	25900.83
516.308	25866.02
516.51	26273.56
516.712	26138.4
516.914	26664.72
517.116	26951.44
517.318	27346.7
517.52	27320.07
517.722	27121.42
517.925	27805.44
518.127	27858.69
518.329	28487.42
518.531	28036.86
518.733	29048.56
518.935	28673.78
519.136	28935.92
519.338	29112.05
519.54	29220.59
519.742	29560.55
519.944	29964
520.146	30131.93
520.348	30559.96
520.55	30543.58
520.752	30609.11
520.954	31471.31
521.155	30754.52
521.357	31344.33
521.559	31510.22
521.761	32147.14
521.963	31983.3
522.164	32173.76
522.366	32089.79
522.568	32839.35
522.77	32747.19
522.971	33240.75
523.173	33038
523.375	33453.74
523.576	33623.72
523.778	33486.51
523.98	33937.06
524.181	33681.06
524.383	34240.16
524.584	34465.44
524.786	34832.02
524.988	34492.06
525.189	34903.7
525.391	35024.53
525.592	35067.54
525.794	35425.93
525.995	35653.26
526.197	35456.65
526.398	35481.23
526.6	35786.38
526.801	35749.51
527.003	36173.44
527.204	36054.66
527.406	36294.27
527.607	36583.04
527.808	36761.21
528.01	35999.37
528.211	36624
528.412	37338.74
528.614	37209.71
528.815	37041.78
529.016	37426.8
529.218	36820.6
529.419	37254.77
529.62	37678.7
529.822	37615.21
530.023	37422.7
530.224	37566.06
530.425	37727.85
530.626	37604.97
530.828	37383.79
531.029	38033
531.23	37506.67
531.431	37549.68
531.632	38055.53
531.833	38178.4
532.035	38213.22
532.236	37897.83
532.437	38288.99
532.638	37885.54
532.839	38307.43
533.04	38108.77
533.241	37938.79
533.442	38860.38
533.643	38547.04
533.844	38411.87
534.045	38334.05
534.246	37965.42
534.447	38383.2
534.648	38227.56
534.849	38788.7
535.05	38174.31
535.251	38649.44
535.451	38000.23
535.652	38643.29
535.853	38504.03
536.054	38297.19
536.255	38800.99
536.456	38448.74
536.657	38653.53
536.857	38366.82
537.058	38164.07
537.259	38626.91
537.46	38520.41
537.66	38598.24
537.861	38387.3
538.062	38104.68
538.263	38694.49
538.463	38014.57
538.664	38090.34
538.865	38557.28
539.065	38704.73
539.266	38293.09
539.466	38452.83
539.667	38268.51
539.868	38602.33
540.068	38637.15
540.269	38293.09
540.469	39077.46
540.67	38211.17
540.87	38434.4
541.071	38438.5
541.271	38626.91
541.472	38395.49
541.672	38248.04
541.873	38254.18
542.073	37996.13
542.274	38628.96
542.474	38493.79
542.675	38211.17
542.875	38780.51
543.075	38520.41
543.276	38200.93
543.476	38985.3
543.676	38346.34
543.877	38544.99
544.077	38508.13
544.277	38327.91
544.478	38067.81
544.678	38477.41
544.878	38252.13
545.078	38463.07
545.279	38016.61
545.479	38164.07
545.679	38733.4
545.879	38270.56
546.079	38348.39
546.28	38270.56
546.48	38108.77
546.68	38008.42
546.88	38465.12
547.08	38178.4
547.28	38370.91
547.48	37981.8
547.68	38403.68
547.88	38166.12
548.081	38266.47
548.281	38291.04
548.481	37946.98
548.681	38340.19
548.881	38092.39
549.081	38182.5
549.28	37760.62
549.48	38522.46
549.68	37877.35
549.88	38481.5
550.08	37789.29
550.28	38338.15
550.48	37752.43
550.68	38137.44
550.88	38272.61
551.08	37987.94
551.279	38264.42
551.479	37781.1
551.679	37875.3
551.879	38147.68
552.079	37924.46
552.278	38026.85
552.478	37826.15
552.678	38211.17
552.878	38237.8
553.077	37584.49
553.277	37473.9
553.477	38211.17
553.676	37795.43
553.876	38180.45
554.076	37809.77
554.275	37447.28
554.475	37715.56
554.674	38211.17
554.874	37666.41
555.074	37424.75
555.273	37813.87
555.473	38039.14
555.672	37238.39
555.872	37537.39
556.071	37752.43
556.271	37568.11
556.47	37883.5
556.67	37238.39
556.869	37537.39
557.068	37596.78
557.268	36877.94
557.467	37166.71
557.667	37039.73
557.866	37336.69
558.065	37201.52
558.265	37295.73
558.464	37068.41
558.663	37379.7
558.863	37129.84
559.062	37391.98
559.261	36984.44
559.461	37154.42
559.66	36499.07
559.859	37099.12
560.058	36761.21
560.258	36988.53
560.457	36214.4
560.656	37011.06
560.855	36730.49
561.054	37006.97
561.253	36462.21
561.453	36478.59
561.652	36486.78
561.851	36632.19
562.05	36443.77
562.249	36345.47
562.448	36908.66
562.647	36374.14
562.846	36155.01
563.045	36482.69
563.244	35782.28
563.443	36630.14
563.642	35843.72
563.841	36411.01
564.04	35839.62
564.239	36112
564.438	35862.15
564.637	36101.76
564.836	35542.67
565.035	35344.02
565.234	35507.85
565.432	35638.92
565.631	35258
565.83	35464.85
566.029	35470.99
566.228	35319.44
566.427	35151.51
566.625	34821.78
566.824	34696.86
567.023	35073.68
567.222	34162.34
567.42	35090.07
567.619	35225.23
567.818	34754.2
568.016	34641.56
568.215	35114.64
568.414	34565.79
568.612	34557.6
568.811	34451.1
569.01	34549.4
569.208	34500.25
569.407	34698.91
569.605	33986.21
569.804	34322.08
570.002	34031.27
570.201	34502.3
570.4	34170.53
570.598	33961.64
570.797	33853.09
570.995	33851.05
571.193	33519.28
571.392	34082.47
571.59	33519.28
571.789	33541.8
571.987	33672.87
572.186	33619.63
572.384	33361.58
572.582	33435.31
572.781	33576.62
572.979	32794.29
573.177	33304.24
573.376	33078.96
573.574	32745.14
573.772	33242.8
573.971	32761.53
574.169	32581.31
574.367	32626.36
574.565	32728.76
574.763	32655.03
574.962	32429.76
575.16	32118.46
575.358	32384.7
575.556	32470.72
575.754	32728.76
575.952	31983.3
576.151	32091.84
576.349	32122.56
576.547	32075.46
576.745	31731.4
576.943	31639.24
577.141	31944.39
577.339	32054.98
577.537	31825.61
577.735	31442.63
577.933	31125.2
578.131	31657.67
578.329	31620.81
578.527	31342.28
578.725	31217.36
578.923	31383.24
579.121	31035.09
579.319	31250.13
579.516	31164.11
579.714	31180.49
579.912	30940.88
580.11	30965.46
580.308	30545.62
580.506	30772.95
580.704	30293.72
580.901	30303.96
581.099	30742.23
581.297	30441.18
581.495	30363.36
581.692	30680.79
581.89	30232.29
582.088	30283.48
582.285	29925.09
582.483	30529.24
582.681	30002.91
582.878	29947.62
583.076	29607.65
583.274	29906.66
583.471	29429.48
583.669	29628.13
583.866	29398.76
584.064	29601.51
584.262	29353.71
584.459	29153.01
584.657	29040.37
584.854	29376.23
585.052	29101.81
585.249	29116.14
585.447	29089.52
585.644	28757.75
585.841	28794.61
586.039	28919.54
586.236	28448.5
586.434	28641.01
586.631	28528.38
586.828	28595.96
587.026	28462.84
587.223	28331.77
587.42	28485.37
587.618	28548.86
587.815	28184.32
588.012	27977.47
588.21	27827.97
588.407	28303.1
588.604	28165.88
588.801	27770.63
588.999	27760.39
589.196	27698.95
589.393	27909.89
589.59	27553.54
589.787	27592.45
589.984	27287.31
590.182	27117.32
590.379	27287.31
590.576	27203.34
590.773	27152.14
590.97	27215.63
591.167	27037.45
591.364	26859.28
591.561	27184.91
591.758	26674.96
591.955	26631.96
592.152	26760.98
592.349	26308.38
592.546	26808.08
592.743	26545.94
592.94	26101.53
593.137	26154.78
593.334	26414.87
593.531	25870.11
593.727	26181.4
593.924	25919.26
594.121	25704.23
594.318	26060.57
594.515	25548.58
594.712	25788.19
594.908	25550.63
595.105	25630.5
595.302	25036.59
595.499	25376.55
595.696	25417.51
595.892	25169.71
596.089	25618.21
596.286	25204.52
596.482	25050.92
596.679	25061.16
596.876	24860.46
597.072	24835.89
597.269	24991.53
597.466	24870.7
597.662	24414.01
597.859	24565.56
598.055	24686.39
598.252	24383.29
598.448	24528.69
598.645	24409.91
598.841	24217.4
599.038	24450.87
599.234	24366.9
599.431	23914.3
599.627	23838.53
599.824	24237.88
600.02	23703.36
600.217	23666.5
600.413	23678.79
600.609	23588.67
600.806	23562.05
601.002	23623.49
601.198	23439.17
601.395	23420.74
601.591	23125.83
601.787	23410.5
601.984	22968.14
602.18	23369.54
602.376	22787.92
602.572	22865.74
602.769	22878.03
602.965	22755.15
603.161	22964.04
603.357	22662.99
603.553	22646.61
603.75	22669.14
603.946	22503.25
604.142	22595.41
604.338	22249.3
604.534	22583.12
604.73	22345.56
604.926	22003.55
605.122	22370.13
605.318	22404.95
605.514	21870.43
605.71	21952.35
605.906	22310.74
606.102	22091.61
606.298	21811.04
606.494	21864.29
606.69	21720.93
606.886	21657.44
607.082	21530.47
607.278	21722.98
607.474	21253.99
607.67	21802.85
607.866	21477.22
608.062	21372.77
608.257	21245.8
608.453	21569.38
608.649	21444.45
608.845	21182.31
609.041	21036.91
609.236	21190.5
609.432	21272.42
609.628	21360.48
609.824	21108.58
610.019	21063.53
610.215	21020.52
610.411	20987.75
610.606	21071.72
610.802	21022.57
610.998	20672.37
611.193	20594.54
611.389	20574.06
611.584	20879.21
611.78	20717.42
611.976	20676.46
612.171	20637.55
612.367	20553.59
612.562	20440.95
612.758	20342.64
612.953	20162.42
613.149	20545.39
613.344	20455.28
613.539	20727.66
613.735	20242.29
613.93	20248.44
614.126	20363.12
614.321	20287.35
614.517	20404.08
614.712	20475.76
614.907	20205.43
615.103	20119.42
615.298	20168.57
615.493	20369.27
615.688	19838.84
615.884	20217.72
616.079	19855.23
616.274	19890.04
616.47	20094.84
616.665	19801.98
616.86	19797.88
617.055	19853.18
617.25	19705.73
617.445	19396.48
617.641	19623.81
617.836	19498.88
618.031	19394.43
618.226	19693.44
618.421	19511.17
618.616	19537.79
618.811	19199.88
619.006	19890.04
619.201	18888.59
619.396	19046.28
619.591	18841.48
619.786	19451.78
619.981	18837.39
620.176	19031.94
620.371	18616.21
620.566	18847.63
620.761	18581.39
620.956	18870.15
621.151	18298.77
621.346	18605.97
621.541	18186.13
621.735	18259.86
621.93	18134.93
622.125	18257.81
622.32	17844.12
622.515	18007.96
622.709	17676.19
622.904	17907.61
623.099	17600.41
623.294	17704.86
623.488	17139.62
623.683	17391.52
623.878	17190.82
624.072	17330.08
624.267	17266.6
624.462	16996.26
624.656	16926.63
624.851	17057.7
625.046	16920.49
625.24	16971.69
625.435	16302
625.629	16451.5
625.824	16490.42
626.018	16560.05
626.213	16318.39
626.407	16195.51
626.602	16162.74
626.796	16170.93
626.991	16007.09
627.185	16218.04
627.38	15720.38
627.574	15484.86
627.768	15552.45
627.963	15706.04
628.157	15245.25
628.352	15351.74
628.546	15210.43
628.74	15294.4
628.935	15022.02
629.129	14976.97
629.323	14960.58
629.517	14731.21
629.712	14948.29
629.906	14901.19
630.1	14471.12
630.294	14610.38
630.489	14520.27
630.683	14741.45
630.877	14245.84
631.071	14129.11
631.265	14292.94
631.459	14264.27
631.653	14145.49
631.848	14063.57
632.042	14059.48
632.236	14090.2
632.43	13535.2
632.624	13885.4
632.818	13637.59
633.012	13598.68
633.206	13330.4
633.4	13594.59
633.594	13445.09
633.788	13381.6
633.982	13318.11
634.176	13342.69
634.369	13213.67
634.563	12974.05
634.757	12851.17
634.951	12988.39
635.145	12779.5
635.339	12859.37
635.533	12660.71
635.726	12730.34
635.92	12617.71
636.114	12599.27
636.308	12513.26
636.501	12507.12
636.695	12265.46
636.889	12412.91
637.083	12337.13
637.276	12056.56
637.47	12031.99
637.664	12206.06
637.857	12044.27
638.051	12058.61
638.244	11907.06
638.438	11689.98
638.632	11722.74
638.825	11724.79
639.019	11632.63
639.212	11505.66
639.406	11390.97
639.599	11630.59
639.793	11364.35
639.986	11124.74
640.18	11323.39
640.373	11184.13
640.567	11102.21
640.76	11337.73
640.954	11096.07
641.147	10917.89
641.34	10975.24
641.534	10844.17
641.727	10704.9
641.92	10749.96
642.114	10567.69
642.307	10516.49
642.5	10690.57
642.694	10665.99
642.887	10522.63
643.08	10702.86
643.273	10366.99
643.467	10633.22
643.66	10287.12
643.853	10283.02
644.046	10313.74
644.239	10512.39
644.432	10039.31
644.626	10108.94
644.819	9986.07
645.012	9773.08
645.205	9883.67
645.398	9916.44
645.591	9836.56
645.784	9824.28
645.977	9818.13
646.17	9617.43
646.363	9517.08
646.556	9523.23
646.749	9666.58
646.942	9572.38
647.135	9472.03
647.328	9347.1
647.521	9349.15
647.714	9261.09
647.907	9424.92
648.099	9150.5
648.292	9078.82
648.485	9080.86
648.678	8966.18
648.871	9144.35
649.064	8790.05
649.256	8826.92
649.449	8831.01
649.642	8902.69
649.835	8886.31
650.027	8745
650.22	8765.48
650.413	8577.06
650.605	8585.26
650.798	8443.95
650.991	8411.18
651.183	8658.98
651.376	8337.45
651.568	8304.68
651.761	8491.05
651.954	8249.39
652.146	8325.16
652.339	8417.32
652.531	8312.88
652.724	8175.66
652.916	8048.69
653.109	8099.89
653.301	8179.76
653.494	7991.34
653.686	7866.42
653.879	7985.2
654.071	7897.14
654.263	7807.03
654.456	7962.67
654.648	7913.52
654.84	7745.59
655.033	7536.7
655.225	7624.76
655.417	7649.33
655.61	7675.96
655.802	7667.77
655.994	7530.55
656.186	7383.1
656.379	7452.73
656.571	7295.04
656.763	7358.52
656.955	7401.53
657.148	7450.68
657.34	7497.78
657.532	7024.7
657.724	7247.93
657.916	7069.76
658.108	7186.49
658.3	7049.28
658.492	6875.2
658.684	6948.93
658.876	7030.85
659.068	6920.26
659.26	6912.07
659.452	6961.22
659.644	6858.82
659.836	6740.04
660.028	6891.59
660.22	6723.65
660.412	6684.74
660.604	6635.59
660.796	6586.44
660.988	6676.55
661.18	6637.64
661.372	6412.36
661.563	6455.37
661.755	6451.27
661.947	6365.26
662.139	6371.4
662.331	6445.13
662.522	6099.02
662.714	6291.53
662.906	6361.16
663.097	6185.04
663.289	6178.89
663.481	6223.95
663.673	6295.63
663.864	6160.46
664.056	6127.69
664.247	6223.95
664.439	5970
664.631	5959.76
664.822	5996.62
665.014	6010.96
665.205	5904.46
665.397	5857.36
665.588	5773.39
665.78	5845.07
665.971	5994.58
666.163	5816.4
666.354	5859.41
666.546	5689.43
666.737	5699.67
666.929	5632.08
667.12	5879.89
667.311	5691.48
667.503	5531.73
667.694	5662.8
667.885	5498.97
668.077	5584.98
668.268	5406.81
668.459	5427.29
668.651	5537.88
668.842	5468.25
669.033	5478.49
669.224	5271.64
669.416	5529.69
669.607	5288.03
669.798	5238.87
669.989	5384.28
670.18	5400.66
670.371	5290.07
670.563	5242.97
670.754	5406.81
670.945	5107.8
671.136	5277.79
671.327	5089.37
671.518	5124.19
671.709	5265.5
671.9	5191.77
672.091	5167.2
672.282	5064.8
672.473	5052.51
672.664	5152.86
672.855	5003.36
673.046	5091.42
673.237	4956.26
673.428	4999.26
673.619	4876.38
673.809	4982.88
674	4782.18
674.191	5001.31
674.382	4909.15
674.573	4939.87
674.764	4831.33
674.954	4960.35
675.145	4876.38
675.336	4649.06
675.527	4710.5
675.717	4724.83
675.908	4718.69
676.099	4726.88
676.289	4857.95
676.48	4704.35
676.671	4690.02
676.861	4726.88
677.052	4628.58
677.243	4655.2
677.433	4632.68
677.624	4597.86
677.814	4479.08
678.005	4587.62
678.195	4620.39
678.386	4585.57
678.576	4477.03
678.767	4581.48
678.957	4407.4
679.148	4573.28
679.338	4628.58
679.529	4542.57
679.719	4532.33
679.909	4532.33
680.1	4575.33
680.29	4571.24
680.481	4481.13
680.671	4589.67
680.861	4290.67
681.052	4450.41
681.242	4440.17
681.432	4415.59
681.622	4317.29
681.813	4307.05
682.003	4444.26
682.193	4354.15
682.383	4374.63
682.573	4360.3
682.764	4343.91
682.954	4419.69
683.144	4405.35
683.334	4190.31
683.524	4419.69
683.714	4274.28
683.904	4204.65
684.094	4257.9
684.284	4292.71
684.474	4212.84
684.664	4159.6
684.854	4239.47
685.044	4261.99
685.234	4161.64
685.424	4241.51
685.614	4089.96
685.804	4079.72
685.994	4175.98
686.184	4135.02
686.374	4159.6
686.564	4014.19
686.753	4165.74
686.943	3971.18
687.133	4010.09
687.323	4169.84
687.513	4032.62
687.702	3973.23
687.892	4057.2
688.082	3960.94
688.272	4024.43
688.461	4040.81
688.651	3971.18
688.841	3807.34
689.03	3928.17
689.22	3913.84
689.41	3774.58
689.599	3850.35
689.789	3741.81
689.979	3825.78
690.168	3651.7
690.358	3864.69
690.547	3577.97
690.737	3625.08
690.926	3756.15
691.116	3620.98
691.305	3735.67
691.495	3633.27
691.684	3547.25
691.874	3790.96
692.063	3666.03
692.252	3491.96
692.442	3594.36
692.631	3485.81
692.82	3469.43
693.01	3438.71
693.199	3498.1
693.388	3401.85
693.578	3436.66
693.767	3453.05
693.956	3457.14
694.146	3354.74
694.335	3350.65
694.524	3414.13
694.713	3428.47
694.902	3364.98
695.092	3291.26
695.281	3285.11
695.47	3407.99
695.659	3307.64
695.848	3315.83
696.037	3303.54
696.226	3225.72
696.415	3332.22
696.604	3397.75
696.793	3149.95
696.982	3139.71
697.171	3205.24
697.36	3203.19
697.549	3240.06
697.738	3147.9
697.927	3049.6
698.116	3242.11
698.305	3063.93
698.494	3170.43
698.683	3182.71
698.872	3242.11
699.061	3164.28
699.25	3215.48
699.438	3158.14
699.627	3195
699.816	3139.71
700.005	3225.72
700.193	3063.93
700.382	3108.99
700.571	3078.27
700.76	3080.32
700.948	3104.89
701.137	3084.41
701.326	2941.05
701.514	2986.11
701.703	2965.63
701.892	3088.51
702.08	2916.48
702.269	3016.83
702.457	3018.88
702.646	3133.56
702.834	3070.08
703.023	3098.75
703.212	2988.16
703.4	3027.07
703.589	3072.12
703.777	3068.03
703.965	3106.94
704.154	3000.44
704.342	2934.91
704.531	3008.64
704.719	2859.14
704.907	2973.82
705.096	2939.01
705.284	3012.73
705.472	2963.58
705.661	2982.01
705.849	3006.59
706.037	3078.27
706.226	3047.55
706.414	3070.08
706.602	2971.77
706.79	3125.37
706.979	2898.05
707.167	2992.25
707.355	2918.53
707.543	2990.21
707.731	2994.3
707.919	3043.45
708.107	2863.23
708.296	2926.72
708.484	2996.35
708.672	2990.21
708.86	2926.72
709.048	2891.9
709.236	2928.77
709.424	3084.41
709.612	3004.54
709.8	2881.66
709.988	2986.11
710.176	2918.53
710.364	2973.82
710.551	2871.42
710.739	2863.23
710.927	3008.64
711.115	2969.73
711.303	2881.66
711.491	2875.52
711.679	3027.07
711.866	2898.05
712.054	2846.85
712.242	2889.85
712.43	3037.31
712.617	3027.07
712.805	2914.43
712.993	2875.52
713.181	2912.38
713.368	2949.25
713.556	2973.82
713.744	2850.94
713.931	2838.66
714.119	2977.92
714.306	2982.01
714.494	2832.51
714.682	2910.33
714.869	2777.22
715.057	2881.66
715.244	2967.68
715.432	2945.15
715.619	2914.43
715.807	2824.32
715.994	2816.13
716.182	2889.85
716.369	2902.14
716.556	2797.7
716.744	2824.32
716.931	2953.34
717.119	2936.96
717.306	2941.05
717.493	2904.19
717.681	2898.05
717.868	2898.05
718.055	2979.97
718.242	2832.51
718.43	3039.36
718.617	2904.19
718.804	2861.18
718.991	2939.01
719.179	3006.59
719.366	2898.05
719.553	2963.58
719.74	2859.14
719.927	2926.72
720.114	2875.52
720.301	2932.86
720.488	2832.51
720.676	2840.7
720.863	2795.65
721.05	2877.57
721.237	2816.13
721.424	2928.77
721.611	3025.02
721.798	2785.41
721.985	2879.61
722.172	2848.9
722.358	2900.09
722.545	2941.05
722.732	2756.74
722.919	2932.86
723.106	2930.81
723.293	2920.57
723.48	2805.89
723.667	2861.18
723.853	2908.29
724.04	2926.72
724.227	2865.28
724.414	2992.25
724.6	2850.94
724.787	2719.87
724.974	2912.38
725.161	2939.01
725.347	2934.91
725.534	2932.86
725.72	2822.27
725.907	2865.28
726.094	2857.09
726.28	2875.52
726.467	2887.81
726.653	2914.43
726.84	2846.85
727.027	3037.31
727.213	2865.28
727.4	2869.37
727.586	2883.71
727.773	2996.35
727.959	2797.7
728.145	2807.94
728.332	2846.85
728.518	2953.34
728.705	2906.24
728.891	2953.34
729.077	2830.46
729.264	2703.49
729.45	2809.98
729.636	2865.28
729.823	2924.67
730.009	2863.23
730.195	2773.12
730.382	2881.66
730.568	2955.39
730.754	2801.79
730.94	2863.23
731.126	2869.37
731.313	2918.53
731.499	2887.81
731.685	2842.75
731.871	2859.14
732.057	2914.43
732.243	2896
732.429	2928.77
732.615	2908.29
732.801	2883.71
732.987	2779.26
733.173	2875.52
733.359	2891.9
733.545	2771.07
733.731	2816.13
733.917	2848.9
734.103	2891.9
734.289	2918.53
734.475	2881.66
734.661	2941.05
734.847	2861.18
735.033	2795.65
735.219	2814.08
735.404	2918.53
735.59	2805.89
735.776	2805.89
735.962	2857.09
736.148	2840.7
736.333	2728.07
736.519	2740.35
736.705	2820.22
736.89	2756.74
737.076	2859.14
737.262	2789.5
737.447	2744.45
737.633	2814.08
737.819	2812.03
738.004	2789.5
738.19	2834.56
738.375	2654.34
738.561	2783.36
738.747	2568.32
738.932	2668.67
739.118	2683.01
739.303	2648.19
739.489	2728.07
739.674	2668.67
739.859	2713.73
740.045	2756.74
740.23	2726.02
740.416	2590.85
740.601	2607.23
740.786	2777.22
740.972	2717.83
741.157	2656.39
741.342	2683.01
741.528	2644.1
741.713	2689.15
741.898	2683.01
742.084	2562.18
742.269	2666.63
742.454	2611.33
742.639	2549.89
742.824	2580.61
743.01	2498.69
743.195	2592.9
743.38	2525.32
743.565	2609.28
743.75	2476.16
743.935	2424.97
744.12	2422.92
744.305	2447.49
744.49	2384.01
744.675	2467.97
744.86	2365.57
745.045	2465.93
745.23	2355.33
745.415	2420.87
745.6	2500.74
745.785	2347.14
745.97	2453.64
746.155	2435.21
746.34	2318.47
746.525	2347.14
746.71	2435.21
746.895	2353.29
747.079	2345.09
747.264	2285.7
747.449	2238.6
747.634	2390.15
747.819	2336.9
748.003	2390.15
748.188	2285.7
748.373	2193.55
748.557	2201.74
748.742	2205.83
748.927	2189.45
749.111	2035.85
749.296	2271.37
749.481	2214.02
749.665	2140.3
749.85	2105.48
750.034	2164.87
750.219	2046.09
750.404	1992.84
750.588	2138.25
750.773	2082.95
750.957	2005.13
751.141	2173.07
751.326	1992.84
751.51	2042
751.695	1974.41
751.879	1996.94
752.064	1970.32
752.248	1935.5
752.432	1943.69
752.617	1941.65
752.801	1972.36
752.985	1867.92
753.17	1888.4
753.354	2001.04
753.538	1876.11
753.722	1788.05
753.907	1853.58
754.091	1853.58
754.275	1781.9
754.459	1777.81
754.643	1765.52
754.828	1837.2
755.012	1794.19
755.196	1726.61
755.38	1734.8
755.564	1667.22
755.748	1732.75
755.932	1677.46
756.116	1706.13
756.3	1763.47
756.484	1687.7
756.668	1648.79
756.852	1616.02
757.036	1583.25
757.22	1591.44
757.404	1568.91
757.588	1544.34
757.772	1599.63
757.956	1642.64
758.14	1591.44
758.323	1478.8
758.507	1458.32
758.691	1521.81
758.875	1609.87
759.059	1566.87
759.242	1525.91
759.426	1493.14
759.61	1370.26
759.794	1437.84
759.977	1454.23
760.161	1489.04
760.345	1556.63
760.528	1489.04
760.712	1448.08
760.895	1460.37
761.079	1333.4
761.263	1456.28
761.446	1466.52
761.63	1380.5
761.813	1366.17
761.997	1452.18
762.18	1376.41
762.364	1345.69
762.547	1274.01
762.731	1300.63
762.914	1347.73
763.098	1349.78
763.281	1278.1
763.464	1306.77
763.648	1263.77
763.831	1288.34
764.015	1265.82
764.198	1267.86
764.381	1323.16
764.564	1261.72
764.748	1282.2
764.931	1204.38
765.114	1202.33
765.297	1187.99
765.481	1185.94
765.664	1257.62
765.847	1130.65
766.03	1251.48
766.213	1161.37
766.397	1216.66
766.58	1063.07
766.763	1216.66
766.946	1194.14
767.129	1190.04
767.312	1173.66
767.495	1216.66
767.678	1165.46
767.861	1185.94
768.044	1218.71
768.227	1144.99
768.41	1114.27
768.593	1085.59
768.776	1128.6
768.959	1106.07
769.142	1099.93
769.324	1153.18
769.507	1167.51
769.69	1073.31
769.873	1061.02
770.056	1013.92
770.239	1050.78
770.421	1028.25
770.604	1028.25
770.787	962.72
770.97	1081.5
771.152	985.24
771.335	1061.02
771.518	1009.82
771.7	1061.02
771.883	1077.4
772.066	1011.87
772.248	1036.44
772.431	1015.96
772.613	991.39
772.796	972.96
772.978	944.28
773.161	958.62
773.343	975
773.526	964.76
773.708	977.05
773.891	964.76
774.073	891.04
774.256	917.66
774.438	958.62
774.621	946.33
774.803	944.28
774.985	854.17
775.168	854.17
775.35	888.99
775.532	854.17
775.715	907.42
775.897	917.66
776.079	874.65
776.261	919.71
776.444	915.61
776.626	909.47
776.808	786.59
776.99	874.65
777.173	936.09
777.355	833.69
777.537	772.25
777.719	878.75
777.901	888.99
778.083	815.26
778.265	786.59
778.447	741.54
778.629	704.67
778.811	739.49
778.993	813.21
779.175	762.02
779.357	802.97
779.539	733.34
779.721	751.78
779.903	702.62
780.085	692.38
780.267	708.77
780.449	702.62
780.631	716.96
780.812	663.71
780.994	665.76
781.176	581.79
781.358	659.62
781.54	729.25
781.721	649.38
781.903	610.47
782.085	583.84
782.267	628.9
782.448	546.98
782.63	549.03
782.812	637.09
782.993	585.89
783.175	649.38
783.357	577.7
783.538	651.42
783.72	628.9
783.901	618.66
784.083	575.65
784.264	583.84
784.446	626.85
784.627	520.35
784.809	499.88
784.99	581.79
785.172	604.32
785.353	589.99
785.535	553.12
785.716	518.31
785.897	538.79
786.079	518.31
786.26	506.02
786.441	544.93
786.623	495.78
786.804	510.11
786.985	542.88
787.167	483.49
787.348	471.2
787.529	485.54
787.71	551.07
787.891	450.72
788.073	389.28
788.254	424.1
788.435	495.78
788.616	561.31
788.797	463.01
788.978	440.48
789.159	491.68
789.34	522.4
789.522	417.96
789.703	432.29
789.884	428.2
790.065	436.39
790.246	422.05
790.427	452.77
790.607	499.88
790.788	432.29
790.969	422.05
791.15	407.72
791.331	379.04
791.512	432.29
791.693	436.39
791.874	420
792.054	381.09
792.235	499.88
792.416	368.81
792.597	358.57
792.778	450.72
792.958	415.91
793.139	348.33
793.32	346.28
793.5	424.1
793.681	432.29
793.862	383.14
794.042	360.61
794.223	448.68
794.404	391.33
794.584	395.43
794.765	362.66
794.945	370.85
795.126	444.58
795.306	368.81
795.487	344.23
795.667	329.89
795.848	438.44
796.028	364.71
796.209	395.43
796.389	344.23
796.57	288.93
796.75	377
796.93	342.18
797.111	313.51
797.291	313.51
797.471	344.23
797.652	276.65
797.832	282.79
798.012	377
798.192	303.27
798.373	368.81
798.553	333.99
798.733	315.56
798.913	350.37
799.093	254.12
799.274	301.22
799.454	323.75
799.634	368.81
799.814	301.22
799.994	305.32
800.174	309.41
800.354	313.51
800.534	317.61
800.714	315.56
800.894	272.55
801.074	274.6
801.254	321.7
801.434	313.51
801.614	286.89
801.794	313.51
801.974	661.66
802.154	286.89
802.334	262.31
802.514	245.93
802.693	252.07
802.873	260.26
803.053	290.98
803.233	299.17
803.413	258.21
803.592	231.59
803.772	262.31
803.952	284.84
804.131	239.78
804.311	268.45
804.491	295.08
804.67	231.59
804.85	254.12
805.03	311.46
805.209	258.21
805.389	227.5
805.568	221.35
805.748	157.86
805.928	256.17
806.107	221.35
806.287	250.02
806.466	209.06
806.646	293.03
806.825	262.31
807.004	176.3
807.184	305.32
807.363	229.54
807.543	245.93
807.722	268.45
807.901	260.26
808.081	274.6
808.26	131.24
808.439	235.69
808.619	213.16
808.798	198.82
808.977	262.31
809.156	301.22
809.336	174.25
809.515	282.79
809.694	188.58
809.873	200.87
810.052	260.26
810.231	256.17
810.411	151.72
810.59	231.59
810.769	211.11
810.948	207.02
811.127	166.06
811.306	121
811.485	229.54
811.664	149.67
811.843	153.77
812.022	116.9
812.201	149.67
812.38	209.06
812.559	227.5
812.737	182.44
812.916	245.93
813.095	157.86
813.274	237.74
813.453	209.06
813.632	202.92
813.811	194.73
813.989	88.23
814.168	172.2
814.347	161.96
814.526	172.2
814.704	121
814.883	168.1
815.062	151.72
815.24	239.78
815.419	178.34
815.598	221.35
815.776	133.29
815.955	215.21
816.133	147.62
816.312	213.16
816.49	106.67
816.669	174.25
816.847	86.19
817.026	254.12
817.204	110.76
817.383	141.48
817.561	178.34
817.74	151.72
817.918	145.58
818.097	202.92
818.275	207.02
818.453	200.87
818.632	184.49
818.81	116.9
818.988	202.92
819.167	166.06
819.345	86.19
819.523	223.4
819.701	116.9
819.879	151.72
820.058	90.28
820.236	194.73
820.414	168.1
820.592	112.81
820.77	180.39
820.948	98.47
821.127	125.1
821.305	166.06
821.483	80.04
821.661	145.58
821.839	98.47
822.017	198.82
822.195	139.43
822.373	151.72
822.551	153.77
822.729	166.06
822.907	178.34
823.085	155.82
823.262	135.34
823.44	86.19
823.618	149.67
823.796	133.29
823.974	100.52
824.152	174.25
824.329	43.18
824.507	110.76
824.685	121
824.863	129.19
825.04	133.29
825.218	135.34
825.396	157.86
825.574	157.86
825.751	178.34
825.929	172.2
826.107	153.77
826.284	41.13
826.462	112.81
826.639	112.81
826.817	90.28
826.994	184.49
827.172	88.23
827.349	63.66
827.527	141.48
827.704	116.9
827.882	123.05
828.059	94.38
828.237	82.09
828.414	90.28
828.591	108.71
828.769	69.8
828.946	123.05
829.124	225.45
829.301	129.19
829.478	131.24
829.655	118.95
829.833	147.62
830.01	82.09
830.187	184.49
830.364	123.05
830.542	90.28
830.719	161.96
830.896	135.34
831.073	30.89
831.25	129.19
831.427	92.33
831.604	39.08
831.782	116.9
831.959	80.04
832.136	73.9
832.313	47.27
832.49	39.08
832.667	51.37
832.844	47.27
833.021	178.34
833.198	59.56
833.374	123.05
833.551	145.58
833.728	39.08
833.905	106.67
834.082	57.51
834.259	98.47
834.436	43.18
834.612	143.53
834.789	80.04
834.966	141.48
835.143	116.9
835.319	84.14
835.496	82.09
835.673	53.42
835.85	137.38
836.026	102.57
836.203	71.85
836.38	129.19
836.556	121
836.733	77.99
836.909	123.05
837.086	84.14
837.262	8.36
837.439	8.36
837.616	84.14
837.792	51.37
837.968	88.23
838.145	116.9
838.321	28.84
838.498	106.67
838.674	-12.12
838.851	106.67
839.027	37.03
839.203	104.62
839.38	92.33
839.556	61.61
839.732	75.95
839.909	141.48
840.085	94.38
840.261	32.94
840.437	-10.07
840.614	80.04
840.79	47.27
840.966	77.99
841.142	75.95
841.318	14.51
841.494	77.99
841.671	145.58
841.847	104.62
842.023	80.04
842.199	67.75
842.375	12.46
842.551	8.36
842.727	28.84
842.903	102.57
843.079	75.95
843.255	75.95
843.431	100.52
843.607	153.77
843.783	-34.64
843.959	43.18
844.134	80.04
844.31	98.47
844.486	51.37
844.662	6.31
844.838	84.14
845.013	61.61
845.189	53.42
845.365	12.46
845.541	75.95
845.716	47.27
845.892	51.37
846.068	43.18
846.244	2.22
846.419	77.99
846.595	63.66
846.77	-16.21
846.946	104.62
847.122	0.17
847.297	16.55
847.473	28.84
847.648	6.31
847.824	84.14
847.999	-8.02
848.175	55.47
848.35	-24.4
848.526	49.32
848.701	69.8
848.876	108.71
849.052	41.13
849.227	-34.64
849.403	108.71
849.578	30.89
849.753	59.56
849.929	63.66
850.104	8.36
850.279	8.36
850.454	28.84
850.63	53.42
850.805	8.36
850.98	14.51
851.155	67.75
851.33	22.7
851.505	-28.5
851.681	24.75
851.856	37.03
852.031	53.42
852.206	82.09
852.381	37.03
852.556	6.31
852.731	69.8
852.906	75.95
853.081	4.27
853.256	28.84
853.431	125.1
853.606	20.65
853.781	86.19
853.956	69.8
854.131	86.19
854.305	18.6
854.48	-46.93
854.655	71.85
854.83	47.27
855.005	16.55
855.18	24.75
855.354	4.27
855.529	57.51
855.704	-63.32
855.879	100.52
856.053	-30.55
856.228	34.99
856.403	30.89
856.577	73.9
856.752	37.03
856.926	2.22
857.101	-5.97
857.276	32.94
857.45	63.66
857.625	59.56
857.799	-16.21
857.974	47.27
858.148	-20.31
858.323	30.89
858.497	-16.21
858.672	55.47
858.846	20.65
859.02	28.84
859.195	-10.07
859.369	-10.07
859.543	6.31
859.718	34.99
859.892	10.41
860.066	-36.69
860.241	-1.88
860.415	24.75
860.589	45.23
860.763	34.99
860.938	20.65
861.112	53.42
861.286	39.08
861.46	12.46
861.634	30.89
861.808	92.33
861.982	-26.45
862.157	14.51
862.331	-51.03
862.505	-22.36
862.679	32.94
862.853	94.38
863.027	55.47
863.201	106.67
863.375	37.03
863.549	-18.26
863.722	-22.36
863.896	28.84
864.07	10.41
864.244	53.42
864.418	2.22
864.592	43.18
864.766	88.23
864.939	51.37
865.113	16.55
865.287	53.42
865.461	30.89
865.634	39.08
865.808	-3.93
865.982	43.18
866.156	39.08
866.329	45.23
866.503	55.47
866.676	65.71
866.85	-5.97
867.024	63.66
867.197	-1.88
867.371	47.27
867.544	51.37
867.718	4.27
867.891	14.51
868.065	-32.6
868.238	-14.17
868.412	61.61
868.585	-5.97
868.759	-14.17
868.932	-16.21
869.105	43.18
869.279	-24.4
869.452	41.13
869.625	75.95
869.799	30.89
869.972	14.51
870.145	-1.88
870.319	96.43
870.492	-36.69
870.665	6.31
870.838	22.7
871.011	4.27
871.185	20.65
871.358	34.99
871.531	10.41
871.704	4.27
871.877	55.47
872.05	-44.88
872.223	-46.93
872.396	-3.93
872.569	63.66
872.742	-28.5
872.915	14.51
873.088	34.99
873.261	-12.12
873.434	63.66
873.607	59.56
873.78	71.85
873.953	69.8
874.126	45.23
874.299	65.71
874.471	20.65
874.644	55.47
874.817	-26.45
874.99	110.76
875.163	-59.22
875.335	14.51
875.508	-10.07
875.681	-30.55
875.853	14.51
876.026	-5.97
876.199	-20.31
876.371	51.37
876.544	-20.31
876.717	39.08
876.889	16.55
877.062	-14.17
877.234	-26.45
877.407	39.08
877.579	8.36
877.752	10.41
877.924	-18.26
878.097	24.75
878.269	16.55
878.442	8.36
878.614	10.41
878.786	63.66
878.959	-34.64
879.131	-26.45
879.303	-40.79
879.476	43.18
879.648	16.55
879.82	65.71
879.993	14.51
880.165	4.27
880.337	-63.32
880.509	4.27
880.681	67.75
880.854	104.62
881.026	-3.93
881.198	61.61
881.37	-3.93
881.542	16.55
881.714	-55.12
881.886	67.75
882.058	34.99
882.23	0.17
882.402	77.99
882.574	104.62
882.746	47.27
882.918	116.9
883.09	2.22
883.262	20.65
883.434	102.57
883.606	-18.26
883.778	71.85
883.95	61.61
884.122	-22.36
884.293	-16.21
884.465	51.37
884.637	26.79
884.809	16.55
884.98	30.89
885.152	-1.88
885.324	16.55
885.496	59.56
885.667	20.65
885.839	-1.88
886.011	26.79
886.182	8.36
886.354	24.75
886.525	16.55
886.697	22.7
886.869	-65.36
887.04	-10.07
887.212	30.89
887.383	80.04
887.555	-14.17
887.726	55.47
887.897	51.37
888.069	24.75
888.24	45.23
888.412	49.32
888.583	-1.88
888.754	16.55
888.926	-38.74
889.097	32.94
889.268	-87.89
889.44	37.03
889.611	-20.31
889.782	71.85
889.953	-89.94
890.125	69.8
890.296	12.46
890.467	10.41
890.638	-10.07
890.809	-30.55
890.98	75.95
891.151	61.61
891.323	-61.27
891.494	10.41
891.665	8.36
891.836	34.99
892.007	20.65
892.178	6.31
892.349	-10.07
892.52	2.22
892.691	18.6
892.862	-46.93
893.032	-20.31
893.203	-5.97
893.374	10.41
893.545	53.42
893.716	30.89
893.887	-12.12
894.057	10.41
894.228	51.37
894.399	-36.69
894.57	59.56
894.74	2.22
894.911	8.36
895.082	34.99
895.253	28.84
895.423	49.32
895.594	63.66
895.764	18.6
895.935	-24.4
896.106	-24.4
896.276	-8.02
896.447	14.51
896.617	-42.84
896.788	-36.69
896.958	-57.17
897.129	-65.36
897.299	16.55
897.47	22.7
897.64	4.27
897.81	10.41
897.981	-98.13
898.151	20.65
898.322	55.47
898.492	43.18
898.662	0.17
898.832	-67.41
899.003	16.55
899.173	-34.64
899.343	10.41
899.513	-38.74
