Data from USB4F104151__95__12-28-18-668.txt Node

Date: Fri Mar 14 12:28:18 EDT 2025
User: louis
Spectrometer: USB4F10415
Trigger mode: 4
Integration Time (sec): 2.000000E-2
Scans to average: 1
Electric dark correction enabled: true
Nonlinearity correction enabled: false
Boxcar width: 0
XAxis mode: Wavelengths
Number of Pixels in Spectrum: 3648
>>>>>Begin Spectral Data<<<<<
178.204	-103.59
178.424	-103.59
178.644	-103.59
178.864	-111.78
179.084	-50.35
179.304	7
179.524	54.1
179.744	-3.24
179.964	52.05
180.184	-64.68
180.404	-7.34
180.624	2.9
180.844	2.9
181.064	-1.19
181.283	-9.39
181.503	-11.43
181.723	-21.67
181.943	0.85
182.163	99.16
182.383	33.62
182.602	0.85
182.822	76.63
183.042	45.91
183.262	-66.73
183.482	37.72
183.701	21.33
183.921	-44.2
184.141	15.19
184.361	70.48
184.58	82.77
184.8	-23.72
185.02	-11.43
185.239	60.24
185.459	-3.24
185.679	64.34
185.898	4.95
186.118	39.76
186.338	-48.3
186.557	111.44
186.777	-25.77
186.997	45.91
187.216	17.24
187.436	138.07
187.655	64.34
187.875	58.2
188.095	-33.96
188.314	35.67
188.534	82.77
188.753	41.81
188.973	37.72
189.192	93.01
189.412	-3.24
189.631	31.57
189.851	64.34
190.07	21.33
190.29	-23.72
190.509	-64.68
190.729	-54.44
190.948	72.53
191.168	43.86
191.387	125.78
191.607	-81.07
191.826	93.01
192.045	41.81
192.265	-15.53
192.484	127.83
192.704	78.68
192.923	-21.67
193.142	39.76
193.362	-1.19
193.581	-27.82
193.8	-29.87
194.02	74.58
194.239	45.91
194.458	97.11
194.678	17.24
194.897	-64.68
195.116	37.72
195.335	2.9
195.555	43.86
195.774	0.85
195.993	2.9
196.212	23.38
196.432	66.39
196.651	23.38
196.87	54.1
197.089	78.68
197.308	-25.77
197.528	4.95
197.747	27.48
197.966	-3.24
198.185	39.76
198.404	17.24
198.623	23.38
198.842	62.29
199.062	29.52
199.281	29.52
199.5	-27.82
199.719	50
199.938	41.81
200.157	0.85
200.376	-9.39
200.595	-38.06
200.814	25.43
201.033	52.05
201.252	19.29
201.471	11.09
201.69	-1.19
201.909	93.01
202.128	84.82
202.347	4.95
202.566	60.24
202.785	-36.01
203.004	0.85
203.223	29.52
203.442	21.33
203.661	33.62
203.879	70.48
204.098	93.01
204.317	33.62
204.536	9.05
204.755	39.76
204.974	39.76
205.193	56.15
205.411	93.01
205.63	-1.19
205.849	23.38
206.068	15.19
206.287	31.57
206.505	52.05
206.724	-3.24
206.943	9.05
207.162	-7.34
207.381	70.48
207.599	13.14
207.818	64.34
208.037	35.67
208.255	43.86
208.474	-33.96
208.693	31.57
208.911	60.24
209.13	23.38
209.349	74.58
209.567	90.96
209.786	43.86
210.005	7
210.223	-40.11
210.442	-66.73
210.661	17.24
210.879	54.1
211.098	74.58
211.316	58.2
211.535	2.9
211.753	17.24
211.972	35.67
212.191	-27.82
212.409	13.14
212.628	50
212.846	-11.43
213.065	13.14
213.283	-13.48
213.502	-23.72
213.72	4.95
213.938	88.92
214.157	88.92
214.375	-29.87
214.594	45.91
214.812	-19.63
215.031	86.87
215.249	86.87
215.467	15.19
215.686	33.62
215.904	103.25
216.122	17.24
216.341	27.48
216.559	27.48
216.778	54.1
216.996	-48.3
217.214	17.24
217.432	17.24
217.651	2.9
217.869	2.9
218.087	72.53
218.306	9.05
218.524	0.85
218.742	-5.29
218.96	60.24
219.179	37.72
219.397	31.57
219.615	119.64
219.833	13.14
220.051	27.48
220.27	35.67
220.488	60.24
220.706	47.96
220.924	95.06
221.142	9.05
221.36	2.9
221.578	50
221.796	41.81
222.015	29.52
222.233	37.72
222.451	56.15
222.669	-5.29
222.887	13.14
223.105	33.62
223.323	35.67
223.541	-60.59
223.759	47.96
223.977	23.38
224.195	125.78
224.413	35.67
224.631	7
224.849	58.2
225.067	37.72
225.285	2.9
225.503	25.43
225.721	27.48
225.939	97.11
226.157	19.29
226.375	66.39
226.592	4.95
226.81	60.24
227.028	101.2
227.246	97.11
227.464	11.09
227.682	-11.43
227.9	19.29
228.117	54.1
228.335	15.19
228.553	66.39
228.771	45.91
228.989	41.81
229.206	37.72
229.424	45.91
229.642	7
229.86	-21.67
230.077	33.62
230.295	19.29
230.513	37.72
230.731	50
230.948	78.68
231.166	52.05
231.384	37.72
231.601	-25.77
231.819	43.86
232.037	-17.58
232.254	37.72
232.472	54.1
232.689	-17.58
232.907	33.62
233.125	-19.63
233.342	33.62
233.56	-27.82
233.777	-40.11
233.995	2.9
234.213	0.85
234.43	39.76
234.648	56.15
234.865	-85.16
235.083	11.09
235.3	43.86
235.518	95.06
235.735	23.38
235.953	0.85
236.17	-5.29
236.388	29.52
236.605	27.48
236.822	101.2
237.04	9.05
237.257	82.77
237.475	33.62
237.692	37.72
237.909	35.67
238.127	-13.48
238.344	41.81
238.562	19.29
238.779	33.62
238.996	37.72
239.214	7
239.431	19.29
239.648	41.81
239.865	-11.43
240.083	19.29
240.3	29.52
240.517	50
240.735	-33.96
240.952	86.87
241.169	31.57
241.386	-3.24
241.603	19.29
241.821	-48.3
242.038	23.38
242.255	21.33
242.472	60.24
242.689	41.81
242.907	78.68
243.124	-29.87
243.341	21.33
243.558	27.48
243.775	33.62
243.992	25.43
244.209	47.96
244.426	-19.63
244.643	21.33
244.86	39.76
245.078	7
245.295	37.72
245.512	9.05
245.729	33.62
245.946	64.34
246.163	-9.39
246.38	33.62
246.597	47.96
246.814	66.39
247.031	15.19
247.248	64.34
247.464	0.85
247.681	-25.77
247.898	72.53
248.115	37.72
248.332	-60.59
248.549	90.96
248.766	31.57
248.983	37.72
249.2	9.05
249.417	88.92
249.633	60.24
249.85	-19.63
250.067	27.48
250.284	19.29
250.501	33.62
250.717	52.05
250.934	9.05
251.151	-52.39
251.368	9.05
251.585	13.14
251.801	35.67
252.018	35.67
252.235	62.29
252.451	-5.29
252.668	21.33
252.885	2.9
253.102	93.01
253.318	-3.24
253.535	-17.58
253.752	64.34
253.968	-31.91
254.185	-72.87
254.401	103.25
254.618	27.48
254.835	13.14
255.051	23.38
255.268	66.39
255.484	-5.29
255.701	-29.87
255.917	47.96
256.134	103.25
256.351	13.14
256.567	-21.67
256.784	101.2
257	0.85
257.217	74.58
257.433	52.05
257.65	35.67
257.866	33.62
258.082	-44.2
258.299	47.96
258.515	19.29
258.732	21.33
258.948	43.86
259.165	88.92
259.381	11.09
259.597	-5.29
259.814	82.77
260.03	-31.91
260.246	0.85
260.463	78.68
260.679	35.67
260.895	52.05
261.112	68.44
261.328	27.48
261.544	45.91
261.761	74.58
261.977	19.29
262.193	41.81
262.409	19.29
262.626	15.19
262.842	62.29
263.058	9.05
263.274	31.57
263.49	0.85
263.707	95.06
263.923	-11.43
264.139	54.1
264.355	43.86
264.571	31.57
264.787	21.33
265.004	66.39
265.22	41.81
265.436	9.05
265.652	58.2
265.868	35.67
266.084	-29.87
266.3	86.87
266.516	0.85
266.732	74.58
266.948	7
267.164	50
267.38	64.34
267.596	43.86
267.812	74.58
268.028	39.76
268.244	58.2
268.46	74.58
268.676	80.72
268.892	27.48
269.108	-48.3
269.324	-27.82
269.54	35.67
269.756	41.81
269.972	-19.63
270.188	54.1
270.403	88.92
270.619	-3.24
270.835	-11.43
271.051	-1.19
271.267	-1.19
271.483	62.29
271.698	74.58
271.914	58.2
272.13	-11.43
272.346	-29.87
272.562	-7.34
272.777	2.9
272.993	58.2
273.209	-19.63
273.425	80.72
273.64	23.38
273.856	21.33
274.072	64.34
274.287	37.72
274.503	-52.39
274.719	35.67
274.934	68.44
275.15	19.29
275.366	82.77
275.581	-7.34
275.797	11.09
276.012	52.05
276.228	-27.82
276.444	15.19
276.659	97.11
276.875	2.9
277.09	21.33
277.306	4.95
277.521	76.63
277.737	58.2
277.952	99.16
278.168	-15.53
278.383	52.05
278.599	23.38
278.814	47.96
279.03	60.24
279.245	74.58
279.461	39.76
279.676	35.67
279.892	52.05
280.107	21.33
280.322	-19.63
280.538	58.2
280.753	11.09
280.969	50
281.184	54.1
281.399	127.83
281.615	13.14
281.83	76.63
282.045	37.72
282.26	15.19
282.476	66.39
282.691	136.02
282.906	29.52
283.122	41.81
283.337	68.44
283.552	37.72
283.767	-25.77
283.983	29.52
284.198	17.24
284.413	31.57
284.628	-23.72
284.843	35.67
285.058	7
285.274	-33.96
285.489	25.43
285.704	62.29
285.919	99.16
286.134	25.43
286.349	68.44
286.564	-46.25
286.779	97.11
286.995	52.05
287.21	-11.43
287.425	31.57
287.64	41.81
287.855	2.9
288.07	47.96
288.285	62.29
288.5	76.63
288.715	21.33
288.93	4.95
289.145	50
289.36	29.52
289.575	56.15
289.79	70.48
290.004	-33.96
290.219	66.39
290.434	82.77
290.649	70.48
290.864	-11.43
291.079	54.1
291.294	33.62
291.509	121.68
291.724	70.48
291.938	-13.48
292.153	101.2
292.368	7
292.583	29.52
292.798	-25.77
293.012	43.86
293.227	47.96
293.442	47.96
293.657	25.43
293.871	7
294.086	109.4
294.301	74.58
294.516	50
294.73	21.33
294.945	21.33
295.16	52.05
295.374	33.62
295.589	17.24
295.804	84.82
296.018	35.67
296.233	76.63
296.447	43.86
296.662	-5.29
296.877	138.07
297.091	-72.87
297.306	39.76
297.52	50
297.735	-21.67
297.949	37.72
298.164	2.9
298.378	-21.67
298.593	-58.54
298.807	2.9
299.022	9.05
299.236	68.44
299.451	39.76
299.665	15.19
299.88	0.85
300.094	-13.48
300.309	21.33
300.523	58.2
300.737	64.34
300.952	74.58
301.166	166.74
301.381	60.24
301.595	27.48
301.809	50
302.024	0.85
302.238	2.9
302.452	43.86
302.667	21.33
302.881	50
303.095	25.43
303.309	-7.34
303.524	109.4
303.738	33.62
303.952	52.05
304.166	56.15
304.381	21.33
304.595	-7.34
304.809	-13.48
305.023	29.52
305.237	-23.72
305.452	76.63
305.666	-7.34
305.88	47.96
306.094	80.72
306.308	50
306.522	-21.67
306.736	50
306.95	13.14
307.164	103.25
307.379	-5.29
307.593	111.44
307.807	58.2
308.021	66.39
308.235	43.86
308.449	7
308.663	35.67
308.877	56.15
309.091	15.19
309.305	72.53
309.519	-40.11
309.733	-25.77
309.947	66.39
310.161	25.43
310.374	-7.34
310.588	2.9
310.802	45.91
311.016	25.43
311.23	82.77
311.444	31.57
311.658	23.38
311.872	50
312.085	52.05
312.299	58.2
312.513	0.85
312.727	107.35
312.941	23.38
313.154	45.91
313.368	97.11
313.582	60.24
313.796	29.52
314.009	82.77
314.223	90.96
314.437	4.95
314.651	82.77
314.864	9.05
315.078	-66.73
315.292	56.15
315.505	-9.39
315.719	-31.91
315.933	52.05
316.146	37.72
316.36	86.87
316.573	33.62
316.787	58.2
317.001	-17.58
317.214	37.72
317.428	25.43
317.641	15.19
317.855	27.48
318.068	62.29
318.282	-9.39
318.495	-1.19
318.709	78.68
318.922	90.96
319.136	37.72
319.349	17.24
319.563	0.85
319.776	-72.87
319.99	-60.59
320.203	27.48
320.417	0.85
320.63	39.76
320.843	-9.39
321.057	-25.77
321.27	37.72
321.483	13.14
321.697	64.34
321.91	2.9
322.124	11.09
322.337	27.48
322.55	-21.67
322.763	52.05
322.977	52.05
323.19	4.95
323.403	58.2
323.617	-9.39
323.83	70.48
324.043	7
324.256	64.34
324.469	37.72
324.683	78.68
324.896	39.76
325.109	74.58
325.322	41.81
325.535	93.01
325.748	47.96
325.962	9.05
326.175	31.57
326.388	-3.24
326.601	-5.29
326.814	-3.24
327.027	68.44
327.24	29.52
327.453	21.33
327.666	0.85
327.879	58.2
328.092	123.73
328.305	43.86
328.518	47.96
328.731	15.19
328.944	33.62
329.157	29.52
329.37	21.33
329.583	111.44
329.796	78.68
330.009	-15.53
330.222	4.95
330.435	80.72
330.648	50
330.861	86.87
331.073	4.95
331.286	37.72
331.499	39.76
331.712	-13.48
331.925	-17.58
332.138	93.01
332.35	95.06
332.563	72.53
332.776	29.52
332.989	27.48
333.202	35.67
333.414	17.24
333.627	23.38
333.84	7
334.053	4.95
334.265	-7.34
334.478	19.29
334.691	-1.19
334.903	54.1
335.116	-27.82
335.329	50
335.541	66.39
335.754	97.11
335.966	-1.19
336.179	121.68
336.392	86.87
336.604	-68.78
336.817	58.2
337.029	-17.58
337.242	15.19
337.454	23.38
337.667	-31.91
337.88	84.82
338.092	58.2
338.305	56.15
338.517	31.57
338.729	54.1
338.942	103.25
339.154	-1.19
339.367	13.14
339.579	13.14
339.792	60.24
340.004	88.92
340.217	31.57
340.429	-66.73
340.641	-25.77
340.854	35.67
341.066	99.16
341.278	117.59
341.491	23.38
341.703	-17.58
341.915	-7.34
342.128	21.33
342.34	-70.83
342.552	35.67
342.764	68.44
342.977	138.07
343.189	31.57
343.401	19.29
343.613	68.44
343.826	11.09
344.038	9.05
344.25	54.1
344.462	-3.24
344.674	33.62
344.886	21.33
345.099	43.86
345.311	62.29
345.523	97.11
345.735	-3.24
345.947	56.15
346.159	58.2
346.371	33.62
346.583	-21.67
346.795	35.67
347.007	52.05
347.219	84.82
347.431	9.05
347.643	23.38
347.855	25.43
348.067	43.86
348.279	27.48
348.491	39.76
348.703	-7.34
348.915	25.43
349.127	13.14
349.339	2.9
349.551	-27.82
349.763	21.33
349.975	-3.24
350.187	-21.67
350.399	117.59
350.61	31.57
350.822	31.57
351.034	115.54
351.246	66.39
351.458	47.96
351.669	11.09
351.881	37.72
352.093	13.14
352.305	54.1
352.517	107.35
352.728	-7.34
352.94	39.76
353.152	80.72
353.363	2.9
353.575	21.33
353.787	105.3
353.999	115.54
354.21	56.15
354.422	25.43
354.633	17.24
354.845	64.34
355.057	35.67
355.268	-5.29
355.48	52.05
355.692	80.72
355.903	35.67
356.115	45.91
356.326	45.91
356.538	86.87
356.749	33.62
356.961	97.11
357.172	97.11
357.384	11.09
357.595	76.63
357.807	54.1
358.018	45.91
358.23	60.24
358.441	93.01
358.653	-9.39
358.864	17.24
359.075	35.67
359.287	4.95
359.498	47.96
359.709	39.76
359.921	52.05
360.132	33.62
360.344	47.96
360.555	-19.63
360.766	76.63
360.977	31.57
361.189	52.05
361.4	-9.39
361.611	25.43
361.823	-56.49
362.034	58.2
362.245	23.38
362.456	27.48
362.667	19.29
362.879	115.54
363.09	-29.87
363.301	0.85
363.512	90.96
363.723	25.43
363.935	52.05
364.146	93.01
364.357	0.85
364.568	17.24
364.779	15.19
364.99	84.82
365.201	70.48
365.412	113.49
365.623	21.33
365.834	64.34
366.045	-46.25
366.256	17.24
366.467	144.21
366.678	23.38
366.889	35.67
367.1	25.43
367.311	99.16
367.522	2.9
367.733	47.96
367.944	62.29
368.155	45.91
368.366	74.58
368.577	70.48
368.788	70.48
368.999	43.86
369.209	58.2
369.42	113.49
369.631	88.92
369.842	-1.19
370.053	27.48
370.264	58.2
370.474	4.95
370.685	107.35
370.896	136.02
371.107	109.4
371.317	27.48
371.528	31.57
371.739	62.29
371.95	23.38
372.16	115.54
372.371	29.52
372.582	142.16
372.792	33.62
373.003	105.3
373.214	56.15
373.424	41.81
373.635	68.44
373.846	-5.29
374.056	52.05
374.267	107.35
374.477	9.05
374.688	68.44
374.898	50
375.109	2.9
375.319	15.19
375.53	64.34
375.74	56.15
375.951	66.39
376.161	37.72
376.372	35.67
376.582	7
376.793	62.29
377.003	27.48
377.214	-3.24
377.424	50
377.635	-13.48
377.845	68.44
378.055	9.05
378.266	4.95
378.476	27.48
378.686	-52.39
378.897	15.19
379.107	29.52
379.317	113.49
379.528	0.85
379.738	76.63
379.948	33.62
380.158	29.52
380.369	25.43
380.579	35.67
380.789	-21.67
380.999	70.48
381.21	111.44
381.42	84.82
381.63	-23.72
381.84	144.21
382.05	43.86
382.261	37.72
382.471	29.52
382.681	2.9
382.891	70.48
383.101	68.44
383.311	29.52
383.521	0.85
383.731	39.76
383.941	45.91
384.151	31.57
384.361	41.81
384.571	54.1
384.781	45.91
384.991	-11.43
385.201	47.96
385.411	84.82
385.621	39.76
385.831	50
386.041	17.24
386.251	76.63
386.461	27.48
386.671	31.57
386.881	13.14
387.091	45.91
387.301	54.1
387.511	27.48
387.72	21.33
387.93	72.53
388.14	52.05
388.35	45.91
388.56	33.62
388.769	90.96
388.979	125.78
389.189	56.15
389.399	41.81
389.609	43.86
389.818	68.44
390.028	-1.19
390.238	84.82
390.447	-31.91
390.657	60.24
390.867	64.34
391.076	93.01
391.286	27.48
391.496	84.82
391.705	76.63
391.915	95.06
392.125	90.96
392.334	64.34
392.544	50
392.753	76.63
392.963	-1.19
393.172	70.48
393.382	-1.19
393.591	64.34
393.801	43.86
394.01	109.4
394.22	39.76
394.429	107.35
394.639	86.87
394.848	47.96
395.058	-5.29
395.267	41.81
395.477	17.24
395.686	105.3
395.895	107.35
396.105	80.72
396.314	35.67
396.524	29.52
396.733	90.96
396.942	50
397.152	70.48
397.361	62.29
397.57	95.06
397.78	58.2
397.989	52.05
398.198	76.63
398.407	17.24
398.617	113.49
398.826	17.24
399.035	103.25
399.244	105.3
399.453	88.92
399.663	62.29
399.872	138.07
400.081	133.97
400.29	168.79
400.499	119.64
400.708	72.53
400.917	119.64
401.127	109.4
401.336	133.97
401.545	60.24
401.754	99.16
401.963	90.96
402.172	70.48
402.381	66.39
402.59	64.34
402.799	70.48
403.008	103.25
403.217	144.21
403.426	60.24
403.635	58.2
403.844	64.34
404.053	68.44
404.262	115.54
404.471	117.59
404.68	66.39
404.888	183.12
405.097	60.24
405.306	111.44
405.515	109.4
405.724	152.4
405.933	62.29
406.142	156.5
406.35	185.17
406.559	103.25
406.768	111.44
406.977	164.69
407.185	113.49
407.394	150.36
407.603	148.31
407.812	217.94
408.02	203.6
408.229	121.68
408.438	156.5
408.646	146.26
408.855	228.18
409.064	187.22
409.272	189.27
409.481	215.89
409.69	248.66
409.898	131.92
410.107	172.88
410.315	187.22
410.524	244.56
410.733	260.95
410.941	172.88
411.15	351.06
411.358	283.47
411.567	291.66
411.775	269.14
411.984	238.42
412.192	344.91
412.401	371.54
412.609	267.09
412.818	379.73
413.026	332.62
413.234	437.07
413.443	392.02
413.651	396.11
413.86	412.5
414.068	445.26
414.276	424.78
414.485	439.12
414.693	426.83
414.901	518.99
415.11	539.47
415.318	459.6
415.526	498.51
415.734	531.28
415.943	531.28
416.151	461.65
416.359	521.04
416.567	537.42
416.776	658.25
416.984	664.4
417.192	699.21
417.4	725.83
417.608	670.54
417.817	731.98
418.025	838.47
418.233	811.85
418.441	768.84
418.649	803.66
418.857	848.71
419.065	830.28
419.273	879.43
419.481	861
419.689	953.16
419.897	1033.03
420.105	1006.41
420.313	1041.22
420.521	1133.38
420.729	1153.86
420.937	1112.9
421.145	1207.11
421.353	1268.55
421.561	1274.69
421.769	1246.02
421.977	1389.38
422.185	1446.72
422.393	1526.59
422.601	1454.91
422.809	1407.81
423.017	1626.94
423.224	1655.61
423.432	1620.8
423.64	1669.95
423.848	1786.68
424.056	1764.15
424.263	1897.27
424.471	1858.36
424.679	1907.51
424.887	2093.88
425.094	2147.12
425.302	2073.4
425.51	2259.76
425.718	2308.91
425.925	2267.95
426.133	2427.7
426.341	2517.81
426.548	2609.97
426.756	2636.59
426.964	2571.05
427.171	2919.21
427.379	2929.45
427.586	2908.97
427.794	3007.27
428.001	3126.05
428.209	3216.16
428.417	3210.02
428.624	3498.78
428.832	3509.02
429.039	3523.36
429.247	3466.02
429.454	3877.66
429.662	4129.56
429.869	3748.64
430.076	4061.98
430.284	3980.06
430.491	4188.95
430.699	4371.22
430.906	4373.27
431.114	4524.82
431.321	4543.25
431.528	4801.29
431.736	4911.88
431.943	5153.54
432.15	5063.43
432.358	5212.93
432.565	5466.88
432.772	5528.32
432.979	5755.65
433.187	5614.34
433.394	5749.5
433.601	6232.82
433.808	6155
434.016	6210.29
434.223	6511.35
434.43	6830.83
434.637	6718.19
434.844	6832.88
435.052	7277.29
435.259	7244.52
435.466	7310.05
435.673	7158.5
435.88	7557.86
436.087	8170.2
436.294	8254.17
436.501	7824.09
436.708	8168.15
436.915	8463.06
437.122	8645.33
437.329	8532.69
437.537	8899.28
437.743	9065.16
437.95	8917.71
438.157	9630.4
438.364	9874.11
438.571	9767.62
438.778	9894.59
438.985	10533.56
439.192	10353.34
439.399	10529.46
439.606	10355.38
439.813	11147.95
440.02	11793.06
440.227	11547.3
440.433	11463.33
440.64	11834.02
440.847	11686.56
441.054	11946.66
441.261	12896.91
441.467	12653.2
441.674	12876.43
441.881	13277.83
442.088	13255.31
442.294	13228.68
442.501	13542.02
442.708	13785.73
442.914	14381.69
443.121	15018.61
443.328	14594.68
443.534	15790.69
443.741	15247.98
443.948	14852.72
444.154	16149.09
444.361	15862.37
444.568	16179.81
444.774	16018.02
444.981	16325.21
445.187	16745.05
445.394	17431.12
445.6	17437.26
445.807	18969.14
446.013	18057.79
446.22	18627.13
446.426	19173.94
446.633	19489.32
446.839	19929.64
447.046	19098.16
447.252	20214.3
447.459	20304.42
447.665	20412.96
447.871	21170.71
448.078	22256.13
448.284	21000.72
448.491	21508.62
448.697	22440.45
448.903	22936.06
449.11	22931.96
449.316	22532.61
449.522	23038.45
449.728	23583.21
449.935	23683.56
450.141	23761.39
450.347	24246.76
450.553	23972.33
450.76	23673.32
450.966	24971.74
451.172	24529.38
451.378	24838.62
451.584	24709.6
451.791	24955.35
451.997	24938.97
452.203	25383.38
452.409	25717.2
452.615	25266.64
452.821	24582.62
453.027	24101.35
453.233	25287.12
453.44	24498.66
453.646	25063.89
453.852	24932.82
454.058	25307.6
454.264	24386.02
454.47	24992.22
454.676	24246.76
454.882	25301.46
455.088	23419.38
455.294	23366.13
455.5	23640.56
455.705	24343.01
455.911	23132.66
456.117	22499.84
456.323	22288.9
456.529	21043.73
456.735	21879.3
456.941	21721.61
457.147	21072.4
457.352	20548.12
457.558	20265.5
457.764	20023.84
457.97	20073
458.176	19251.76
458.381	19446.32
458.587	18545.21
458.793	18649.66
458.999	17640.01
459.204	19044.91
459.41	18078.27
459.616	17037.91
459.821	17125.97
460.027	17179.22
460.233	16765.53
460.438	15673.96
460.644	15968.87
460.85	15563.37
461.055	15166.06
461.261	15280.75
461.466	13951.62
461.672	13333.13
461.878	14750.32
462.083	13425.29
462.289	13341.32
462.494	13212.3
462.7	12753.55
462.905	12100.25
463.111	12765.84
463.316	12634.77
463.522	12528.28
463.727	12300.95
463.932	12485.27
464.138	12259.99
464.343	12352.15
464.549	12032.67
464.754	12409.5
464.959	12257.95
465.165	12206.75
465.37	11905.7
465.575	11385.51
465.781	11760.29
465.986	11793.06
466.191	11403.94
466.397	11164.33
466.602	10685.11
466.807	11047.6
467.012	11033.26
467.218	11145.9
467.423	10982.06
467.628	10996.4
467.833	11330.22
468.038	11156.14
468.244	10685.11
468.449	11059.88
468.654	10838.7
468.859	10887.86
469.064	10676.91
469.269	10248.89
469.474	10406.58
469.679	10455.73
469.885	10115.77
470.09	10363.58
470.295	10156.73
470.5	10205.88
470.705	10121.91
470.91	9999.04
471.115	9808.58
471.32	9908.93
471.525	9945.79
471.73	9716.42
471.935	9726.66
472.139	9304.78
472.344	9513.67
472.549	9269.96
472.754	9102.03
472.959	8950.48
473.164	8901.33
473.369	8907.47
473.574	9069.26
473.778	9063.12
473.983	9024.2
474.188	8874.7
474.393	8438.48
474.598	8420.05
474.802	8485.59
475.007	8415.96
475.212	8278.74
475.417	7924.44
475.621	7989.98
475.826	8145.63
476.031	7811.81
476.235	7746.27
476.44	7695.07
476.645	7754.46
476.849	7705.31
477.054	7713.5
477.259	7742.18
477.463	7596.77
477.668	7269.09
477.872	7490.28
478.077	7279.33
478.282	7054.06
478.486	6916.84
478.691	6918.89
478.895	7111.4
479.1	6974.19
479.304	7060.2
479.509	6796.01
479.713	6912.75
479.918	6847.21
480.122	6607.6
480.326	6701.81
480.531	6755.05
480.735	6720.24
480.94	6697.71
481.144	6908.65
481.348	6425.33
481.553	6638.32
481.757	6437.62
481.961	6644.46
482.166	6619.89
482.37	6611.7
482.574	6406.9
482.778	6519.54
482.983	6666.99
483.187	6427.38
483.391	6652.66
483.595	6515.44
483.8	6560.5
484.004	6441.72
484.208	6626.03
484.412	6513.39
484.616	6427.38
484.821	6507.25
485.025	6552.31
485.229	6552.31
485.433	6318.84
485.637	6464.24
485.841	6286.07
486.045	6615.79
486.249	6456.05
486.453	6527.73
486.657	6535.92
486.861	6433.52
487.065	6460.15
487.269	6421.24
487.473	6302.45
487.677	6378.23
487.881	6542.07
488.085	6404.85
488.289	6363.89
488.493	6349.56
488.697	6675.18
488.901	6505.2
489.105	6419.19
489.309	6601.46
489.512	6525.68
489.716	6497.01
489.92	6619.89
490.124	6454
490.328	6746.86
490.531	6630.13
490.735	6685.42
490.939	6630.13
491.143	6494.96
491.346	6562.55
491.55	6765.29
491.754	6810.35
491.958	6910.7
492.161	6718.19
492.365	6810.35
492.569	6914.8
492.772	6824.69
492.976	6673.14
493.18	6941.42
493.383	7023.34
493.587	6980.33
493.79	7029.48
493.994	7187.18
494.197	7043.82
494.401	7279.33
494.605	7088.87
494.808	7408.36
495.012	7238.37
495.215	7269.09
495.419	7408.36
495.622	7240.42
495.825	7480.04
496.029	7576.29
496.232	7455.46
496.436	7486.18
496.639	7817.95
496.843	7860.96
497.046	8100.57
497.249	7897.82
497.453	7914.2
497.656	8010.46
497.859	8065.75
498.063	8375
498.266	8440.53
498.469	8385.24
498.673	8704.72
498.876	8565.46
499.079	8698.58
499.282	8461.01
499.485	8782.54
499.689	8882.89
499.892	8997.58
500.095	9222.86
500.298	9163.47
500.501	9173.71
500.705	9382.6
500.908	9493.19
501.111	9646.79
501.314	9685.7
501.517	9745.09
501.72	9691.84
501.923	9999.04
502.126	10085.05
502.329	10314.42
502.532	10304.18
502.735	10408.63
502.938	10601.14
503.141	10551.99
503.344	10726.07
503.547	10994.35
503.75	10822.32
503.953	10986.16
504.156	11459.24
504.359	11258.54
504.562	11350.7
504.765	11403.94
504.968	11846.3
505.17	11956.89
505.373	11956.89
505.576	12219.03
505.779	12282.52
505.982	12346.01
506.185	12608.15
506.387	12538.52
506.59	12495.51
506.793	12962.45
506.996	12915.34
507.198	13290.12
507.401	13181.58
507.604	13343.37
507.807	13798.02
508.009	13879.94
508.212	13998.72
508.415	14041.73
508.617	14201.47
508.82	14230.14
509.022	14074.49
509.225	14582.39
509.428	14711.41
509.63	14647.93
509.833	14830.2
510.035	15055.47
510.238	14981.74
510.44	15295.08
510.643	15602.28
510.845	15428.2
511.048	15684.2
511.25	15802.98
511.453	15878.76
511.655	16372.32
511.858	16226.91
512.06	16370.27
512.262	16724.57
512.465	16241.25
512.667	16814.68
512.87	17080.91
513.072	17148.5
513.274	17513.03
513.477	17400.4
513.679	17701.45
513.881	17773.13
514.084	18039.36
514.286	17953.35
514.488	18006.59
514.69	18600.51
514.893	18770.49
515.095	18946.61
515.297	19010.1
515.499	19012.15
515.701	19372.59
515.904	19507.76
516.106	19628.59
516.308	19589.67
516.51	20232.74
516.712	19739.18
516.914	20099.62
517.116	20224.54
517.318	20455.97
517.52	20863.51
517.722	20843.03
517.925	21090.84
518.127	21457.42
518.329	21283.34
518.531	21457.42
518.733	21879.3
518.935	21926.41
519.136	21910.02
519.338	22393.34
519.54	22512.13
519.742	22938.1
519.944	22426.11
520.146	22995.45
520.348	23048.69
520.55	23527.92
520.752	23267.83
520.954	23722.48
521.155	23689.71
521.357	23771.63
521.559	23953.9
521.761	24267.24
521.963	23990.76
522.164	24525.28
522.366	24574.43
522.568	24562.14
522.77	24895.96
522.971	25246.16
523.173	24906.2
523.375	25190.87
523.576	25004.5
523.778	25584.08
523.98	25985.48
524.181	25831.88
524.383	26206.66
524.584	26264
524.786	26259.91
524.988	26374.59
525.189	26714.56
525.391	26495.43
525.592	26726.85
525.794	26845.63
525.995	27027.9
526.197	27013.56
526.398	27066.81
526.6	27124.15
526.801	27679.15
527.003	27519.41
527.204	27449.78
527.406	28201.38
527.607	27914.67
527.808	27855.28
528.01	27656.62
528.211	28039.59
528.412	28533.15
528.614	28336.55
528.815	28068.27
529.016	28735.9
529.218	28271.01
529.419	28551.59
529.62	28713.38
529.822	28520.87
530.023	28320.17
530.224	28516.77
530.425	28713.38
530.626	28338.6
530.828	28309.93
531.029	29223.32
531.23	28963.23
531.431	28793.25
531.632	29122.97
531.833	28920.22
532.035	29022.62
532.236	28823.97
532.437	29069.72
532.638	28914.08
532.839	29112.73
533.04	29043.1
533.241	29030.81
533.442	29856.14
533.643	28985.76
533.844	29120.92
534.045	29086.11
534.246	28934.56
534.447	29706.64
534.648	28918.17
534.849	29772.18
535.05	29147.54
535.251	28973.47
535.451	29272.47
535.652	29540.75
535.853	29233.56
536.054	29297.05
536.255	29434.26
536.456	29311.38
536.657	29421.97
536.857	29206.94
537.058	29284.76
537.259	29798.8
537.46	29532.56
537.66	29671.82
537.861	29309.33
538.062	29340.05
538.263	29421.97
538.463	29204.89
538.664	29749.65
538.865	29565.33
539.065	29596.05
539.266	29034.91
539.466	29247.9
539.667	28934.56
539.868	29430.16
540.068	29284.76
540.269	29278.61
540.469	29741.46
540.67	29170.07
540.87	29161.88
541.071	29161.88
541.271	29284.76
541.472	29550.99
541.672	28844.45
541.873	29237.66
542.073	28666.27
542.274	29614.48
542.474	29178.26
542.675	28965.28
542.875	29667.73
543.075	29256.09
543.276	28830.11
543.476	29622.67
543.676	29211.03
543.877	29405.59
544.077	29256.09
544.277	29153.69
544.478	28940.7
544.678	29088.15
544.878	29034.91
545.078	29338.01
545.279	29008.28
545.479	28860.83
545.679	29383.06
545.879	28957.08
546.079	28969.37
546.28	28920.22
546.48	28846.49
546.68	29452.69
546.88	29284.76
547.08	29077.91
547.28	28766.62
547.48	28922.27
547.68	29256.09
547.88	28881.31
548.081	29082.01
548.281	29026.71
548.481	28989.85
548.681	29258.13
548.881	28965.28
549.081	29082.01
549.28	29012.38
549.48	28977.56
549.68	29002.14
549.88	29417.88
550.08	28967.32
550.28	29043.1
550.48	28795.29
550.68	29206.94
550.88	28899.74
551.08	28963.23
551.279	29102.49
551.479	28711.33
551.679	28891.55
551.879	28629.41
552.079	29006.23
552.278	29014.43
552.478	28907.93
552.678	28905.88
552.878	28735.9
553.077	28785.05
553.277	28506.53
553.477	29145.5
553.676	28750.24
553.876	28610.98
554.076	28758.43
554.275	28449.19
554.475	28527.01
554.674	28637.6
554.874	28651.94
555.074	28598.69
555.273	28733.85
555.473	28729.76
555.672	28371.36
555.872	28682.66
556.071	28778.91
556.271	28725.66
556.47	28473.76
556.67	28019.11
556.869	28643.74
557.068	28518.82
557.268	28217.77
557.467	28604.83
557.667	28494.24
557.866	28125.61
558.065	28154.28
558.265	28154.28
558.464	27941.29
558.663	28201.38
558.863	27869.61
559.062	28279.21
559.261	27818.41
559.461	28309.93
559.66	27791.79
559.859	28178.86
560.058	28203.43
560.258	28045.74
560.457	27691.44
560.656	28180.9
560.855	27574.7
561.054	28096.94
561.253	27552.18
561.453	27853.23
561.652	27640.24
561.851	27500.98
562.05	27685.29
562.249	27662.77
562.448	27691.44
562.647	27597.23
562.846	27326.9
563.045	27310.52
563.244	27425.2
563.443	27380.15
563.642	26986.94
563.841	27126.2
564.04	27201.97
564.239	27500.98
564.438	26945.98
564.637	27519.41
564.836	27187.64
565.035	27062.71
565.234	27054.52
565.432	26859.96
565.631	26819
565.83	27097.53
566.029	26751.42
566.228	26708.41
566.427	26560.96
566.625	26483.14
566.824	26372.55
567.023	26681.79
567.222	26229.19
567.42	26589.63
567.619	26288.58
567.818	26511.81
568.016	26053.06
568.215	25997.77
568.414	26376.64
568.612	26284.48
568.811	26134.98
569.01	26102.22
569.208	25663.95
569.407	25938.38
569.605	25772.49
569.804	26147.27
570.002	25547.22
570.201	25788.88
570.4	25551.31
570.598	25467.34
570.797	25530.83
570.995	25465.3
571.193	25350.61
571.392	25528.78
571.59	25233.88
571.789	25280.98
571.987	25170.39
572.186	25379.28
572.384	24947.16
572.582	25211.35
572.781	25156.05
572.979	24832.47
573.177	24867.29
573.376	25086.42
573.574	24590.81
573.772	24615.39
573.971	24596.96
574.169	24705.5
574.367	24394.21
574.565	24680.92
574.763	24615.39
574.962	24840.67
575.16	24218.08
575.358	24363.49
575.556	24087.01
575.754	24222.18
575.952	24046.05
576.151	24123.88
576.349	24005.1
576.547	24037.86
576.745	23912.94
576.943	23894.5
577.141	24013.29
577.339	23857.64
577.537	23861.74
577.735	23618.03
577.933	23425.52
578.131	24035.81
578.329	23241.2
578.527	23419.38
578.725	23228.91
578.923	23239.15
579.121	23335.41
579.319	23450.1
579.516	23132.66
579.714	23089.65
579.912	23333.36
580.11	23050.74
580.308	23009.78
580.506	23005.69
580.704	22512.13
580.901	23153.14
581.099	22999.54
581.297	22624.76
581.495	22725.11
581.692	22825.47
581.89	22688.25
582.088	22712.83
582.285	22505.98
582.483	22645.24
582.681	22383.1
582.878	22223.36
583.076	22297.09
583.274	22241.79
583.471	22006.28
583.669	22131.2
583.866	21828.1
584.064	22428.16
584.262	21737.99
584.459	22137.35
584.657	22084.1
584.854	22094.34
585.052	21316.11
585.249	21744.14
585.447	21756.43
585.644	21461.52
585.841	21557.77
586.039	21912.07
586.236	21359.12
586.434	21467.66
586.631	21289.49
586.828	21242.39
587.026	21334.54
587.223	21293.58
587.42	21152.27
587.618	21023.25
587.815	20558.36
588.012	20726.3
588.21	20683.29
588.407	20935.19
588.604	20836.89
588.801	20488.73
588.999	20828.7
589.196	20818.46
589.393	20687.39
589.59	20412.96
589.787	20322.85
589.984	20470.3
590.182	20111.91
590.379	20181.54
590.576	20316.7
590.773	20122.15
590.97	20038.18
591.167	20236.83
591.364	19874.34
591.561	19835.43
591.758	19718.7
591.955	19526.19
592.152	19937.83
592.349	19878.44
592.546	19653.16
592.743	19763.75
592.94	19339.82
593.137	19718.7
593.334	19690.02
593.531	19321.39
593.727	19556.91
593.924	19741.22
594.121	19096.11
594.318	19431.98
594.515	18868.79
594.712	19378.73
594.908	19186.22
595.105	19169.84
595.302	18856.5
595.499	18993.72
595.696	18881.08
595.892	18668.09
596.089	18743.86
596.286	18909.75
596.482	18844.21
596.679	18559.55
596.876	18614.84
597.072	18479.68
597.269	18655.8
597.466	18201.15
597.662	18342.46
597.859	18211.39
598.055	18252.35
598.252	18049.6
598.448	18354.75
598.645	18074.18
598.841	17928.77
599.038	18039.36
599.234	18119.23
599.431	18065.99
599.627	17748.55
599.824	17863.24
600.02	17457.74
600.217	17736.26
600.413	17732.17
600.609	17662.54
600.806	17232.46
601.002	17533.51
601.198	17228.37
601.395	17547.85
601.591	17234.51
601.787	17240.65
601.984	17089.1
602.18	17748.55
602.376	17273.42
602.572	17089.1
602.769	17156.69
602.965	16872.02
603.161	17058.39
603.357	16890.45
603.553	16779.86
603.75	16833.11
603.946	16687.7
604.142	16663.13
604.338	16851.54
604.534	16636.5
604.73	16245.34
604.926	16513.63
605.122	16521.82
605.318	16419.42
605.514	16257.63
605.71	16665.18
605.906	16380.51
606.102	16251.49
606.298	16226.91
606.494	16353.88
606.69	16200.29
606.886	16175.71
607.082	15864.42
607.278	16243.29
607.474	15848.04
607.67	16075.36
607.866	15809.12
608.062	16140.9
608.257	16020.06
608.453	15882.85
608.649	15925.86
608.845	15731.3
609.041	15874.66
609.236	15843.94
609.432	15757.92
609.628	15708.77
609.824	15633
610.019	15581.8
610.215	15561.32
610.411	15731.3
610.606	15286.89
610.802	15825.51
610.998	15440.49
611.193	15438.44
611.389	15313.52
611.584	15557.22
611.78	15311.47
611.976	15161.97
612.171	15387.24
612.367	15219.31
612.562	15188.59
612.758	14951.03
612.953	15168.11
613.149	15372.91
613.344	15086.19
613.539	15407.72
613.735	15041.14
613.93	15315.56
614.126	15133.29
614.321	15012.46
614.517	15106.67
614.712	14991.98
614.907	14752.37
615.103	15010.42
615.298	14865.01
615.493	14768.76
615.688	14697.08
615.884	15078
616.079	14563.96
616.274	15000.18
616.47	14746.23
616.665	14744.18
616.86	14527.1
617.055	14563.96
617.25	14541.43
617.445	14785.14
617.641	14287.48
617.836	14631.54
618.031	14289.53
618.226	14676.6
618.421	14273.15
618.616	14377.59
618.811	14187.13
619.006	14338.68
619.201	13968
619.396	14338.68
619.591	13812.35
619.786	14232.19
619.981	13881.99
620.176	14279.29
620.371	13785.73
620.566	13838.98
620.761	14045.82
620.956	13699.72
621.151	13511.3
621.346	13703.81
621.541	13294.22
621.735	13611.65
621.93	13204.11
622.125	13408.9
622.32	13195.92
622.515	13339.27
622.709	13251.21
622.904	13132.43
623.099	13034.13
623.294	12905.1
623.488	12851.86
623.683	13009.55
623.878	12720.79
624.072	12864.15
624.267	12657.3
624.462	12458.65
624.656	12626.58
624.851	12329.63
625.046	12317.34
625.24	12462.74
625.435	11907.74
625.629	12419.74
625.824	12173.98
626.018	12300.95
626.213	11887.26
626.407	11874.98
626.602	11819.68
626.796	11995.81
626.991	12010.14
627.185	11602.6
627.38	11661.99
627.574	11555.49
627.768	11467.43
627.963	11586.21
628.157	11475.62
628.352	11582.12
628.546	11168.43
628.74	11322.02
628.935	11162.28
629.129	11123.37
629.323	11172.52
629.517	10967.73
629.712	10832.56
629.906	10939.05
630.1	10834.61
630.294	10726.07
630.489	10787.5
630.683	10785.46
630.877	10504.89
631.071	10629.81
631.265	10744.5
631.459	10451.64
631.653	10420.92
631.848	10508.98
632.042	10295.99
632.236	10332.86
632.43	9943.74
632.624	10302.14
632.818	10283.7
633.012	9962.17
633.206	10087.1
633.4	10089.15
633.594	9759.42
633.788	9773.76
633.982	9706.18
634.176	9771.71
634.369	9495.24
634.563	9722.56
634.757	9587.4
634.951	9509.57
635.145	9421.51
635.339	9534.15
635.533	9366.21
635.726	9462.47
635.92	9226.95
636.114	9341.64
636.308	9257.67
636.501	9181.9
636.695	9122.51
636.889	9132.75
637.083	9112.27
637.276	8973
637.47	9257.67
637.664	8921.81
637.857	8800.98
638.051	8772.3
638.244	8901.33
638.438	8706.77
638.632	8784.59
638.825	8686.29
639.019	8532.69
639.212	8426.2
639.406	8297.17
639.599	8532.69
639.793	8319.7
639.986	8514.26
640.18	8481.49
640.373	8194.78
640.567	8145.63
640.76	8213.21
640.954	8209.11
641.147	7930.59
641.34	8245.98
641.534	8053.47
641.727	7992.03
641.92	8018.65
642.114	7863.01
642.307	7971.55
642.5	7856.86
642.694	7772.89
642.887	7799.52
643.08	7936.73
643.273	7652.06
643.467	7674.59
643.66	7664.35
643.853	7576.29
644.046	7662.3
644.239	7457.51
644.432	7502.56
644.626	7363.3
644.819	7320.29
645.012	7342.82
645.205	7453.41
645.398	7357.16
645.591	7138.02
645.784	7164.65
645.977	7351.01
646.17	7213.8
646.363	6998.76
646.556	7113.45
646.749	7138.02
646.942	6927.08
647.135	6984.43
647.328	6875.88
647.521	6914.8
647.714	6812.4
647.907	6974.19
648.099	6726.38
648.292	6810.35
648.485	6775.53
648.678	6660.85
648.871	6511.35
649.064	6490.87
649.256	6736.62
649.449	6392.56
649.642	6519.54
649.835	6494.96
650.027	6460.15
650.22	6363.89
650.413	6353.65
650.605	6367.99
650.798	6271.73
650.991	6234.87
651.183	6281.97
651.376	6159.1
651.568	6300.41
651.761	6071.03
651.954	6087.42
652.146	6056.7
652.339	6036.22
652.531	6122.23
652.724	5968.63
652.916	5851.9
653.109	5806.84
653.301	6030.07
653.494	5915.39
653.686	5630.72
653.879	5747.45
654.071	5849.85
654.263	5808.89
654.456	5729.02
654.648	5847.8
654.84	5645.06
655.033	5544.7
655.225	5745.41
655.417	5579.52
655.61	5640.96
655.802	5714.69
655.994	5520.13
656.186	5487.36
656.379	5403.39
656.571	5417.73
656.763	5264.13
656.955	5311.24
657.148	5518.08
657.34	5260.04
657.532	5202.69
657.724	5167.88
657.916	5319.43
658.108	5268.23
658.3	5286.66
658.492	5214.98
658.684	5088.01
658.876	5186.31
659.068	4989.71
659.26	5014.28
659.452	4907.79
659.644	5083.91
659.836	5055.24
660.028	4893.45
660.22	4866.83
660.412	4946.7
660.604	4846.35
660.796	4797.2
660.988	4922.12
661.18	4864.78
661.372	4789
661.563	4825.87
661.755	4793.1
661.947	4643.6
662.139	4602.64
662.331	4743.95
662.522	4655.89
662.714	4743.95
662.906	4727.57
663.097	4424.47
663.289	4596.5
663.481	4457.23
663.673	4535.06
663.864	4379.41
664.056	4528.91
664.247	4428.56
664.439	4471.57
664.631	4406.03
664.822	4520.72
665.014	4473.62
665.205	4324.12
665.397	4412.18
665.588	4217.62
665.78	4338.45
665.971	4270.87
666.163	4234
666.354	4350.74
666.546	4182.81
666.737	4164.37
666.929	4225.81
667.12	4291.35
667.311	4221.72
667.503	4150.04
667.694	4055.83
667.885	4180.76
668.077	4086.55
668.268	4018.97
668.459	3959.58
668.651	4057.88
668.842	4061.98
669.033	3865.37
669.224	3943.19
669.416	3945.24
669.607	3965.72
669.798	4002.58
669.989	3953.43
670.18	4051.74
670.371	3840.79
670.563	3781.4
670.754	3832.6
670.945	3711.77
671.136	3822.36
671.327	3785.5
671.518	3711.77
671.709	3754.78
671.9	3853.08
672.091	3844.89
672.282	3742.49
672.473	3703.58
672.664	3693.34
672.855	3736.35
673.046	3734.3
673.237	3769.12
673.428	3666.72
673.619	3760.92
673.809	3582.75
674	3844.89
674.191	3709.72
674.382	3660.57
674.573	3709.72
674.764	3681.05
674.954	3638.05
675.145	3552.03
675.336	3625.76
675.527	3423.01
675.717	3597.09
675.908	3613.47
676.099	3339.04
676.289	3535.65
676.48	3611.42
676.671	3412.77
676.861	3455.78
677.052	3527.46
677.243	3435.3
677.433	3537.7
677.624	3357.47
677.814	3586.85
678.005	3322.66
678.195	3457.82
678.386	3519.26
678.576	3377.95
678.767	3400.48
678.957	3373.86
679.148	3439.39
679.338	3451.68
679.529	3386.15
679.719	3316.51
679.909	3478.3
680.1	3308.32
680.29	3318.56
680.481	3267.36
680.671	3320.61
680.861	3392.29
681.052	3343.14
681.242	3373.86
681.432	3330.85
681.622	3228.45
681.813	3398.43
682.003	3412.77
682.193	3375.91
682.383	3324.71
682.573	3238.69
682.764	3273.51
682.954	3167.01
683.144	3183.4
683.334	3248.93
683.524	3310.37
683.714	3212.07
683.904	3177.25
684.094	3248.93
684.284	3177.25
684.474	3236.64
684.664	3124.01
684.854	3119.91
685.044	3130.15
685.234	3107.62
685.424	3144.49
685.614	3066.66
685.804	3146.53
685.994	3074.85
686.184	3210.02
686.374	3169.06
686.564	3128.1
686.753	3058.47
686.943	3062.57
687.133	3048.23
687.323	3074.85
687.513	3042.09
687.702	2988.84
687.892	3062.57
688.082	2890.54
688.272	3044.13
688.461	2982.7
688.651	3070.76
688.841	2818.86
689.03	2923.3
689.22	2962.22
689.41	2902.83
689.599	2788.14
689.789	2853.67
689.979	2804.52
690.168	2847.53
690.358	2810.67
690.547	2673.45
690.737	2870.06
690.926	2921.26
691.116	2650.92
691.305	2710.32
691.495	2673.45
691.684	2775.85
691.874	2677.55
692.063	2730.8
692.252	2693.93
692.442	2646.83
692.631	2642.73
692.82	2626.35
693.01	2632.49
693.199	2632.49
693.388	2523.95
693.578	2554.67
693.767	2708.27
693.956	2620.21
694.146	2591.53
694.335	2513.71
694.524	2503.47
694.713	2493.23
694.902	2499.38
695.092	2468.66
695.281	2503.47
695.47	2507.57
695.659	2499.38
695.848	2482.99
696.037	2454.32
696.226	2470.7
696.415	2433.84
696.604	2474.8
696.793	2474.8
696.982	2472.75
697.171	2542.38
697.36	2489.14
697.549	2313.01
697.738	2331.44
697.927	2331.44
698.116	2370.35
698.305	2431.79
698.494	2351.92
698.683	2347.83
698.872	2394.93
699.061	2304.82
699.25	2396.98
699.438	2366.26
699.627	2386.74
699.816	2351.92
700.005	2364.21
700.193	2464.56
700.382	2360.11
700.571	2421.55
700.76	2394.93
700.948	2378.55
701.137	2206.52
701.326	2298.67
701.514	2333.49
701.703	2417.46
701.892	2327.35
702.08	2497.33
702.269	2368.31
702.457	2282.29
702.646	2308.91
702.834	2265.91
703.023	2356.02
703.212	2401.07
703.4	2292.53
703.589	2249.52
703.777	2341.68
703.965	2247.48
704.154	2327.35
704.342	2249.52
704.531	2370.35
704.719	2206.52
704.907	2452.27
705.096	2384.69
705.284	2360.11
705.472	2243.38
705.661	2253.62
705.849	2394.93
706.037	2288.43
706.226	2231.09
706.414	2292.53
706.602	2257.71
706.79	2376.5
706.979	2165.56
707.167	2286.39
707.355	2261.81
707.543	2335.54
707.731	2210.61
707.919	2224.95
708.107	2239.28
708.296	2280.24
708.484	2163.51
708.672	2216.76
708.86	2321.2
709.048	2319.15
709.236	2270
709.424	2401.07
709.612	2327.35
709.8	2272.05
709.988	2356.02
710.176	2304.82
710.364	2351.92
710.551	2376.5
710.739	2515.76
710.927	2335.54
711.115	2409.26
711.303	2431.79
711.491	2327.35
711.679	2356.02
711.866	2310.96
712.054	2304.82
712.242	2368.31
712.43	2313.01
712.617	2349.87
712.805	2360.11
712.993	2396.98
713.181	2304.82
713.368	2345.78
713.556	2444.08
713.744	2351.92
713.931	2313.01
714.119	2403.12
714.306	2401.07
714.494	2403.12
714.682	2456.37
714.869	2339.63
715.057	2366.26
715.244	2325.3
715.432	2460.46
715.619	2386.74
715.807	2450.22
715.994	2343.73
716.182	2413.36
716.369	2378.55
716.556	2427.7
716.744	2386.74
716.931	2458.42
717.119	2431.79
717.306	2442.03
717.493	2249.52
717.681	2421.55
717.868	2345.78
718.055	2439.98
718.242	2460.46
718.43	2364.21
718.617	2460.46
718.804	2378.55
718.991	2288.43
719.179	2405.17
719.366	2464.56
719.553	2454.32
719.74	2437.94
719.927	2507.57
720.114	2423.6
720.301	2298.67
720.488	2384.69
720.676	2343.73
720.863	2405.17
721.05	2427.7
721.237	2466.61
721.424	2452.27
721.611	2382.64
721.798	2372.4
721.985	2388.78
722.172	2450.22
722.358	2485.04
722.545	2460.46
722.732	2448.18
722.919	2423.6
723.106	2476.85
723.293	2319.15
723.48	2427.7
723.667	2337.59
723.853	2329.39
724.04	2403.12
724.227	2419.5
724.414	2366.26
724.6	2462.51
724.787	2493.23
724.974	2546.48
725.161	2450.22
725.347	2394.93
725.534	2605.87
725.72	2358.07
725.907	2454.32
726.094	2540.33
726.28	2478.9
726.467	2337.59
726.653	2491.18
726.84	2566.96
727.027	2595.63
727.213	2407.22
727.4	2429.74
727.586	2356.02
727.773	2399.02
727.959	2491.18
728.145	2485.04
728.332	2511.66
728.518	2437.94
728.705	2560.81
728.891	2534.19
729.077	2421.55
729.264	2503.47
729.45	2519.85
729.636	2374.45
729.823	2517.81
730.009	2612.01
730.195	2460.46
730.382	2415.41
730.568	2442.03
730.754	2435.89
730.94	2558.77
731.126	2437.94
731.313	2519.85
731.499	2401.07
731.685	2409.26
731.871	2294.58
732.057	2558.77
732.243	2487.09
732.429	2452.27
732.615	2493.23
732.801	2460.46
732.987	2532.14
733.173	2474.8
733.359	2548.53
733.545	2482.99
733.731	2382.64
733.917	2507.57
734.103	2538.29
734.289	2409.26
734.475	2460.46
734.661	2513.71
734.847	2425.65
735.033	2347.83
735.219	2431.79
735.404	2517.81
735.59	2456.37
735.776	2325.3
735.962	2411.31
736.148	2503.47
736.333	2474.8
736.519	2509.62
736.705	2333.49
736.89	2419.5
737.076	2382.64
737.262	2276.15
737.447	2388.78
737.633	2444.08
737.819	2480.94
738.004	2401.07
738.19	2419.5
738.375	2329.39
738.561	2528.05
738.747	2315.06
738.932	2396.98
739.118	2417.46
739.303	2392.88
739.489	2413.36
739.674	2431.79
739.859	2317.11
740.045	2343.73
740.23	2415.41
740.416	2247.48
740.601	2294.58
740.786	2439.98
740.972	2315.06
741.157	2341.68
741.342	2257.71
741.528	2308.91
741.713	2284.34
741.898	2284.34
742.084	2329.39
742.269	2349.87
742.454	2233.14
742.639	2286.39
742.824	2243.38
743.01	2241.33
743.195	2231.09
743.38	2177.84
743.565	2192.18
743.75	2186.04
743.935	2233.14
744.12	2190.13
744.305	2233.14
744.49	2247.48
744.675	2218.8
744.86	2136.88
745.045	2216.76
745.23	2216.76
745.415	2222.9
745.6	2167.6
745.785	1999.67
745.97	2093.88
746.155	2032.44
746.34	2042.68
746.525	1991.48
746.71	1997.62
746.895	1981.24
747.079	1989.43
747.264	1977.14
747.449	2046.77
747.634	1971
747.819	2044.73
748.003	1887.03
748.188	1973.05
748.373	1946.42
748.557	1993.53
748.742	1960.76
748.927	1966.9
749.111	1837.88
749.296	1862.46
749.481	1866.55
749.665	1753.91
749.85	1831.74
750.034	1944.38
750.219	1833.79
750.404	1809.21
750.588	1764.15
750.773	1762.11
750.957	1913.66
751.141	1833.79
751.326	1815.35
751.51	1749.82
751.695	1758.01
751.879	1735.48
752.064	1647.42
752.248	1762.11
752.432	1637.18
752.617	1653.56
752.801	1700.67
752.985	1577.79
753.17	1633.08
753.354	1573.69
753.538	1657.66
753.722	1588.03
753.907	1534.78
754.091	1653.56
754.275	1583.93
754.459	1577.79
754.643	1547.07
754.828	1514.3
755.012	1577.79
755.196	1510.21
755.38	1526.59
755.564	1520.45
755.748	1514.3
755.932	1506.11
756.116	1514.3
756.3	1405.76
756.484	1377.09
756.668	1514.3
756.852	1327.94
757.036	1469.25
757.22	1360.7
757.404	1454.91
757.588	1332.03
757.772	1461.06
757.956	1440.58
758.14	1440.58
758.323	1362.75
758.507	1284.93
758.691	1332.03
758.875	1311.55
759.059	1272.64
759.242	1336.13
759.426	1264.45
759.61	1258.31
759.794	1329.99
759.977	1348.42
760.161	1270.59
760.345	1200.96
760.528	1372.99
760.712	1258.31
760.895	1233.73
761.079	1239.87
761.263	1295.17
761.446	1094.47
761.63	1319.75
761.813	1182.53
761.997	1252.16
762.18	1166.15
762.364	1135.43
762.547	1123.14
762.731	1149.76
762.914	1141.57
763.098	1299.27
763.281	1104.71
763.464	1211.2
763.648	1084.23
763.831	1100.61
764.015	1006.41
764.198	1100.61
764.381	1235.78
764.564	1102.66
764.748	1112.9
764.931	1160
765.114	1133.38
765.297	1129.28
765.481	1069.89
765.664	1174.34
765.847	1080.13
766.03	1012.55
766.213	996.17
766.397	1067.85
766.58	1020.74
766.763	1037.13
766.946	985.93
767.129	1028.93
767.312	1024.84
767.495	996.17
767.678	1080.13
767.861	953.16
768.044	1014.6
768.227	1014.6
768.41	1016.65
768.593	1022.79
768.776	1028.93
768.959	967.49
769.142	1016.65
769.324	1000.26
769.507	992.07
769.69	949.06
769.873	908.1
770.056	967.49
770.239	1043.27
770.421	901.96
770.604	858.95
770.787	908.1
770.97	887.62
771.152	881.48
771.335	977.73
771.518	875.34
771.7	889.67
771.883	889.67
772.066	924.49
772.248	850.76
772.431	940.87
772.613	861
772.796	840.52
772.978	895.82
773.161	996.17
773.343	889.67
773.526	869.19
773.708	846.66
773.891	863.05
774.073	736.07
774.256	746.31
774.438	883.53
774.621	832.33
774.803	791.37
774.985	783.18
775.168	746.31
775.35	781.13
775.532	807.75
775.715	734.03
775.897	697.16
776.079	734.03
776.261	799.56
776.444	770.89
776.626	693.07
776.808	703.31
776.99	709.45
777.173	688.97
777.355	756.55
777.537	754.51
777.719	637.77
777.901	719.69
778.083	736.07
778.265	734.03
778.447	645.96
778.629	752.46
778.811	699.21
778.993	658.25
779.175	699.21
779.357	615.24
779.539	680.78
779.721	619.34
779.903	658.25
780.085	688.97
780.267	605
780.449	670.54
780.631	592.72
780.812	602.96
780.994	684.87
781.176	578.38
781.358	543.57
781.54	518.99
781.721	592.72
781.903	582.48
782.085	617.29
782.267	598.86
782.448	570.19
782.63	549.71
782.812	559.95
782.993	484.17
783.175	607.05
783.357	475.98
783.538	551.76
783.72	553.8
783.901	518.99
784.083	490.32
784.264	533.33
784.446	463.69
784.627	559.95
784.809	529.23
784.99	484.17
785.172	416.59
785.353	473.93
785.535	459.6
785.716	461.65
785.897	443.21
786.079	539.47
786.26	459.6
786.441	539.47
786.623	482.13
786.804	445.26
786.985	502.61
787.167	459.6
787.348	400.21
787.529	508.75
787.71	473.93
787.891	447.31
788.073	445.26
788.254	396.11
788.435	521.04
788.616	449.36
788.797	408.4
788.978	441.17
789.159	371.54
789.34	412.5
789.522	367.44
789.703	492.37
789.884	398.16
790.065	418.64
790.246	392.02
790.427	394.06
790.607	363.34
790.788	457.55
790.969	359.25
791.15	447.31
791.331	359.25
791.512	385.87
791.693	332.62
791.874	338.77
792.054	381.78
792.235	373.58
792.416	289.62
792.597	289.62
792.778	406.35
792.958	381.78
793.139	330.58
793.32	308.05
793.5	322.38
793.681	346.96
793.862	295.76
794.042	285.52
794.223	303.95
794.404	299.86
794.584	279.38
794.765	228.18
794.945	355.15
795.126	271.19
795.306	295.76
795.487	316.24
795.667	346.96
795.848	367.44
796.028	287.57
796.209	342.86
796.389	248.66
796.57	283.47
796.75	281.43
796.93	281.43
797.111	373.58
797.291	236.37
797.471	306
797.652	242.51
797.832	181.07
798.012	291.66
798.192	344.91
798.373	330.58
798.553	262.99
798.733	273.23
798.913	224.08
799.093	254.8
799.274	277.33
799.454	275.28
799.634	291.66
799.814	324.43
799.994	250.71
800.174	316.24
800.354	285.52
800.534	228.18
800.714	295.76
800.894	162.64
801.074	287.57
801.254	226.13
801.434	265.04
801.614	234.32
801.794	252.75
801.974	650.06
802.154	197.46
802.334	330.58
802.514	234.32
802.693	277.33
802.873	209.75
803.053	219.99
803.233	209.75
803.413	222.03
803.592	234.32
803.772	238.42
803.952	256.85
804.131	187.22
804.311	213.84
804.491	183.12
804.67	217.94
804.85	267.09
805.03	324.43
805.209	205.65
805.389	211.79
805.568	197.46
805.748	156.5
805.928	179.03
806.107	238.42
806.287	248.66
806.466	250.71
806.646	183.12
806.825	193.36
807.004	170.83
807.184	215.89
807.363	267.09
807.543	277.33
807.722	90.96
807.901	193.36
808.081	207.7
808.26	160.59
808.439	217.94
808.619	170.83
808.798	176.98
808.977	217.94
809.156	258.9
809.336	191.31
809.515	250.71
809.694	164.69
809.873	232.27
810.052	144.21
810.231	162.64
810.411	234.32
810.59	236.37
810.769	230.23
810.948	170.83
811.127	160.59
811.306	179.03
811.485	160.59
811.664	158.55
811.843	185.17
812.022	258.9
812.201	174.93
812.38	142.16
812.559	172.88
812.737	162.64
812.916	168.79
813.095	127.83
813.274	203.6
813.453	217.94
813.632	205.65
813.811	162.64
813.989	144.21
814.168	170.83
814.347	144.21
814.526	140.12
814.704	183.12
814.883	271.19
815.062	187.22
815.24	179.03
815.419	164.69
815.598	123.73
815.776	181.07
815.955	129.88
816.133	93.01
816.312	162.64
816.49	97.11
816.669	127.83
816.847	230.23
817.026	109.4
817.204	70.48
817.383	154.45
817.561	201.55
817.74	142.16
817.918	82.77
818.097	160.59
818.275	72.53
818.453	119.64
818.632	203.6
818.81	144.21
818.988	142.16
819.167	154.45
819.345	154.45
819.523	82.77
819.701	121.68
819.879	168.79
820.058	179.03
820.236	101.2
820.414	97.11
820.592	129.88
820.77	170.83
820.948	146.26
821.127	131.92
821.305	172.88
821.483	39.76
821.661	172.88
821.839	131.92
822.017	107.35
822.195	82.77
822.373	113.49
822.551	185.17
822.729	179.03
822.907	86.87
823.085	166.74
823.262	115.54
823.44	119.64
823.618	27.48
823.796	101.2
823.974	183.12
824.152	84.82
824.329	119.64
824.507	74.58
824.685	119.64
824.863	99.16
825.04	156.5
825.218	138.07
825.396	101.2
825.574	191.31
825.751	136.02
825.929	84.82
826.107	144.21
826.284	64.34
826.462	170.83
826.639	54.1
826.817	127.83
826.994	105.3
827.172	33.62
827.349	78.68
827.527	64.34
827.704	127.83
827.882	7
828.059	41.81
828.237	101.2
828.414	68.44
828.591	80.72
828.769	144.21
828.946	52.05
829.124	43.86
829.301	78.68
829.478	107.35
829.655	142.16
829.833	84.82
830.01	39.76
830.187	99.16
830.364	164.69
830.542	154.45
830.719	107.35
830.896	113.49
831.073	164.69
831.25	54.1
831.427	140.12
831.604	70.48
831.782	76.63
831.959	64.34
832.136	101.2
832.313	86.87
832.49	82.77
832.667	31.57
832.844	39.76
833.021	74.58
833.198	68.44
833.374	74.58
833.551	72.53
833.728	37.72
833.905	50
834.082	58.2
834.259	99.16
834.436	78.68
834.612	60.24
834.789	54.1
834.966	74.58
835.143	56.15
835.319	76.63
835.496	47.96
835.673	88.92
835.85	133.97
836.026	86.87
836.203	66.39
836.38	11.09
836.556	64.34
836.733	111.44
836.909	105.3
837.086	52.05
837.262	115.54
837.439	148.31
837.616	76.63
837.792	60.24
837.968	80.72
838.145	31.57
838.321	84.82
838.498	84.82
838.674	136.02
838.851	115.54
839.027	33.62
839.203	50
839.38	45.91
839.556	15.19
839.732	-9.39
839.909	60.24
840.085	68.44
840.261	62.29
840.437	82.77
840.614	23.38
840.79	90.96
840.966	56.15
841.142	27.48
841.318	17.24
841.494	176.98
841.671	68.44
841.847	86.87
842.023	45.91
842.199	72.53
842.375	70.48
842.551	45.91
842.727	68.44
842.903	131.92
843.079	29.52
843.255	97.11
843.431	60.24
843.607	9.05
843.783	-9.39
843.959	-15.53
844.134	47.96
844.31	68.44
844.486	54.1
844.662	60.24
844.838	43.86
845.013	121.68
845.189	-5.29
845.365	125.78
845.541	66.39
845.716	74.58
845.892	95.06
846.068	41.81
846.244	82.77
846.419	33.62
846.595	17.24
846.77	35.67
846.946	66.39
847.122	39.76
847.297	76.63
847.473	68.44
847.648	-5.29
847.824	13.14
847.999	0.85
848.175	23.38
848.35	45.91
848.526	29.52
848.701	-11.43
848.876	37.72
849.052	72.53
849.227	-19.63
849.403	-23.72
849.578	19.29
849.753	62.29
849.929	121.68
850.104	35.67
850.279	58.2
850.454	15.19
850.63	45.91
850.805	37.72
850.98	56.15
851.155	50
851.33	56.15
851.505	0.85
851.681	-9.39
851.856	-25.77
852.031	9.05
852.206	66.39
852.381	37.72
852.556	13.14
852.731	58.2
852.906	76.63
853.081	17.24
853.256	80.72
853.431	-25.77
853.606	43.86
853.781	111.44
853.956	39.76
854.131	37.72
854.305	66.39
854.48	105.3
854.655	-17.58
854.83	39.76
855.005	17.24
855.18	50
855.354	17.24
855.529	62.29
855.704	39.76
855.879	43.86
856.053	37.72
856.228	80.72
856.403	35.67
856.577	109.4
856.752	33.62
856.926	47.96
857.101	33.62
857.276	72.53
857.45	39.76
857.625	80.72
857.799	2.9
857.974	62.29
858.148	50
858.323	0.85
858.497	43.86
858.672	152.4
858.846	-5.29
859.02	43.86
859.195	2.9
859.369	37.72
859.543	9.05
859.718	74.58
859.892	13.14
860.066	21.33
860.241	72.53
860.415	35.67
860.589	54.1
860.763	17.24
860.938	27.48
861.112	68.44
861.286	37.72
861.46	33.62
861.634	33.62
861.808	31.57
861.982	-21.67
862.157	43.86
862.331	45.91
862.505	7
862.679	-27.82
862.853	2.9
863.027	52.05
863.201	54.1
863.375	7
863.549	43.86
863.722	-15.53
863.896	39.76
864.07	-5.29
864.244	21.33
864.418	0.85
864.592	101.2
864.766	25.43
864.939	25.43
865.113	-36.01
865.287	88.92
865.461	-9.39
865.634	41.81
865.808	-5.29
865.982	52.05
866.156	23.38
866.329	-23.72
866.503	58.2
866.676	17.24
866.85	-60.59
867.024	27.48
867.197	15.19
867.371	80.72
867.544	68.44
867.718	31.57
867.891	86.87
868.065	23.38
868.238	-17.58
868.412	101.2
868.585	-29.87
868.759	11.09
868.932	50
869.105	35.67
869.279	-56.49
869.452	-1.19
869.625	29.52
869.799	33.62
869.972	-23.72
870.145	27.48
870.319	-44.2
870.492	-7.34
870.665	50
870.838	25.43
871.011	-40.11
871.185	31.57
871.358	-9.39
871.531	74.58
871.704	25.43
871.877	54.1
872.05	9.05
872.223	-48.3
872.396	-48.3
872.569	82.77
872.742	-1.19
872.915	43.86
873.088	33.62
873.261	-56.49
873.434	56.15
873.607	-11.43
873.78	37.72
873.953	-33.96
874.126	50
874.299	50
874.471	-54.44
874.644	88.92
874.817	35.67
874.99	33.62
875.163	64.34
875.335	25.43
875.508	41.81
875.681	43.86
875.853	-29.87
876.026	41.81
876.199	41.81
876.371	25.43
876.544	35.67
876.717	4.95
876.889	72.53
877.062	62.29
877.234	-50.35
877.407	-52.39
877.579	31.57
877.752	113.49
877.924	15.19
878.097	-17.58
878.269	15.19
878.442	4.95
878.614	-31.91
878.786	-15.53
878.959	-13.48
879.131	68.44
879.303	-29.87
879.476	78.68
879.648	25.43
879.82	15.19
879.993	-46.25
880.165	35.67
880.337	13.14
880.509	-17.58
880.681	-3.24
880.854	60.24
881.026	86.87
881.198	68.44
881.37	-62.63
881.542	29.52
881.714	45.91
881.886	-38.06
882.058	9.05
882.23	39.76
882.402	21.33
882.574	-50.35
882.746	-3.24
882.918	29.52
883.09	41.81
883.262	23.38
883.434	-21.67
883.606	-19.63
883.778	23.38
883.95	45.91
884.122	-9.39
884.293	-5.29
884.465	39.76
884.637	43.86
884.809	66.39
884.98	56.15
885.152	66.39
885.324	70.48
885.496	33.62
885.667	-31.91
885.839	-5.29
886.011	62.29
886.182	-25.77
886.354	-50.35
886.525	31.57
886.697	-5.29
886.869	-23.72
887.04	4.95
887.212	15.19
887.383	-27.82
887.555	31.57
887.726	4.95
887.897	50
888.069	-36.01
888.24	39.76
888.412	47.96
888.583	54.1
888.754	-36.01
888.926	4.95
889.097	50
889.268	17.24
889.44	29.52
889.611	-23.72
889.782	-66.73
889.953	-19.63
890.125	103.25
890.296	19.29
890.467	76.63
890.638	-89.26
890.809	-3.24
890.98	29.52
891.151	82.77
891.323	60.24
891.494	9.05
891.665	25.43
891.836	-19.63
892.007	56.15
892.178	41.81
892.349	-33.96
892.52	84.82
892.691	-25.77
892.862	-13.48
893.032	31.57
893.203	-3.24
893.374	-3.24
893.545	41.81
893.716	-40.11
893.887	17.24
894.057	25.43
894.228	58.2
894.399	-29.87
894.57	31.57
894.74	29.52
894.911	33.62
895.082	25.43
895.253	-19.63
895.423	35.67
895.594	25.43
895.764	19.29
895.935	2.9
896.106	-7.34
896.276	23.38
896.447	-17.58
896.617	4.95
896.788	-7.34
896.958	9.05
897.129	70.48
897.299	4.95
897.47	9.05
897.64	54.1
897.81	15.19
897.981	74.58
898.151	-15.53
898.322	86.87
898.492	86.87
898.662	33.62
898.832	-68.78
899.003	37.72
899.173	-19.63
899.343	-13.48
899.513	-1.19
