Data from USB4F104151__36__12-27-18-634.txt Node

Date: Fri Mar 14 12:27:18 EDT 2025
User: louis
Spectrometer: USB4F10415
Trigger mode: 4
Integration Time (sec): 2.000000E-2
Scans to average: 1
Electric dark correction enabled: true
Nonlinearity correction enabled: false
Boxcar width: 0
XAxis mode: Wavelengths
Number of Pixels in Spectrum: 3648
>>>>>Begin Spectral Data<<<<<
178.204	-72.02
178.424	-72.02
178.644	-72.02
178.864	-53.59
179.084	-102.74
179.304	1.71
179.524	-22.87
179.744	-20.82
179.964	26.28
180.184	38.57
180.404	-47.44
180.624	-26.96
180.844	44.71
181.064	-53.59
181.283	9.9
181.503	11.95
181.723	38.57
181.943	16.04
182.163	-26.96
182.383	3.75
182.602	93.87
182.822	-47.44
183.042	26.28
183.262	-112.98
183.482	40.62
183.701	-61.78
183.921	-53.59
184.141	-24.92
184.361	97.96
184.58	34.47
184.8	40.62
185.02	-14.68
185.239	-31.06
185.459	-18.77
185.679	75.43
185.898	-69.97
186.118	-33.11
186.338	18.09
186.557	16.04
186.777	50.86
186.997	34.47
187.216	-55.64
187.436	42.67
187.655	28.33
187.875	73.39
188.095	-14.68
188.314	85.67
188.534	16.04
188.753	-16.73
188.973	-49.49
189.192	46.76
189.412	50.86
189.631	20.14
189.851	-10.58
190.07	36.52
190.29	36.52
190.509	-31.06
190.729	-45.4
190.948	-0.34
191.168	7.85
191.387	63.15
191.607	-61.78
191.826	24.23
192.045	-2.39
192.265	13.99
192.484	20.14
192.704	-33.11
192.923	3.75
193.142	71.34
193.362	-14.68
193.581	42.67
193.8	-18.77
194.02	97.96
194.239	-2.39
194.458	-29.01
194.678	-22.87
194.897	-10.58
195.116	16.04
195.335	38.57
195.555	18.09
195.774	5.8
195.993	7.85
196.212	-33.11
196.432	-14.68
196.651	-2.39
196.87	-2.39
197.089	95.91
197.308	-26.96
197.528	38.57
197.747	5.8
197.966	-8.53
198.185	75.43
198.404	42.67
198.623	7.85
198.842	36.52
199.062	28.33
199.281	5.8
199.5	-14.68
199.719	-45.4
199.938	-20.82
200.157	24.23
200.376	-24.92
200.595	-37.2
200.814	20.14
201.033	13.99
201.252	97.96
201.471	38.57
201.69	3.75
201.909	46.76
202.128	71.34
202.347	40.62
202.566	71.34
202.785	38.57
203.004	34.47
203.223	3.75
203.442	42.67
203.661	67.24
203.879	26.28
204.098	9.9
204.317	61.1
204.536	34.47
204.755	-29.01
204.974	16.04
205.193	-22.87
205.411	124.58
205.63	97.96
205.849	40.62
206.068	1.71
206.287	38.57
206.505	65.19
206.724	-22.87
206.943	67.24
207.162	5.8
207.381	24.23
207.599	-16.73
207.818	26.28
208.037	-12.63
208.255	11.95
208.474	24.23
208.693	13.99
208.911	59.05
209.13	-22.87
209.349	48.81
209.567	63.15
209.786	16.04
210.005	20.14
210.223	-57.68
210.442	16.04
210.661	67.24
210.879	44.71
211.098	46.76
211.316	-24.92
211.535	65.19
211.753	-37.2
211.972	-0.34
212.191	-6.49
212.409	-20.82
212.628	20.14
212.846	24.23
213.065	20.14
213.283	100.01
213.502	42.67
213.72	48.81
213.938	3.75
214.157	-24.92
214.375	22.19
214.594	-4.44
214.812	20.14
215.031	-22.87
215.249	18.09
215.467	26.28
215.686	9.9
215.904	44.71
216.122	-2.39
216.341	-0.34
216.559	50.86
216.778	-18.77
216.996	38.57
217.214	5.8
217.432	-63.83
217.651	28.33
217.869	7.85
218.087	59.05
218.306	34.47
218.524	22.19
218.742	-35.16
218.96	-80.21
219.179	22.19
219.397	77.48
219.615	5.8
219.833	57
220.051	-69.97
220.27	13.99
220.488	11.95
220.706	44.71
220.924	-39.25
221.142	50.86
221.36	20.14
221.578	5.8
221.796	-2.39
222.015	128.68
222.233	85.67
222.451	24.23
222.669	-18.77
222.887	52.91
223.105	-24.92
223.323	-33.11
223.541	-37.2
223.759	59.05
223.977	52.91
224.195	32.43
224.413	50.86
224.631	-10.58
224.849	44.71
225.067	-2.39
225.285	3.75
225.503	46.76
225.721	-33.11
225.939	48.81
226.157	-24.92
226.375	116.39
226.592	-29.01
226.81	-10.58
227.028	40.62
227.246	143.02
227.464	-10.58
227.682	3.75
227.9	3.75
228.117	73.39
228.335	57
228.553	40.62
228.771	16.04
228.989	-43.35
229.206	-33.11
229.424	3.75
229.642	44.71
229.86	7.85
230.077	-18.77
230.295	-22.87
230.513	28.33
230.731	71.34
230.948	50.86
231.166	24.23
231.384	108.2
231.601	5.8
231.819	91.82
232.037	-8.53
232.254	20.14
232.472	18.09
232.689	-18.77
232.907	3.75
233.125	-33.11
233.342	-0.34
233.56	32.43
233.777	24.23
233.995	-20.82
234.213	73.39
234.43	-0.34
234.648	26.28
234.865	-0.34
235.083	46.76
235.3	-53.59
235.518	67.24
235.735	-26.96
235.953	50.86
236.17	87.72
236.388	-6.49
236.605	-41.3
236.822	67.24
237.04	22.19
237.257	-0.34
237.475	-6.49
237.692	75.43
237.909	11.95
238.127	-37.2
238.344	57
238.562	32.43
238.779	13.99
238.996	-43.35
239.214	44.71
239.431	102.06
239.648	36.52
239.865	61.1
240.083	-0.34
240.3	-6.49
240.517	81.58
240.735	5.8
240.952	-39.25
241.169	9.9
241.386	-20.82
241.603	-53.59
241.821	30.38
242.038	30.38
242.255	18.09
242.472	-18.77
242.689	-2.39
242.907	77.48
243.124	-10.58
243.341	1.71
243.558	-35.16
243.775	5.8
243.992	-4.44
244.209	48.81
244.426	48.81
244.643	77.48
244.86	-49.49
245.078	40.62
245.295	22.19
245.512	-18.77
245.729	65.19
245.946	106.15
246.163	-6.49
246.38	97.96
246.597	73.39
246.814	26.28
247.031	-33.11
247.248	36.52
247.464	26.28
247.681	-0.34
247.898	-6.49
248.115	106.15
248.332	20.14
248.549	26.28
248.766	73.39
248.983	-2.39
249.2	38.57
249.417	20.14
249.633	-41.3
249.85	44.71
250.067	3.75
250.284	-6.49
250.501	67.24
250.717	36.52
250.934	-59.73
251.151	-14.68
251.368	-29.01
251.585	22.19
251.801	57
252.018	-26.96
252.235	71.34
252.451	-55.64
252.668	59.05
252.885	61.1
253.102	3.75
253.318	38.57
253.535	13.99
253.752	9.9
253.968	44.71
254.185	-67.92
254.401	85.67
254.618	-2.39
254.835	-16.73
255.051	30.38
255.268	44.71
255.484	30.38
255.701	7.85
255.917	50.86
256.134	-45.4
256.351	83.63
256.567	36.52
256.784	-10.58
257	-29.01
257.217	106.15
257.433	54.95
257.65	122.54
257.866	-20.82
258.082	67.24
258.299	-49.49
258.515	102.06
258.732	32.43
258.948	30.38
259.165	52.91
259.381	46.76
259.597	75.43
259.814	24.23
260.03	11.95
260.246	48.81
260.463	75.43
260.679	36.52
260.895	-47.44
261.112	7.85
261.328	46.76
261.544	-39.25
261.761	46.76
261.977	-2.39
262.193	28.33
262.409	-39.25
262.626	3.75
262.842	40.62
263.058	-12.63
263.274	42.67
263.49	36.52
263.707	54.95
263.923	26.28
264.139	20.14
264.355	-37.2
264.571	28.33
264.787	46.76
265.004	79.53
265.22	48.81
265.436	9.9
265.652	34.47
265.868	24.23
266.084	1.71
266.3	-12.63
266.516	36.52
266.732	-22.87
266.948	-12.63
267.164	106.15
267.38	-16.73
267.596	79.53
267.812	5.8
268.028	20.14
268.244	89.77
268.46	69.29
268.676	7.85
268.892	104.11
269.108	-67.92
269.324	79.53
269.54	-39.25
269.756	-6.49
269.972	-26.96
270.188	44.71
270.403	-12.63
270.619	40.62
270.835	85.67
271.051	16.04
271.267	-10.58
271.483	46.76
271.698	42.67
271.914	-4.44
272.13	18.09
272.346	48.81
272.562	28.33
272.777	48.81
272.993	-14.68
273.209	-37.2
273.425	42.67
273.64	22.19
273.856	36.52
274.072	24.23
274.287	-31.06
274.503	-41.3
274.719	54.95
274.934	20.14
275.15	-37.2
275.366	93.87
275.581	73.39
275.797	79.53
276.012	97.96
276.228	-10.58
276.444	24.23
276.659	75.43
276.875	28.33
277.09	-6.49
277.306	48.81
277.521	9.9
277.737	18.09
277.952	20.14
278.168	-6.49
278.383	44.71
278.599	5.8
278.814	46.76
279.03	16.04
279.245	9.9
279.461	1.71
279.676	30.38
279.892	-31.06
280.107	42.67
280.322	-10.58
280.538	32.43
280.753	-53.59
280.969	48.81
281.184	-10.58
281.399	54.95
281.615	22.19
281.83	30.38
282.045	-49.49
282.26	7.85
282.476	-2.39
282.691	3.75
282.906	34.47
283.122	44.71
283.337	-12.63
283.552	1.71
283.767	-35.16
283.983	52.91
284.198	11.95
284.413	44.71
284.628	-117.08
284.843	18.09
285.058	26.28
285.274	69.29
285.489	-18.77
285.704	57
285.919	-8.53
286.134	42.67
286.349	44.71
286.564	7.85
286.779	34.47
286.995	1.71
287.21	77.48
287.425	-10.58
287.64	34.47
287.855	40.62
288.07	9.9
288.285	-14.68
288.5	108.2
288.715	67.24
288.93	-57.68
289.145	-16.73
289.36	118.44
289.575	-51.54
289.79	54.95
290.004	34.47
290.219	16.04
290.434	-14.68
290.649	36.52
290.864	38.57
291.079	-20.82
291.294	38.57
291.509	-74.07
291.724	-16.73
291.938	5.8
292.153	1.71
292.368	-26.96
292.583	42.67
292.798	73.39
293.012	-41.3
293.227	59.05
293.442	-90.45
293.657	50.86
293.871	63.15
294.086	57
294.301	34.47
294.516	16.04
294.73	61.1
294.945	87.72
295.16	7.85
295.374	38.57
295.589	30.38
295.804	13.99
296.018	24.23
296.233	77.48
296.447	22.19
296.662	-8.53
296.877	22.19
297.091	16.04
297.306	44.71
297.52	11.95
297.735	59.05
297.949	32.43
298.164	42.67
298.378	48.81
298.593	-8.53
298.807	-8.53
299.022	57
299.236	24.23
299.451	91.82
299.665	22.19
299.88	57
300.094	36.52
300.309	13.99
300.523	36.52
300.737	38.57
300.952	44.71
301.166	-16.73
301.381	-63.83
301.595	106.15
301.809	-53.59
302.024	18.09
302.238	38.57
302.452	57
302.667	-43.35
302.881	38.57
303.095	36.52
303.309	61.1
303.524	69.29
303.738	-20.82
303.952	1.71
304.166	48.81
304.381	20.14
304.595	61.1
304.809	5.8
305.023	22.19
305.237	-47.44
305.452	81.58
305.666	81.58
305.88	59.05
306.094	20.14
306.308	7.85
306.522	-16.73
306.736	30.38
306.95	34.47
307.164	-4.44
307.379	-12.63
307.593	-4.44
307.807	79.53
308.021	44.71
308.235	34.47
308.449	-14.68
308.663	3.75
308.877	52.91
309.091	-14.68
309.305	5.8
309.519	-47.44
309.733	20.14
309.947	9.9
310.161	81.58
310.374	30.38
310.588	77.48
310.802	28.33
311.016	-0.34
311.23	38.57
311.444	3.75
311.658	-16.73
311.872	50.86
312.085	11.95
312.299	67.24
312.513	24.23
312.727	13.99
312.941	20.14
313.154	54.95
313.368	54.95
313.582	18.09
313.796	-14.68
314.009	26.28
314.223	69.29
314.437	-4.44
314.651	9.9
314.864	44.71
315.078	57
315.292	-2.39
315.505	7.85
315.719	48.81
315.933	16.04
316.146	11.95
316.36	-20.82
316.573	77.48
316.787	40.62
317.001	42.67
317.214	-18.77
317.428	100.01
317.641	-63.83
317.855	93.87
318.068	13.99
318.282	38.57
318.495	30.38
318.709	71.34
318.922	-39.25
319.136	-14.68
319.349	22.19
319.563	-0.34
319.776	52.91
319.99	-39.25
320.203	32.43
320.417	59.05
320.63	5.8
320.843	-18.77
321.057	59.05
321.27	-18.77
321.483	13.99
321.697	30.38
321.91	50.86
322.124	69.29
322.337	50.86
322.55	122.54
322.763	57
322.977	40.62
323.19	-16.73
323.403	5.8
323.617	73.39
323.83	-18.77
324.043	-20.82
324.256	18.09
324.469	1.71
324.683	20.14
324.896	1.71
325.109	-10.58
325.322	36.52
325.535	54.95
325.748	61.1
325.962	63.15
326.175	50.86
326.388	100.01
326.601	50.86
326.814	40.62
327.027	20.14
327.24	40.62
327.453	-8.53
327.666	11.95
327.879	57
328.092	1.71
328.305	79.53
328.518	5.8
328.731	9.9
328.944	13.99
329.157	32.43
329.37	-10.58
329.583	69.29
329.796	65.19
330.009	-39.25
330.222	65.19
330.435	61.1
330.648	-14.68
330.861	24.23
331.073	-47.44
331.286	26.28
331.499	30.38
331.712	24.23
331.925	-24.92
332.138	-29.01
332.35	85.67
332.563	30.38
332.776	36.52
332.989	5.8
333.202	-20.82
333.414	-6.49
333.627	-53.59
333.84	-24.92
334.053	52.91
334.265	24.23
334.478	73.39
334.691	22.19
334.903	-45.4
335.116	11.95
335.329	36.52
335.541	67.24
335.754	77.48
335.966	24.23
336.179	-26.96
336.392	7.85
336.604	65.19
336.817	75.43
337.029	16.04
337.242	65.19
337.454	11.95
337.667	-4.44
337.88	-12.63
338.092	-37.2
338.305	69.29
338.517	-24.92
338.729	11.95
338.942	22.19
339.154	-76.12
339.367	32.43
339.579	36.52
339.792	67.24
340.004	20.14
340.217	97.96
340.429	42.67
340.641	26.28
340.854	-29.01
341.066	18.09
341.278	-20.82
341.491	63.15
341.703	81.58
341.915	-26.96
342.128	3.75
342.34	44.71
342.552	7.85
342.764	57
342.977	-10.58
343.189	-12.63
343.401	97.96
343.613	9.9
343.826	89.77
344.038	48.81
344.25	87.72
344.462	48.81
344.674	59.05
344.886	54.95
345.099	5.8
345.311	57
345.523	-12.63
345.735	-69.97
345.947	5.8
346.159	32.43
346.371	42.67
346.583	-72.02
346.795	73.39
347.007	20.14
347.219	-10.58
347.431	-33.11
347.643	57
347.855	-88.4
348.067	26.28
348.279	11.95
348.491	18.09
348.703	5.8
348.915	-18.77
349.127	46.76
349.339	22.19
349.551	50.86
349.763	-12.63
349.975	28.33
350.187	65.19
350.399	83.63
350.61	38.57
350.822	52.91
351.034	18.09
351.246	-57.68
351.458	114.34
351.669	114.34
351.881	69.29
352.093	81.58
352.305	108.2
352.517	11.95
352.728	20.14
352.94	26.28
353.152	36.52
353.363	9.9
353.575	114.34
353.787	118.44
353.999	54.95
354.21	71.34
354.422	44.71
354.633	89.77
354.845	5.8
355.057	50.86
355.268	-29.01
355.48	44.71
355.692	57
355.903	38.57
356.115	26.28
356.326	3.75
356.538	36.52
356.749	59.05
356.961	93.87
357.172	85.67
357.384	73.39
357.595	59.05
357.807	40.62
358.018	50.86
358.23	50.86
358.441	104.11
358.653	-24.92
358.864	-37.2
359.075	-4.44
359.287	38.57
359.498	85.67
359.709	48.81
359.921	5.8
360.132	22.19
360.344	7.85
360.555	59.05
360.766	-24.92
360.977	79.53
361.189	20.14
361.4	3.75
361.611	20.14
361.823	32.43
362.034	65.19
362.245	-35.16
362.456	20.14
362.667	44.71
362.879	-26.96
363.09	42.67
363.301	11.95
363.512	32.43
363.723	85.67
363.935	30.38
364.146	36.52
364.357	13.99
364.568	71.34
364.779	40.62
364.99	-0.34
365.201	-41.3
365.412	44.71
365.623	-24.92
365.834	63.15
366.045	13.99
366.256	79.53
366.467	18.09
366.678	83.63
366.889	52.91
367.1	18.09
367.311	42.67
367.522	32.43
367.733	61.1
367.944	57
368.155	57
368.366	46.76
368.577	67.24
368.788	50.86
368.999	30.38
369.209	28.33
369.42	32.43
369.631	73.39
369.842	-0.34
370.053	52.91
370.264	57
370.474	-12.63
370.685	54.95
370.896	16.04
371.107	79.53
371.317	54.95
371.528	5.8
371.739	63.15
371.95	24.23
372.16	59.05
372.371	36.52
372.582	44.71
372.792	40.62
373.003	-0.34
373.214	40.62
373.424	-10.58
373.635	20.14
373.846	40.62
374.056	-41.3
374.267	81.58
374.477	3.75
374.688	-0.34
374.898	36.52
375.109	65.19
375.319	36.52
375.53	71.34
375.74	11.95
375.951	3.75
376.161	30.38
376.372	73.39
376.582	63.15
376.793	3.75
377.003	32.43
377.214	3.75
377.424	28.33
377.635	57
377.845	26.28
378.055	-26.96
378.266	42.67
378.476	36.52
378.686	7.85
378.897	48.81
379.107	89.77
379.317	-8.53
379.528	104.11
379.738	61.1
379.948	20.14
380.158	-0.34
380.369	-12.63
380.579	71.34
380.789	83.63
380.999	42.67
381.21	3.75
381.42	71.34
381.63	7.85
381.84	83.63
382.05	1.71
382.261	73.39
382.471	30.38
382.681	16.04
382.891	65.19
383.101	48.81
383.311	24.23
383.521	85.67
383.731	108.2
383.941	75.43
384.151	71.34
384.361	18.09
384.571	46.76
384.781	63.15
384.991	40.62
385.201	26.28
385.411	1.71
385.621	73.39
385.831	-4.44
386.041	44.71
386.251	52.91
386.461	36.52
386.671	30.38
386.881	71.34
387.091	9.9
387.301	48.81
387.511	30.38
387.72	24.23
387.93	26.28
388.14	-12.63
388.35	50.86
388.56	44.71
388.769	32.43
388.979	40.62
389.189	44.71
389.399	67.24
389.609	75.43
389.818	173.74
390.028	-0.34
390.238	71.34
390.447	-43.35
390.657	108.2
390.867	-49.49
391.076	32.43
391.286	71.34
391.496	-8.53
391.705	-2.39
391.915	20.14
392.125	95.91
392.334	40.62
392.544	89.77
392.753	44.71
392.963	40.62
393.172	24.23
393.382	18.09
393.591	67.24
393.801	3.75
394.01	54.95
394.22	16.04
394.429	52.91
394.639	28.33
394.848	-4.44
395.058	50.86
395.267	44.71
395.477	38.57
395.686	102.06
395.895	71.34
396.105	73.39
396.314	93.87
396.524	30.38
396.733	87.72
396.942	100.01
397.152	63.15
397.361	63.15
397.57	54.95
397.78	151.21
397.989	73.39
398.198	106.15
398.407	18.09
398.617	91.82
398.826	110.25
399.035	97.96
399.244	22.19
399.453	54.95
399.663	44.71
399.872	114.34
400.081	-0.34
400.29	65.19
400.499	116.39
400.708	59.05
400.917	138.92
401.127	89.77
401.336	34.47
401.545	104.11
401.754	81.58
401.963	112.3
402.172	102.06
402.381	42.67
402.59	102.06
402.799	63.15
403.008	128.68
403.217	116.39
403.426	61.1
403.635	114.34
403.844	102.06
404.053	145.06
404.262	83.63
404.471	97.96
404.68	63.15
404.888	44.71
405.097	147.11
405.306	104.11
405.515	89.77
405.724	124.58
405.933	120.49
406.142	132.78
406.35	157.35
406.559	89.77
406.768	183.98
406.977	196.26
407.185	200.36
407.394	186.02
407.603	106.15
407.812	118.44
408.02	157.35
408.229	181.93
408.438	202.41
408.646	229.03
408.855	204.46
409.064	267.94
409.272	269.99
409.481	243.37
409.69	159.4
409.898	138.92
410.107	177.83
410.315	208.55
410.524	276.13
410.733	192.17
410.941	292.52
411.15	243.37
411.358	280.23
411.567	263.85
411.775	284.33
411.984	323.24
412.192	310.95
412.401	298.66
412.609	313
412.818	380.58
413.026	419.49
413.234	362.15
413.443	497.32
413.651	470.69
413.86	433.83
414.068	519.84
414.276	482.98
414.485	466.6
414.693	489.12
414.901	487.08
415.11	571.04
415.318	558.75
415.526	566.95
415.734	655.01
415.943	614.05
416.151	650.91
416.359	648.86
416.567	708.26
416.776	657.06
416.984	706.21
417.192	786.08
417.4	714.4
417.608	814.75
417.817	831.13
418.025	845.47
418.233	894.62
418.441	872.09
418.649	962.2
418.857	941.72
419.065	1021.6
419.273	1046.17
419.481	999.07
419.689	1146.52
419.897	1181.34
420.105	1162.9
420.313	1244.82
420.521	1259.16
420.729	1312.41
420.937	1316.5
421.145	1332.89
421.353	1472.15
421.561	1504.92
421.769	1572.5
421.977	1515.16
422.185	1644.18
422.393	1635.99
422.601	1873.55
422.809	1773.2
423.017	1830.54
423.224	1838.73
423.432	1924.75
423.64	1947.28
423.848	2125.45
424.056	2033.29
424.263	2317.96
424.471	2342.53
424.679	2277
424.887	2457.22
425.094	2469.51
425.302	2524.8
425.51	2543.24
425.718	2610.82
425.925	2702.98
426.133	2850.43
426.341	2979.45
426.548	3200.63
426.756	3026.56
426.964	3131
427.171	3284.6
427.379	3405.43
427.586	3436.15
427.794	3526.26
428.001	3708.53
428.209	3911.28
428.417	3815.02
428.624	4107.88
428.832	4099.69
429.039	4140.65
429.247	4109.93
429.454	4583.01
429.662	4877.92
429.869	4591.2
430.076	4822.63
430.284	4716.13
430.491	4800.1
430.699	5142.11
430.906	5367.38
431.114	5283.42
431.321	5201.5
431.528	5389.91
431.736	5836.37
431.943	6139.47
432.15	5795.41
432.358	6002.26
432.565	6344.27
432.772	6243.92
432.979	6544.97
433.187	6782.53
433.394	6872.64
433.601	7202.36
433.808	7228.99
434.016	7188.03
434.223	7503.42
434.43	7757.36
434.637	7859.76
434.844	8228.4
435.052	8539.69
435.259	8523.3
435.466	8484.39
435.673	8474.15
435.88	9123.36
436.087	9578.01
436.294	9545.24
436.501	9184.8
436.708	9463.32
436.915	9743.89
437.122	10073.62
437.329	10266.13
437.537	10608.14
437.743	10673.67
437.95	10597.9
438.157	11075.07
438.364	11507.2
438.571	11496.96
438.778	11597.31
438.985	12778.98
439.192	12019.19
439.399	12533.23
439.606	12166.64
439.813	13006.31
440.02	13661.66
440.227	13424.09
440.433	13266.4
440.64	13823.45
440.847	13577.69
441.054	14054.87
441.261	15228.35
441.467	14867.91
441.674	15068.61
441.881	16006.58
442.088	15756.73
442.294	15644.09
442.501	15898.04
442.708	16102.84
442.914	17010.09
443.121	17814.94
443.328	17221.03
443.534	18482.58
443.741	17673.63
443.948	17503.65
444.154	18894.22
444.361	18822.54
444.568	18816.4
444.774	18861.45
444.981	19066.25
445.187	19946.87
445.394	20462.96
445.6	20430.19
445.807	22095.19
446.013	21374.31
446.22	21677.41
446.426	22523.22
446.633	22642
446.839	23475.52
447.046	22433.11
447.252	23764.29
447.459	23960.89
447.665	23811.39
447.871	25156.91
448.078	26217.75
448.284	24982.83
448.491	25191.72
448.697	26297.63
448.903	26821.91
449.11	26985.74
449.316	26572.05
449.522	26907.92
449.728	27641.09
449.935	28226.81
450.141	27845.89
450.347	28734.71
450.553	27395.34
450.76	27954.43
450.966	29189.36
451.172	28699.89
451.378	29582.57
451.584	28919.03
451.791	29533.42
451.997	29689.06
452.203	29910.24
452.409	30092.51
452.615	30203.1
452.821	28722.42
453.027	28564.73
453.233	30026.98
453.44	28820.72
453.646	28990.7
453.852	29281.52
454.058	29893.86
454.264	28898.55
454.47	29140.21
454.676	28638.45
454.882	29508.84
455.088	27534.6
455.294	27309.32
455.5	27749.64
455.705	28347.64
455.911	27323.66
456.117	26660.12
456.323	26320.15
456.529	24896.81
456.735	26015.01
456.941	25247.02
457.147	24905.01
457.352	24077.63
457.558	23768.38
457.764	23911.74
457.97	23733.57
458.176	23119.18
458.381	23170.38
458.587	21900.64
458.793	21640.54
458.999	20872.56
459.204	22132.06
459.41	21708.13
459.616	20012.41
459.821	20161.91
460.027	20166.01
460.233	19641.73
460.438	18679.18
460.644	18742.67
460.85	18183.57
461.055	18001.3
461.261	17696.16
461.466	16524.72
461.672	15826.36
461.878	17184.16
462.083	16035.25
462.289	15713.72
462.494	15707.58
462.7	14706.12
462.905	14464.46
463.111	14968.26
463.316	14972.36
463.522	14497.23
463.727	14691.79
463.932	14867.91
464.138	14431.69
464.343	14618.06
464.549	14282.19
464.754	14527.95
464.959	14290.38
465.165	14233.04
465.37	13708.76
465.575	13440.48
465.781	13831.64
465.986	14040.53
466.191	13538.78
466.397	13417.95
466.602	13041.12
466.807	13067.75
467.012	13139.43
467.218	13225.44
467.423	13006.31
467.628	12903.91
467.833	13745.62
468.038	13057.51
468.244	12670.44
468.449	13166.05
468.654	12768.74
468.859	12819.94
469.064	12586.47
469.269	12076.53
469.474	12060.15
469.679	12289.52
469.885	12111.35
470.09	12226.03
470.295	11982.32
470.5	11859.45
470.705	11996.66
470.91	11681.27
471.115	11496.96
471.32	11795.96
471.525	11556.35
471.73	11294.21
471.935	11159.04
472.139	11093.51
472.344	11040.26
472.549	10980.87
472.754	10909.19
472.959	10589.71
473.164	10456.59
473.369	10307.09
473.574	10853.89
473.778	10599.94
473.983	10501.64
474.188	10540.55
474.393	10020.37
474.598	9993.75
474.802	10020.37
475.007	9704.98
475.212	9895.44
475.417	9512.47
475.621	9594.39
475.826	9696.79
476.031	9231.9
476.235	9254.43
476.44	9446.94
476.645	9236
476.849	9188.89
477.054	8875.56
477.259	8873.51
477.463	9053.73
477.668	8701.48
477.872	8703.53
478.077	8465.96
478.282	8441.39
478.486	8461.87
478.691	8396.33
478.895	8355.37
479.1	8279.6
479.304	8357.42
479.509	7968.31
479.713	8144.43
479.918	7888.43
480.122	7999.02
480.326	7949.87
480.531	8226.35
480.735	8085.04
480.94	7794.23
481.144	8107.57
481.348	7710.26
481.553	7728.69
481.757	7558.71
481.961	7712.31
482.166	7808.56
482.37	7624.25
482.574	7566.9
482.778	7605.81
482.983	7886.39
483.187	7685.69
483.391	7831.09
483.595	7716.4
483.8	7571
484.004	7673.4
484.208	7697.97
484.412	7710.26
484.616	7624.25
484.821	7757.36
485.025	7558.71
485.229	7851.57
485.433	7566.9
485.637	7888.43
485.841	7523.9
486.045	7726.64
486.249	7683.64
486.453	7468.6
486.657	7779.89
486.861	7700.02
487.065	7444.03
487.269	7769.65
487.473	7560.76
487.677	7786.04
487.881	7681.59
488.085	7800.37
488.289	7622.2
488.493	7568.95
488.697	7777.84
488.901	7925.3
489.105	7753.27
489.309	7759.41
489.512	7581.24
489.716	7845.43
489.92	7542.33
490.124	7605.81
490.328	7835.19
490.531	7857.71
490.735	7759.41
490.939	7812.66
491.143	7700.02
491.346	7933.49
491.55	7984.69
491.754	7849.52
491.958	7882.29
492.161	8109.61
492.365	8136.24
492.569	7923.25
492.772	8003.12
492.976	8144.43
493.18	8154.67
493.383	8259.12
493.587	8418.86
493.79	8388.14
493.994	8236.59
494.197	8427.05
494.401	8427.05
494.605	8361.52
494.808	8470.06
495.012	8515.11
495.215	8590.89
495.419	8838.69
495.622	8683.05
495.825	8967.71
496.029	8881.7
496.232	9236
496.436	9207.33
496.639	9268.77
496.843	9303.58
497.046	9469.47
497.249	9567.77
497.453	9573.91
497.656	9430.55
497.859	9637.4
498.063	9766.42
498.266	9745.94
498.469	9995.79
498.673	9963.03
498.876	10124.82
499.079	10300.94
499.282	10155.54
499.485	10460.68
499.689	10591.75
499.892	10657.29
500.095	10862.08
500.298	11083.27
500.501	10939.91
500.705	11202.05
500.908	11281.92
501.111	11582.97
501.314	11603.45
501.517	11570.68
501.72	11599.35
501.923	11855.35
502.126	12199.41
502.329	12342.77
502.532	12299.76
502.735	12393.97
502.938	12596.71
503.141	12645.87
503.344	13024.74
503.547	12699.11
503.75	13077.99
503.953	13297.12
504.156	13213.15
504.359	13467.1
504.562	13581.79
504.765	13782.49
504.968	13860.31
505.17	14136.79
505.373	13981.14
505.576	14390.74
505.779	14564.81
505.982	14478.8
506.185	15013.32
506.387	14855.62
506.59	15230.4
506.793	15283.65
506.996	15259.07
507.198	15627.71
507.401	15545.79
507.604	15615.42
507.807	16115.12
508.009	16188.85
508.212	16350.64
508.415	16721.32
508.617	16618.93
508.82	16782.76
509.022	16985.51
509.225	16954.79
509.428	17245.6
509.63	17141.16
509.833	17360.29
510.035	17763.74
510.238	17929.63
510.44	17960.34
510.643	18427.28
510.845	18806.16
511.048	18494.86
511.25	18666.89
511.453	18699.66
511.655	19608.96
511.858	19344.77
512.06	19541.38
512.262	19688.83
512.465	19690.88
512.667	20198.77
512.87	20239.73
513.072	20450.67
513.274	20794.73
513.477	20890.99
513.679	20931.95
513.881	20921.71
514.084	21151.08
514.286	21216.61
514.488	21581.15
514.69	22046.04
514.893	22113.63
515.095	22279.51
515.297	22394.2
515.499	22482.26
515.701	22635.86
515.904	23108.94
516.106	22807.89
516.308	23309.64
516.51	23733.57
516.712	23692.61
516.914	23872.83
517.116	24374.58
517.318	24233.27
517.52	24257.85
517.722	24468.79
517.925	24798.51
518.127	25281.83
518.329	24917.29
518.531	25345.32
518.733	25584.93
518.935	25707.81
519.136	25947.42
519.338	26209.56
519.54	26469.65
519.742	26445.08
519.944	26770.71
520.146	27143.44
520.348	26924.3
520.55	27178.25
520.752	27305.23
520.954	27743.49
521.155	27725.06
521.357	27809.03
521.559	28153.09
521.761	28445.94
521.963	28433.66
522.164	28843.25
522.366	28992.75
522.568	28790
522.77	29205.74
522.971	29678.82
523.173	29586.66
523.375	30033.12
523.576	29793.51
523.778	29816.04
523.98	30362.84
524.181	30639.32
524.383	30272.73
524.584	30960.85
524.786	30817.49
524.988	30571.74
525.189	31290.57
525.391	31261.9
525.592	31139.02
525.794	31352.01
525.995	31356.11
526.197	31405.26
526.398	31587.53
526.6	32220.35
526.801	31978.69
527.003	32285.89
527.204	32120
527.406	32347.33
527.607	32326.85
527.808	32644.28
528.01	32369.85
528.211	32441.53
528.412	33150.13
528.614	33141.94
528.815	33021.11
529.016	33152.18
529.218	32859.32
529.419	33289.39
529.62	33248.43
529.822	33301.68
530.023	33508.52
530.224	33574.06
530.425	33295.53
530.626	33246.38
530.828	33518.76
531.029	33871.01
531.23	33471.66
531.431	33309.87
531.632	33502.38
531.833	33850.53
532.035	33465.52
532.236	33672.36
532.437	33698.98
532.638	33842.34
532.839	34249.89
533.04	33903.78
533.241	33549.48
533.442	33979.56
533.643	33768.62
533.844	33975.46
534.045	34225.31
534.246	34303.14
534.447	34397.34
534.648	34112.67
534.849	34260.13
535.05	33660.07
535.251	34206.88
535.451	33664.17
535.652	34020.52
535.853	33719.46
536.054	34124.96
536.255	34489.5
536.456	33426.6
536.657	34526.36
536.857	34043.04
537.058	33799.33
537.259	34153.63
537.46	34385.05
537.66	34096.29
537.861	34245.79
538.062	33821.86
538.263	34170.02
538.463	33791.14
538.664	34104.48
538.865	34114.72
539.065	33930.4
539.266	33541.29
539.466	34579.61
539.667	33911.97
539.868	34462.88
540.068	34159.78
540.269	34116.77
540.469	33842.34
540.67	34059.43
540.87	34014.37
541.071	34215.07
541.271	34018.47
541.472	33928.36
541.672	33969.32
541.873	33961.12
542.073	33717.42
542.274	34034.85
542.474	33905.83
542.675	33954.98
542.875	34223.26
543.075	33834.15
543.276	33408.17
543.476	34362.53
543.676	33572.01
543.877	34186.4
544.077	33832.1
544.277	33713.32
544.478	33752.23
544.678	34006.18
544.878	33924.26
545.078	33985.7
545.279	33666.22
545.479	33725.61
545.679	33959.08
545.879	33750.18
546.079	33911.97
546.28	34022.56
546.48	33594.54
546.68	34002.08
546.88	33725.61
547.08	33795.24
547.28	33723.56
547.48	33559.72
547.68	33682.6
547.88	33684.65
548.081	34067.62
548.281	34014.37
548.481	33664.17
548.681	34055.33
548.881	33498.28
549.081	34026.66
549.28	33647.79
549.48	33862.82
549.68	33612.97
549.88	33948.84
550.08	33481.9
550.28	33905.83
550.48	33453.23
550.68	33852.58
550.88	33463.47
551.08	33256.62
551.279	33766.57
551.479	33307.82
551.679	33602.73
551.879	33416.36
552.079	33453.23
552.278	33471.66
552.478	33455.28
552.678	33412.27
552.878	34014.37
553.077	33510.57
553.277	33395.89
553.477	33510.57
553.676	33344.69
553.876	33170.61
554.076	33447.08
554.275	33242.29
554.475	33037.49
554.674	33688.74
554.874	33375.41
555.074	33490.09
555.273	33455.28
555.473	33526.96
555.672	32980.15
555.872	33277.1
556.071	33225.9
556.271	33217.71
556.47	33072.31
556.67	33010.87
556.869	33010.87
557.068	33428.65
557.268	32941.24
557.467	33303.73
557.667	33115.31
557.866	32990.39
558.065	33060.02
558.265	32443.58
558.464	32564.41
558.663	33213.62
558.863	32441.53
559.062	33133.75
559.261	32345.28
559.461	33072.31
559.66	32474.3
559.859	32761.01
560.058	32564.41
560.258	32634.04
560.457	32281.79
560.656	32724.15
560.855	32259.26
561.054	32617.66
561.253	32564.41
561.453	32685.24
561.652	32300.22
561.851	32509.11
562.05	32296.13
562.249	31990.98
562.448	32396.48
562.647	32160.96
562.846	32439.48
563.045	31993.03
563.244	32146.62
563.443	32203.97
563.642	32144.58
563.841	32257.21
564.04	31988.93
564.239	31554.76
564.438	31579.34
564.637	31616.2
564.836	31773.89
565.035	31458.51
565.234	31749.32
565.432	31376.59
565.631	31327.44
565.83	31524.04
566.029	31321.29
566.228	31435.98
566.427	31415.5
566.625	31188.17
566.824	31075.54
567.023	31333.58
567.222	30946.51
567.42	31290.57
567.619	30889.17
567.818	30921.94
568.016	30629.08
568.215	31048.91
568.414	30891.22
568.612	31110.35
568.811	31149.26
569.01	30815.44
569.208	30711
569.407	30930.13
569.605	29918.43
569.804	30706.9
570.002	30516.44
570.201	29897.95
570.4	30254.3
570.598	30313.69
570.797	29875.43
570.995	30192.86
571.193	29787.36
571.392	30430.43
571.59	29857
571.789	29734.12
571.987	29879.52
572.186	29979.87
572.384	29748.45
572.582	30016.74
572.781	29906.15
572.979	29478.12
573.177	29691.11
573.376	29844.71
573.574	29304.04
573.772	29611.24
573.971	29089.01
574.169	29238.51
574.367	29134.06
574.565	29332.72
574.763	29349.1
574.962	28712.18
575.16	28648.69
575.358	29156.59
575.556	28628.21
575.754	29213.93
575.952	28660.98
576.151	28744.95
576.349	28597.49
576.547	28753.14
576.745	28493.05
576.943	28308.73
577.141	28417.27
577.339	28454.14
577.537	28153.09
577.735	28142.85
577.933	28140.8
578.131	28290.3
578.329	28155.13
578.527	27976.96
578.725	27763.97
578.923	27860.23
579.121	27823.36
579.319	27579.65
579.516	27995.39
579.714	27589.89
579.912	27546.89
580.11	27512.07
580.308	27479.3
580.506	27524.36
580.704	27335.95
580.901	27493.64
581.099	27337.99
581.297	27014.41
581.495	26885.39
581.692	27151.63
581.89	26617.11
582.088	26975.5
582.285	26688.79
582.483	27120.91
582.681	26641.68
582.878	26676.5
583.076	26561.81
583.274	26883.34
583.471	26209.56
583.669	26467.61
583.866	26207.51
584.064	26375.45
584.262	26213.66
584.459	26584.34
584.657	25906.46
584.854	26422.55
585.052	25513.25
585.249	26166.56
585.447	25881.89
585.644	25558.31
585.841	25883.94
586.039	25857.31
586.236	25586.98
586.434	25728.29
586.631	25515.3
586.828	25646.37
587.026	25705.76
587.223	25503.01
587.42	25373.99
587.618	25423.14
587.815	25251.11
588.012	25197.87
588.21	25023.79
588.407	25167.15
588.604	24847.66
588.801	24653.11
588.999	24954.16
589.196	24730.93
589.393	24722.74
589.59	24792.37
589.787	24423.73
589.984	24505.65
590.182	24370.49
590.379	24767.79
590.576	24071.48
590.773	24151.35
590.97	24440.12
591.167	24339.77
591.364	23821.63
591.561	24266.04
591.758	23780.67
591.955	23840.06
592.152	24075.58
592.349	23618.88
592.546	23764.29
592.743	23633.22
592.94	23274.82
593.137	23561.54
593.334	23463.24
593.531	23113.03
593.727	23283.02
593.924	23313.73
594.121	23110.99
594.318	23414.09
594.515	22969.68
594.712	23180.62
594.908	22777.17
595.105	22924.62
595.302	22973.77
595.499	22773.07
595.696	22594.9
595.892	22426.96
596.089	22568.27
596.286	22582.61
596.482	22435.16
596.679	22601.04
596.876	22412.63
597.072	21980.51
597.269	22347.09
597.466	22048.09
597.662	21984.6
597.859	22140.25
598.055	22013.27
598.252	21867.87
598.448	21824.86
598.645	22005.08
598.841	21523.81
599.038	21814.62
599.234	21630.3
599.431	21368.16
599.627	21276.01
599.824	21292.39
600.02	21142.89
600.217	21302.63
600.413	21400.93
600.609	20999.53
600.806	20989.29
601.002	21333.35
601.198	21009.77
601.395	20790.64
601.591	20716.91
601.787	20888.94
601.984	20809.07
602.18	21013.87
602.376	20544.88
602.572	20458.87
602.769	20594.03
602.965	20399.48
603.161	20571.5
603.357	20551.03
603.553	20168.05
603.75	20512.11
603.946	19942.78
604.142	20364.66
604.338	19979.64
604.534	20028.79
604.73	20137.34
604.926	20149.62
605.122	19934.59
605.318	19821.95
605.514	19520.9
605.71	19631.49
605.906	19459.46
606.102	19400.07
606.298	19809.66
606.494	19606.91
606.69	19449.22
606.886	19432.83
607.082	19291.52
607.278	19348.87
607.474	19021.19
607.67	19330.44
607.866	18879.88
608.062	19129.73
608.257	19092.87
608.453	19158.41
608.649	19172.74
608.845	18881.93
609.041	19037.58
609.236	19225.99
609.432	18931.08
609.628	18859.4
609.824	18853.26
610.019	18820.49
610.215	18806.16
610.411	18603.41
610.606	18724.24
610.802	18843.02
610.998	18617.74
611.193	18597.26
611.389	18503.06
611.584	18425.23
611.78	18533.78
611.976	18197.91
612.171	18527.63
612.367	18363.79
612.562	18498.96
612.758	18277.78
612.953	18048.41
613.149	18222.48
613.344	18081.17
613.539	18431.38
613.735	18062.74
613.93	18216.34
614.126	18236.82
614.321	18208.15
614.517	18242.96
614.712	18005.4
614.907	17886.62
615.103	18183.57
615.298	17780.12
615.493	18089.37
615.688	17849.75
615.884	18013.59
616.079	17757.6
616.274	17886.62
616.47	17827.23
616.665	17698.2
616.86	17741.21
617.055	17702.3
617.25	17446.3
617.445	17855.9
617.641	17581.47
617.836	17567.13
618.031	17237.41
618.226	17753.5
618.421	17210.79
618.616	17307.04
618.811	17178.02
619.006	17507.74
619.201	17155.49
619.396	17284.51
619.591	17001.9
619.786	17229.22
619.981	16997.8
620.176	16788.91
620.371	16854.44
620.566	16962.98
620.761	16684.46
620.956	16627.12
621.151	16528.81
621.346	16590.25
621.541	16336.31
621.735	16471.47
621.93	16225.72
622.125	16334.26
622.32	15863.22
622.515	15926.71
622.709	16072.12
622.904	15961.53
623.099	15791.55
623.294	15945.14
623.488	15662.52
623.683	15973.81
623.878	15431.1
624.072	15441.34
624.267	15349.18
624.462	15363.52
624.656	15199.68
624.851	15158.72
625.046	15001.03
625.24	14978.5
625.435	15027.65
625.629	14943.69
625.824	14628.3
626.018	14792.14
626.213	14368.21
626.407	14577.1
626.602	14200.27
626.796	14472.65
626.991	14282.19
627.185	14007.76
627.38	14144.98
627.574	14190.03
627.768	14054.87
627.963	13766.1
628.157	13721.05
628.352	13946.33
628.546	13448.67
628.74	13706.71
628.935	13436.38
629.129	13497.82
629.323	13524.44
629.517	13166.05
629.712	13270.5
629.906	13256.16
630.1	13018.6
630.294	13045.22
630.489	13069.8
630.683	13047.27
630.877	12871.14
631.071	12836.33
631.265	12836.33
631.459	12928.49
631.653	12525.04
631.848	12574.19
632.042	12416.49
632.236	12565.99
632.43	12101.11
632.624	12332.53
632.818	12103.15
633.012	12266.99
633.206	12006.9
633.4	12158.45
633.594	12011
633.788	12004.85
633.982	11935.22
634.176	12017.14
634.369	11638.27
634.563	11828.73
634.757	11560.44
634.951	11560.44
635.145	11566.59
635.339	11490.81
635.533	11230.72
635.726	11294.21
635.92	11202.05
636.114	11308.54
636.308	11175.42
636.501	11130.37
636.695	11165.18
636.889	11036.16
637.083	11093.51
637.276	10794.5
637.47	10935.81
637.664	10739.21
637.857	10907.14
638.051	10794.5
638.244	10610.18
638.438	10526.22
638.632	10440.2
638.825	10348.04
639.019	10419.72
639.212	10505.74
639.406	10411.53
639.599	10440.2
639.793	10343.95
639.986	10075.66
640.18	10272.27
640.373	10073.62
640.567	10046.99
640.76	9827.86
640.954	9858.58
641.147	9926.16
641.34	9795.09
641.534	9858.58
641.727	9803.29
641.92	9598.49
642.114	9539.1
642.307	9625.11
642.5	9545.24
642.694	9434.65
642.887	9551.38
643.08	9442.84
643.273	9285.15
643.467	9236
643.66	9221.66
643.853	9180.7
644.046	9137.7
644.239	9025.06
644.432	9029.15
644.626	9061.92
644.819	8990.24
645.012	9020.96
645.205	8887.84
645.398	8902.18
645.591	8674.85
645.784	8779.3
645.977	8558.12
646.17	8658.47
646.363	8582.7
646.556	8539.69
646.749	8478.25
646.942	8496.68
647.135	8398.38
647.328	8379.95
647.521	8445.48
647.714	8347.18
647.907	8355.37
648.099	8205.87
648.292	8222.25
648.485	8095.28
648.678	8111.66
648.871	8140.33
649.064	8033.84
649.256	8119.85
649.449	7943.73
649.642	7763.51
649.835	7818.8
650.027	7878.19
650.22	7853.62
650.413	7642.68
650.605	7636.53
650.798	7503.42
650.991	7464.5
651.183	7431.74
651.376	7435.83
651.568	7587.38
651.761	7450.17
651.954	7454.26
652.146	7317.05
652.339	7355.96
652.531	7446.07
652.724	7214.65
652.916	7216.7
653.109	7022.14
653.301	7224.89
653.494	7374.39
653.686	6999.62
653.879	7237.18
654.071	7026.24
654.263	6833.73
654.456	7046.72
654.648	6925.89
654.84	6891.07
655.033	6749.76
655.225	6862.4
655.417	6837.83
655.61	6803.01
655.802	6862.4
655.994	6737.48
656.186	6604.36
656.379	6571.59
656.571	6676.04
656.763	6495.82
656.955	6442.57
657.148	6536.77
657.34	6501.96
657.532	6424.14
657.724	6256.2
657.916	6358.6
658.108	6139.47
658.3	6215.24
658.492	6239.82
658.684	6184.52
658.876	6067.79
659.068	6133.33
659.26	6084.17
659.452	5860.95
659.644	6227.53
659.836	6020.69
660.028	6108.75
660.22	6174.28
660.412	5996.11
660.604	5879.38
660.796	5811.79
660.988	5824.08
661.18	5834.32
661.372	5746.26
661.563	5781.07
661.755	5785.17
661.947	5695.06
662.139	5887.57
662.331	5647.96
662.522	5723.73
662.714	5594.71
662.906	5543.51
663.097	5490.26
663.289	5506.65
663.481	5529.17
663.673	5527.13
663.864	5512.79
664.056	5434.97
664.247	5363.29
664.439	5215.84
664.631	5242.46
664.822	5322.33
665.014	5275.23
665.205	5406.3
665.397	5125.72
665.588	5058.14
665.78	5064.29
665.971	5310.04
666.163	5099.1
666.354	5043.81
666.546	5058.14
666.737	4908.64
666.929	5000.8
667.12	5052
667.311	5072.48
667.503	4980.32
667.694	4904.54
667.885	4810.34
668.077	4763.23
668.268	4933.22
668.459	4890.21
668.651	4884.06
668.842	4763.23
669.033	4732.51
669.224	4800.1
669.416	4777.57
669.607	4746.85
669.798	4542.05
669.989	4687.46
670.18	4589.16
670.371	4574.82
670.563	4798.05
670.754	4718.18
670.945	4677.22
671.136	4716.13
671.327	4578.92
671.518	4705.89
671.709	4402.79
671.9	4437.61
672.091	4499.05
672.282	4406.89
672.473	4435.56
672.664	4374.12
672.855	4271.72
673.046	4349.54
673.237	4513.38
673.428	4314.73
673.619	4460.13
673.809	4386.41
674	4341.35
674.191	4505.19
674.382	4204.14
674.573	4261.48
674.764	4236.91
674.954	4290.15
675.145	4210.28
675.336	4157.04
675.527	4251.24
675.717	4339.3
675.908	4064.88
676.099	4296.3
676.289	4114.03
676.48	4159.08
676.671	4132.46
676.861	4048.49
677.052	4089.45
677.243	3956.33
677.433	4163.18
677.624	4060.78
677.814	3976.81
678.005	3985.01
678.195	4023.92
678.386	3966.57
678.576	3954.29
678.767	3843.7
678.957	3987.05
679.148	3884.66
679.338	3978.86
679.529	3925.61
679.719	3925.61
679.909	3878.51
680.1	3827.31
680.29	3978.86
680.481	3802.74
680.671	3860.08
680.861	3788.4
681.052	3700.34
681.242	3860.08
681.432	3739.25
681.622	3855.98
681.813	3755.63
682.003	3839.6
682.193	3739.25
682.383	3769.97
682.573	3870.32
682.764	3645.04
682.954	3808.88
683.144	3698.29
683.334	3731.06
683.524	3589.75
683.714	3677.81
683.904	3669.62
684.094	3593.84
684.284	3731.06
684.474	3686
684.664	3620.47
684.854	3743.35
685.044	3686
685.234	3571.32
685.424	3520.12
685.614	3511.93
685.804	3511.93
685.994	3503.73
686.184	3618.42
686.374	3575.41
686.564	3397.24
686.753	3509.88
686.943	3495.54
687.133	3393.14
687.323	3448.44
687.513	3532.4
687.702	3264.12
687.892	3378.81
688.082	3313.27
688.272	3419.77
688.461	3442.29
688.651	3305.08
688.841	3460.73
689.03	3278.46
689.22	3278.46
689.41	3200.63
689.599	3227.26
689.789	3282.55
689.979	3325.56
690.168	3217.02
690.358	3206.78
690.547	3169.91
690.737	3106.43
690.926	3088
691.116	3010.17
691.305	3180.15
691.495	3104.38
691.684	3106.43
691.874	2940.54
692.063	3059.32
692.252	3038.84
692.442	3006.08
692.631	2995.84
692.82	3083.9
693.01	2913.92
693.199	2891.39
693.388	2924.16
693.578	2868.86
693.767	2987.65
693.956	2838.14
694.146	2832
694.335	2905.73
694.524	2741.89
694.713	2864.77
694.902	2825.86
695.092	2774.66
695.281	2842.24
695.47	2883.2
695.659	2770.56
695.848	2848.38
696.037	2645.63
696.226	2639.49
696.415	2750.08
696.604	2809.47
696.793	2776.7
696.982	2674.31
697.171	2680.45
697.36	2602.63
697.549	2741.89
697.738	2541.19
697.927	2649.73
698.116	2545.28
698.305	2621.06
698.494	2602.63
698.683	2543.24
698.872	2676.35
699.061	2670.21
699.25	2528.9
699.438	2635.39
699.627	2553.48
699.816	2619.01
700.005	2514.56
700.193	2619.01
700.382	2522.76
700.571	2621.06
700.76	2547.33
700.948	2549.38
701.137	2412.17
701.326	2496.13
701.514	2492.04
701.703	2389.64
701.892	2475.65
702.08	2590.34
702.269	2604.67
702.457	2459.27
702.646	2467.46
702.834	2489.99
703.023	2430.6
703.212	2379.4
703.4	2483.84
703.589	2547.33
703.777	2457.22
703.965	2512.52
704.154	2399.88
704.342	2406.02
704.531	2387.59
704.719	2395.78
704.907	2350.73
705.096	2397.83
705.284	2442.89
705.472	2584.2
705.661	2426.5
705.849	2336.39
706.037	2489.99
706.226	2461.32
706.414	2477.7
706.602	2365.06
706.79	2350.73
706.979	2389.64
707.167	2440.84
707.355	2371.21
707.543	2365.06
707.731	2481.8
707.919	2309.77
708.107	2377.35
708.296	2481.8
708.484	2383.49
708.672	2348.68
708.86	2320.01
709.048	2297.48
709.236	2283.14
709.424	2395.78
709.612	2334.34
709.8	2336.39
709.988	2387.59
710.176	2256.52
710.364	2342.53
710.551	2340.49
710.739	2348.68
710.927	2317.96
711.115	2256.52
711.303	2395.78
711.491	2406.02
711.679	2254.47
711.866	2330.25
712.054	2307.72
712.242	2334.34
712.43	2449.03
712.617	2383.49
712.805	2446.98
712.993	2309.77
713.181	2262.66
713.368	2266.76
713.556	2420.36
713.744	2332.3
713.931	2395.78
714.119	2412.17
714.306	2375.3
714.494	2268.81
714.682	2334.34
714.869	2297.48
715.057	2340.49
715.244	2303.62
715.432	2438.79
715.619	2428.55
715.807	2391.69
715.994	2301.58
716.182	2354.82
716.369	2242.18
716.556	2332.3
716.744	2403.97
716.931	2426.5
717.119	2342.53
717.306	2373.25
717.493	2240.14
717.681	2313.86
717.868	2219.66
718.055	2381.45
718.242	2324.1
718.43	2373.25
718.617	2291.34
718.804	2426.5
718.991	2262.66
719.179	2373.25
719.366	2371.21
719.553	2336.39
719.74	2440.84
719.927	2344.58
720.114	2266.76
720.301	2307.72
720.488	2195.08
720.676	2324.1
720.863	2283.14
721.05	2422.41
721.237	2287.24
721.424	2401.93
721.611	2471.56
721.798	2279.05
721.985	2385.54
722.172	2324.1
722.358	2387.59
722.545	2365.06
722.732	2254.47
722.919	2342.53
723.106	2360.97
723.293	2399.88
723.48	2307.72
723.667	2266.76
723.853	2264.71
724.04	2320.01
724.227	2377.35
724.414	2317.96
724.6	2295.43
724.787	2336.39
724.974	2371.21
725.161	2303.62
725.347	2160.27
725.534	2451.08
725.72	2465.41
725.907	2346.63
726.094	2299.53
726.28	2307.72
726.467	2371.21
726.653	2195.08
726.84	2393.73
727.027	2356.87
727.213	2342.53
727.4	2406.02
727.586	2338.44
727.773	2274.95
727.959	2240.14
728.145	2248.33
728.332	2209.42
728.518	2248.33
728.705	2369.16
728.891	2270.86
729.077	2373.25
729.264	2309.77
729.45	2221.7
729.636	2326.15
729.823	2365.06
730.009	2356.87
730.195	2244.23
730.382	2301.58
730.568	2317.96
730.754	2428.55
730.94	2229.9
731.126	2399.88
731.313	2258.57
731.499	2438.79
731.685	2350.73
731.871	2326.15
732.057	2303.62
732.243	2287.24
732.429	2352.77
732.615	2209.42
732.801	2334.34
732.987	2422.41
733.173	2266.76
733.359	2356.87
733.545	2277
733.731	2238.09
733.917	2279.05
734.103	2295.43
734.289	2367.11
734.475	2274.95
734.661	2336.39
734.847	2350.73
735.033	2254.47
735.219	2381.45
735.404	2258.57
735.59	2256.52
735.776	2301.58
735.962	2320.01
736.148	2264.71
736.333	2147.98
736.519	2252.42
736.705	2270.86
736.89	2367.11
737.076	2285.19
737.262	2231.94
737.447	2330.25
737.633	2266.76
737.819	2256.52
738.004	2289.29
738.19	2295.43
738.375	2242.18
738.561	2244.23
738.747	2117.26
738.932	2223.75
739.118	2285.19
739.303	2211.46
739.489	2166.41
739.674	2190.99
739.859	2207.37
740.045	2201.23
740.23	2229.9
740.416	2246.28
740.601	2123.4
740.786	2172.55
740.972	2143.88
741.157	2135.69
741.342	2045.58
741.528	2174.6
741.713	2180.75
741.898	2107.02
742.084	2166.41
742.269	2129.55
742.454	2176.65
742.639	2078.35
742.824	2021
743.01	2064.01
743.195	2205.32
743.38	2082.44
743.565	2072.2
743.75	2170.51
743.935	2059.92
744.12	2180.75
744.305	2209.42
744.49	2041.48
744.675	2072.2
744.86	1900.17
745.045	2045.58
745.23	2143.88
745.415	2082.44
745.6	2000.52
745.785	1953.42
745.97	2018.96
746.155	1939.09
746.34	2006.67
746.525	1937.04
746.71	1867.41
746.895	1885.84
747.079	1941.13
747.264	1842.83
747.449	1795.73
747.634	1906.32
747.819	1838.73
748.003	1830.54
748.188	1908.37
748.373	1826.45
748.557	1891.98
748.742	1818.25
748.927	1822.35
749.111	1830.54
749.296	1783.44
749.481	1791.63
749.665	1728.14
749.85	1582.74
750.034	1724.05
750.219	1635.99
750.404	1752.72
750.588	1736.34
750.773	1658.51
750.957	1744.53
751.141	1724.05
751.326	1599.12
751.51	1779.34
751.695	1619.6
751.879	1566.35
752.064	1640.08
752.248	1674.9
752.432	1599.12
752.617	1539.73
752.801	1578.64
752.985	1511.06
753.17	1582.74
753.354	1576.59
753.538	1570.45
753.722	1556.11
753.907	1582.74
754.091	1466
754.275	1498.77
754.459	1470.1
754.643	1427.09
754.828	1498.77
755.012	1412.76
755.196	1293.97
755.38	1474.2
755.564	1400.47
755.748	1371.8
755.932	1431.19
756.116	1394.33
756.3	1349.27
756.484	1308.31
756.668	1369.75
756.852	1234.58
757.036	1332.89
757.22	1336.98
757.404	1298.07
757.588	1336.98
757.772	1279.64
757.956	1425.04
758.14	1316.5
758.323	1228.44
758.507	1148.57
758.691	1230.49
758.875	1203.86
759.059	1302.17
759.242	1189.53
759.426	1306.26
759.61	1277.59
759.794	1279.64
759.977	1283.74
760.161	1189.53
760.345	1199.77
760.528	1253.02
760.712	1179.29
760.895	1179.29
761.079	1134.23
761.263	1091.23
761.446	1123.99
761.63	1167
761.813	1123.99
761.997	1070.75
762.18	1162.9
762.364	1097.37
762.547	1085.08
762.731	1160.86
762.914	1031.83
763.098	1040.03
763.281	1093.27
763.464	1218.2
763.648	1138.33
763.831	978.59
764.015	1087.13
764.198	1056.41
764.381	986.78
764.564	1097.37
764.748	994.97
764.931	1035.93
765.114	1031.83
765.297	980.64
765.481	929.44
765.664	1050.27
765.847	988.83
766.03	1009.31
766.213	958.11
766.397	980.64
766.58	1023.64
766.763	929.44
766.946	964.25
767.129	865.95
767.312	933.53
767.495	882.33
767.678	935.58
767.861	962.2
768.044	958.11
768.227	947.87
768.41	894.62
768.593	986.78
768.776	951.96
768.959	917.15
769.142	874.14
769.324	976.54
769.507	929.44
769.69	960.16
769.873	982.68
770.056	906.91
770.239	925.34
770.421	888.48
770.604	880.29
770.787	851.61
770.97	831.13
771.152	917.15
771.335	880.29
771.518	812.7
771.7	892.57
771.883	917.15
772.066	857.76
772.248	892.57
772.431	902.81
772.613	802.46
772.796	810.65
772.978	802.46
773.161	814.75
773.343	831.13
773.526	755.36
773.708	773.79
773.891	792.22
774.073	736.93
774.256	769.69
774.438	798.37
774.621	693.92
774.803	698.02
774.985	759.46
775.168	839.33
775.35	761.5
775.532	767.65
775.715	769.69
775.897	814.75
776.079	708.26
776.261	700.06
776.444	738.98
776.626	716.45
776.808	700.06
776.99	671.39
777.173	743.07
777.355	687.78
777.537	712.35
777.719	675.49
777.901	640.67
778.083	591.52
778.265	661.15
778.447	655.01
778.629	597.67
778.811	644.77
778.993	724.64
779.175	706.21
779.357	646.82
779.539	630.43
779.721	638.62
779.903	693.92
780.085	562.85
780.267	652.96
780.449	634.53
780.631	534.18
780.812	575.14
780.994	585.38
781.176	511.65
781.358	538.27
781.54	540.32
781.721	628.39
781.903	552.61
782.085	505.51
782.267	507.55
782.448	509.6
782.63	509.6
782.812	507.55
782.993	548.51
783.175	476.84
783.357	528.03
783.538	528.03
783.72	454.31
783.901	513.7
784.083	464.55
784.264	464.55
784.446	454.31
784.627	450.21
784.809	462.5
784.99	435.88
785.172	505.51
785.353	390.82
785.535	386.72
785.716	519.84
785.897	517.79
786.079	452.26
786.26	468.64
786.441	478.88
786.623	390.82
786.804	394.92
786.985	356.01
787.167	470.69
787.348	450.21
787.529	456.36
787.71	384.68
787.891	452.26
788.073	345.77
788.254	452.26
788.435	358.05
788.616	411.3
788.797	308.9
788.978	384.68
789.159	376.48
789.34	382.63
789.522	360.1
789.703	356.01
789.884	362.15
790.065	394.92
790.246	331.43
790.427	327.33
790.607	423.59
790.788	427.68
790.969	384.68
791.15	331.43
791.331	390.82
791.512	345.77
791.693	360.1
791.874	327.33
792.054	356.01
792.235	401.06
792.416	374.44
792.597	319.14
792.778	304.81
792.958	360.1
793.139	353.96
793.32	380.58
793.5	276.13
793.681	376.48
793.862	259.75
794.042	315.05
794.223	269.99
794.404	274.09
794.584	368.29
794.765	304.81
794.945	401.06
795.126	358.05
795.306	313
795.487	282.28
795.667	294.57
795.848	317.09
796.028	327.33
796.209	337.57
796.389	269.99
796.57	212.65
796.75	251.56
796.93	308.9
797.111	210.6
797.291	290.47
797.471	249.51
797.652	222.89
797.832	284.33
798.012	286.37
798.192	245.41
798.373	198.31
798.553	261.8
798.733	317.09
798.913	247.46
799.093	251.56
799.274	239.27
799.454	300.71
799.634	157.35
799.814	313
799.994	274.09
800.174	210.6
800.354	286.37
800.534	278.18
800.714	220.84
800.894	245.41
801.074	261.8
801.254	220.84
801.434	241.32
801.614	218.79
801.794	208.55
801.974	601.76
802.154	220.84
802.334	222.89
802.514	167.59
802.693	206.5
802.873	202.41
803.053	308.9
803.233	245.41
803.413	208.55
803.592	212.65
803.772	229.03
803.952	231.08
804.131	175.78
804.311	253.61
804.491	263.85
804.67	112.3
804.85	122.54
805.03	181.93
805.209	257.7
805.389	179.88
805.568	224.94
805.748	122.54
805.928	179.88
806.107	288.42
806.287	138.92
806.466	204.46
806.646	134.82
806.825	198.31
807.004	198.31
807.184	241.32
807.363	294.57
807.543	235.18
807.722	155.3
807.901	186.02
808.081	163.5
808.26	95.91
808.439	188.07
808.619	126.63
808.798	128.68
808.977	196.26
809.156	179.88
809.336	128.68
809.515	202.41
809.694	200.36
809.873	161.45
810.052	157.35
810.231	196.26
810.411	167.59
810.59	159.4
810.769	161.45
810.948	145.06
811.127	216.74
811.306	202.41
811.485	149.16
811.664	220.84
811.843	124.58
812.022	173.74
812.201	149.16
812.38	237.22
812.559	147.11
812.737	97.96
812.916	93.87
813.095	181.93
813.274	112.3
813.453	100.01
813.632	112.3
813.811	165.54
813.989	108.2
814.168	128.68
814.347	57
814.526	100.01
814.704	186.02
814.883	200.36
815.062	163.5
815.24	204.46
815.419	120.49
815.598	186.02
815.776	128.68
815.955	138.92
816.133	120.49
816.312	188.07
816.49	122.54
816.669	206.5
816.847	95.91
817.026	155.3
817.204	73.39
817.383	91.82
817.561	102.06
817.74	165.54
817.918	200.36
818.097	155.3
818.275	102.06
818.453	167.59
818.632	134.82
818.81	71.34
818.988	112.3
819.167	126.63
819.345	151.21
819.523	132.78
819.701	128.68
819.879	155.3
820.058	116.39
820.236	79.53
820.414	132.78
820.592	151.21
820.77	155.3
820.948	57
821.127	48.81
821.305	196.26
821.483	151.21
821.661	145.06
821.839	40.62
822.017	100.01
822.195	108.2
822.373	63.15
822.551	163.5
822.729	145.06
822.907	28.33
823.085	181.93
823.262	153.26
823.44	165.54
823.618	106.15
823.796	85.67
823.974	128.68
824.152	34.47
824.329	26.28
824.507	122.54
824.685	138.92
824.863	42.67
825.04	104.11
825.218	59.05
825.396	85.67
825.574	110.25
825.751	61.1
825.929	83.63
826.107	87.72
826.284	136.87
826.462	95.91
826.639	48.81
826.817	116.39
826.994	67.24
827.172	110.25
827.349	136.87
827.527	130.73
827.704	52.91
827.882	97.96
828.059	153.26
828.237	50.86
828.414	186.02
828.591	40.62
828.769	83.63
828.946	87.72
829.124	186.02
829.301	155.3
829.478	87.72
829.655	97.96
829.833	89.77
830.01	11.95
830.187	67.24
830.364	95.91
830.542	54.95
830.719	114.34
830.896	128.68
831.073	83.63
831.25	75.43
831.427	77.48
831.604	104.11
831.782	71.34
831.959	124.58
832.136	36.52
832.313	87.72
832.49	50.86
832.667	79.53
832.844	7.85
833.021	106.15
833.198	85.67
833.374	34.47
833.551	40.62
833.728	50.86
833.905	87.72
834.082	65.19
834.259	59.05
834.436	77.48
834.612	91.82
834.789	110.25
834.966	114.34
835.143	38.57
835.319	-45.4
835.496	50.86
835.673	77.48
835.85	91.82
836.026	65.19
836.203	87.72
836.38	22.19
836.556	67.24
836.733	-0.34
836.909	73.39
837.086	28.33
837.262	114.34
837.439	34.47
837.616	40.62
837.792	77.48
837.968	48.81
838.145	-16.73
838.321	52.91
838.498	28.33
838.674	73.39
838.851	20.14
839.027	95.91
839.203	118.44
839.38	65.19
839.556	20.14
839.732	73.39
839.909	83.63
840.085	9.9
840.261	-0.34
840.437	28.33
840.614	11.95
840.79	-26.96
840.966	118.44
841.142	97.96
841.318	7.85
841.494	110.25
841.671	77.48
841.847	34.47
842.023	-14.68
842.199	71.34
842.375	81.58
842.551	5.8
842.727	11.95
842.903	75.43
843.079	63.15
843.255	89.77
843.431	73.39
843.607	122.54
843.783	1.71
843.959	77.48
844.134	73.39
844.31	36.52
844.486	28.33
844.662	-20.82
844.838	-33.11
845.013	24.23
845.189	110.25
845.365	40.62
845.541	52.91
845.716	36.52
845.892	-0.34
846.068	-18.77
846.244	-4.44
846.419	24.23
846.595	42.67
846.77	85.67
846.946	57
847.122	26.28
847.297	-61.78
847.473	30.38
847.648	1.71
847.824	57
847.999	-0.34
848.175	30.38
848.35	20.14
848.526	65.19
848.701	87.72
848.876	59.05
849.052	-4.44
849.227	24.23
849.403	34.47
849.578	-22.87
849.753	40.62
849.929	54.95
850.104	57
850.279	81.58
850.454	91.82
850.63	89.77
850.805	54.95
850.98	40.62
851.155	3.75
851.33	20.14
851.505	-20.82
851.681	151.21
851.856	30.38
852.031	9.9
852.206	100.01
852.381	16.04
852.556	48.81
852.731	22.19
852.906	104.11
853.081	28.33
853.256	102.06
853.431	5.8
853.606	40.62
853.781	65.19
853.956	-8.53
854.131	48.81
854.305	24.23
854.48	-8.53
854.655	7.85
854.83	-22.87
855.005	-12.63
855.18	46.76
855.354	67.24
855.529	52.91
855.704	-59.73
855.879	48.81
856.053	24.23
856.228	89.77
856.403	11.95
856.577	-16.73
856.752	-24.92
856.926	-33.11
857.101	48.81
857.276	-41.3
857.45	-0.34
857.625	44.71
857.799	18.09
857.974	22.19
858.148	57
858.323	18.09
858.497	9.9
858.672	32.43
858.846	7.85
859.02	67.24
859.195	-22.87
859.369	13.99
859.543	-8.53
859.718	11.95
859.892	52.91
860.066	87.72
860.241	7.85
860.415	-37.2
860.589	5.8
860.763	-41.3
860.938	67.24
861.112	63.15
861.286	-26.96
861.46	16.04
861.634	22.19
861.808	-22.87
861.982	28.33
862.157	11.95
862.331	-37.2
862.505	-35.16
862.679	-20.82
862.853	-8.53
863.027	-8.53
863.201	22.19
863.375	-41.3
863.549	46.76
863.722	32.43
863.896	46.76
864.07	-12.63
864.244	52.91
864.418	40.62
864.592	26.28
864.766	57
864.939	5.8
865.113	32.43
865.287	-8.53
865.461	-14.68
865.634	32.43
865.808	46.76
865.982	-29.01
866.156	-61.78
866.329	24.23
866.503	34.47
866.676	46.76
866.85	1.71
867.024	73.39
867.197	-10.58
867.371	20.14
867.544	77.48
867.718	-20.82
867.891	44.71
868.065	52.91
868.238	36.52
868.412	-4.44
868.585	-10.58
868.759	38.57
868.932	20.14
869.105	32.43
869.279	-53.59
869.452	40.62
869.625	-24.92
869.799	-24.92
869.972	50.86
870.145	-63.83
870.319	-4.44
870.492	-26.96
870.665	7.85
870.838	20.14
871.011	-78.16
871.185	34.47
871.358	-4.44
871.531	-26.96
871.704	22.19
871.877	36.52
872.05	-47.44
872.223	-45.4
872.396	-6.49
872.569	-4.44
872.742	-12.63
872.915	42.67
873.088	-55.64
873.261	11.95
873.434	87.72
873.607	-37.2
873.78	-16.73
873.953	-0.34
874.126	-55.64
874.299	24.23
874.471	20.14
874.644	30.38
874.817	-26.96
874.99	3.75
875.163	-4.44
875.335	61.1
875.508	13.99
875.681	57
875.853	24.23
876.026	-6.49
876.199	16.04
876.371	-16.73
876.544	-31.06
876.717	-24.92
876.889	11.95
877.062	50.86
877.234	28.33
877.407	16.04
877.579	7.85
877.752	13.99
877.924	87.72
878.097	-45.4
878.269	24.23
878.442	-8.53
878.614	13.99
878.786	-29.01
878.959	-55.64
879.131	16.04
879.303	-49.49
879.476	67.24
879.648	34.47
879.82	71.34
879.993	9.9
880.165	-4.44
880.337	-14.68
880.509	24.23
880.681	-26.96
880.854	-31.06
881.026	-6.49
881.198	85.67
881.37	28.33
881.542	106.15
881.714	3.75
881.886	57
882.058	-18.77
882.23	5.8
882.402	-37.2
882.574	30.38
882.746	-39.25
882.918	-43.35
883.09	-12.63
883.262	18.09
883.434	-39.25
883.606	-16.73
883.778	-47.44
883.95	44.71
884.122	-74.07
884.293	65.19
884.465	-4.44
884.637	28.33
884.809	1.71
884.98	34.47
885.152	30.38
885.324	30.38
885.496	-18.77
885.667	-10.58
885.839	-57.68
886.011	-4.44
886.182	26.28
886.354	-16.73
886.525	7.85
886.697	24.23
886.869	20.14
887.04	5.8
887.212	-10.58
887.383	100.01
887.555	5.8
887.726	40.62
887.897	34.47
888.069	-6.49
888.24	48.81
888.412	83.63
888.583	77.48
888.754	-26.96
888.926	-37.2
889.097	28.33
889.268	-94.55
889.44	-37.2
889.611	-45.4
889.782	9.9
889.953	-45.4
890.125	22.19
890.296	57
890.467	11.95
890.638	-12.63
890.809	40.62
890.98	69.29
891.151	-20.82
891.323	-39.25
891.494	-37.2
891.665	-12.63
891.836	26.28
892.007	-24.92
892.178	57
892.349	-33.11
892.52	1.71
892.691	16.04
892.862	16.04
893.032	-35.16
893.203	-51.54
893.374	-72.02
893.545	9.9
893.716	3.75
893.887	-4.44
894.057	-63.83
894.228	-55.64
894.399	-92.5
894.57	57
894.74	-24.92
894.911	3.75
895.082	-2.39
895.253	13.99
895.423	22.19
895.594	3.75
895.764	-4.44
895.935	46.76
896.106	-6.49
896.276	54.95
896.447	20.14
896.617	-37.2
896.788	11.95
896.958	118.44
897.129	-59.73
897.299	71.34
897.47	16.04
897.64	34.47
897.81	85.67
897.981	-29.01
898.151	-6.49
898.322	24.23
898.492	13.99
898.662	36.52
898.832	5.8
899.003	5.8
899.173	-10.58
899.343	-31.06
899.513	-0.34
