Data from USB4F104151__98__12-28-23-867.txt Node

Date: Fri Mar 14 12:28:23 EDT 2025
User: louis
Spectrometer: USB4F10415
Trigger mode: 4
Integration Time (sec): 2.000000E-2
Scans to average: 1
Electric dark correction enabled: true
Nonlinearity correction enabled: false
Boxcar width: 0
XAxis mode: Wavelengths
Number of Pixels in Spectrum: 3648
>>>>>Begin Spectral Data<<<<<
178.204	-32.77
178.424	-32.77
178.644	-32.77
178.864	-106.49
179.084	-94.21
179.304	22.53
179.524	-51.2
179.744	0
179.964	34.82
180.184	61.44
180.404	-53.25
180.624	-51.2
180.844	30.72
181.064	-71.68
181.283	16.38
181.503	0
181.723	61.44
181.943	-12.29
182.163	30.72
182.383	-24.58
182.602	-47.1
182.822	26.62
183.042	10.24
183.262	-43.01
183.482	-18.43
183.701	45.06
183.921	14.34
184.141	-57.34
184.361	-2.05
184.58	-12.29
184.8	-12.29
185.02	-18.43
185.239	65.54
185.459	59.39
185.679	65.54
185.898	-10.24
186.118	12.29
186.338	-67.58
186.557	75.77
186.777	12.29
186.997	73.73
187.216	14.34
187.436	73.73
187.655	-16.38
187.875	36.86
188.095	-2.05
188.314	32.77
188.534	90.11
188.753	-59.39
188.973	51.2
189.192	47.1
189.412	38.91
189.631	114.69
189.851	4.1
190.07	106.49
190.29	38.91
190.509	-45.06
190.729	28.67
190.948	10.24
191.168	28.67
191.387	26.62
191.607	14.34
191.826	10.24
192.045	-22.53
192.265	4.1
192.484	-8.19
192.704	98.3
192.923	2.05
193.142	30.72
193.362	-24.58
193.581	135.17
193.8	6.14
194.02	86.01
194.239	-12.29
194.458	34.82
194.678	-18.43
194.897	8.19
195.116	-43.01
195.335	34.82
195.555	73.73
195.774	57.34
195.993	24.58
196.212	-12.29
196.432	-67.58
196.651	6.14
196.87	26.62
197.089	139.26
197.308	-38.91
197.528	92.16
197.747	2.05
197.966	-28.67
198.185	57.34
198.404	-14.34
198.623	-14.34
198.842	55.3
199.062	47.1
199.281	47.1
199.5	-47.1
199.719	-2.05
199.938	38.91
200.157	24.58
200.376	0
200.595	-16.38
200.814	4.1
201.033	-22.53
201.252	8.19
201.471	57.34
201.69	38.91
201.909	32.77
202.128	65.54
202.347	-22.53
202.566	30.72
202.785	8.19
203.004	79.87
203.223	6.14
203.442	98.3
203.661	38.91
203.879	47.1
204.098	55.3
204.317	18.43
204.536	-32.77
204.755	28.67
204.974	2.05
205.193	16.38
205.411	69.63
205.63	6.14
205.849	-16.38
206.068	18.43
206.287	-28.67
206.505	14.34
206.724	102.4
206.943	26.62
207.162	-22.53
207.381	34.82
207.599	40.96
207.818	2.05
208.037	12.29
208.255	73.73
208.474	34.82
208.693	14.34
208.911	38.91
209.13	30.72
209.349	26.62
209.567	26.62
209.786	22.53
210.005	30.72
210.223	24.58
210.442	-16.38
210.661	-43.01
210.879	32.77
211.098	83.97
211.316	118.78
211.535	-6.14
211.753	75.77
211.972	-30.72
212.191	-38.91
212.409	67.58
212.628	-45.06
212.846	59.39
213.065	34.82
213.283	-22.53
213.502	67.58
213.72	55.3
213.938	20.48
214.157	-40.96
214.375	63.49
214.594	-49.15
214.812	47.1
215.031	86.01
215.249	94.21
215.467	67.58
215.686	-14.34
215.904	14.34
216.122	-14.34
216.341	10.24
216.559	-30.72
216.778	-55.3
216.996	12.29
217.214	18.43
217.432	59.39
217.651	6.14
217.869	-90.11
218.087	40.96
218.306	12.29
218.524	22.53
218.742	18.43
218.96	-14.34
219.179	57.34
219.397	20.48
219.615	59.39
219.833	8.19
220.051	26.62
220.27	26.62
220.488	-26.62
220.706	32.77
220.924	57.34
221.142	-30.72
221.36	24.58
221.578	45.06
221.796	63.49
222.015	-4.1
222.233	47.1
222.451	-10.24
222.669	6.14
222.887	-10.24
223.105	14.34
223.323	38.91
223.541	47.1
223.759	18.43
223.977	14.34
224.195	6.14
224.413	24.58
224.631	45.06
224.849	45.06
225.067	-4.1
225.285	6.14
225.503	43.01
225.721	14.34
225.939	26.62
226.157	47.1
226.375	94.21
226.592	34.82
226.81	-38.91
227.028	14.34
227.246	45.06
227.464	-94.21
227.682	-24.58
227.9	137.21
228.117	4.1
228.335	26.62
228.553	32.77
228.771	14.34
228.989	4.1
229.206	94.21
229.424	55.3
229.642	-57.34
229.86	10.24
230.077	-32.77
230.295	45.06
230.513	40.96
230.731	36.86
230.948	14.34
231.166	8.19
231.384	28.67
231.601	43.01
231.819	6.14
232.037	30.72
232.254	83.97
232.472	-16.38
232.689	32.77
232.907	-24.58
233.125	18.43
233.342	90.11
233.56	40.96
233.777	32.77
233.995	-24.58
234.213	10.24
234.43	63.49
234.648	16.38
234.865	16.38
235.083	2.05
235.3	14.34
235.518	-34.82
235.735	47.1
235.953	18.43
236.17	18.43
236.388	18.43
236.605	26.62
236.822	69.63
237.04	10.24
237.257	34.82
237.475	65.54
237.692	14.34
237.909	77.82
238.127	4.1
238.344	24.58
238.562	38.91
238.779	45.06
238.996	73.73
239.214	18.43
239.431	-32.77
239.648	12.29
239.865	-18.43
240.083	-55.3
240.3	20.48
240.517	45.06
240.735	16.38
240.952	0
241.169	-73.73
241.386	-18.43
241.603	43.01
241.821	-26.62
242.038	24.58
242.255	77.82
242.472	-16.38
242.689	49.15
242.907	-24.58
243.124	57.34
243.341	-90.11
243.558	10.24
243.775	75.77
243.992	-6.14
244.209	8.19
244.426	79.87
244.643	69.63
244.86	30.72
245.078	16.38
245.295	51.2
245.512	63.49
245.729	47.1
245.946	45.06
246.163	106.49
246.38	22.53
246.597	-28.67
246.814	-6.14
247.031	26.62
247.248	-14.34
247.464	-6.14
247.681	32.77
247.898	71.68
248.115	-65.53
248.332	51.2
248.549	104.45
248.766	12.29
248.983	79.87
249.2	45.06
249.417	40.96
249.633	-45.06
249.85	69.63
250.067	2.05
250.284	47.1
250.501	59.39
250.717	98.3
250.934	-8.19
251.151	-55.3
251.368	-12.29
251.585	47.1
251.801	10.24
252.018	2.05
252.235	12.29
252.451	51.2
252.668	34.82
252.885	57.34
253.102	61.44
253.318	2.05
253.535	59.39
253.752	-36.86
253.968	47.1
254.185	2.05
254.401	-32.77
254.618	67.58
254.835	65.54
255.051	102.4
255.268	49.15
255.484	47.1
255.701	18.43
255.917	34.82
256.134	-43.01
256.351	-49.15
256.567	-2.05
256.784	-12.29
257	-28.67
257.217	12.29
257.433	6.14
257.65	81.92
257.866	47.1
258.082	16.38
258.299	20.48
258.515	28.67
258.732	20.48
258.948	-8.19
259.165	38.91
259.381	-8.19
259.597	-20.48
259.814	16.38
260.03	16.38
260.246	26.62
260.463	14.34
260.679	55.3
260.895	-40.96
261.112	-45.06
261.328	43.01
261.544	57.34
261.761	43.01
261.977	49.15
262.193	-8.19
262.409	10.24
262.626	49.15
262.842	30.72
263.058	-22.53
263.274	-6.14
263.49	63.49
263.707	63.49
263.923	65.54
264.139	-10.24
264.355	10.24
264.571	53.25
264.787	81.92
265.004	-30.72
265.22	12.29
265.436	45.06
265.652	-22.53
265.868	-16.38
266.084	24.58
266.3	0
266.516	34.82
266.732	81.92
266.948	-32.77
267.164	4.1
267.38	-34.82
267.596	18.43
267.812	32.77
268.028	2.05
268.244	32.77
268.46	36.86
268.676	-59.39
268.892	90.11
269.108	-71.68
269.324	-20.48
269.54	104.45
269.756	69.63
269.972	18.43
270.188	-24.58
270.403	53.25
270.619	73.73
270.835	43.01
271.051	0
271.267	22.53
271.483	88.06
271.698	67.58
271.914	34.82
272.13	49.15
272.346	155.65
272.562	90.11
272.777	63.49
272.993	32.77
273.209	77.82
273.425	53.25
273.64	-61.44
273.856	43.01
274.072	67.58
274.287	-2.05
274.503	38.91
274.719	34.82
274.934	53.25
275.15	92.16
275.366	-65.53
275.581	-16.38
275.797	0
276.012	65.54
276.228	40.96
276.444	2.05
276.659	47.1
276.875	-55.3
277.09	55.3
277.306	-16.38
277.521	30.72
277.737	26.62
277.952	16.38
278.168	45.06
278.383	-32.77
278.599	24.58
278.814	26.62
279.03	-24.58
279.245	94.21
279.461	129.02
279.676	43.01
279.892	40.96
280.107	32.77
280.322	-2.05
280.538	22.53
280.753	-4.1
280.969	16.38
281.184	-6.14
281.399	90.11
281.615	36.86
281.83	59.39
282.045	-24.58
282.26	83.97
282.476	71.68
282.691	43.01
282.906	79.87
283.122	26.62
283.337	12.29
283.552	47.1
283.767	55.3
283.983	-10.24
284.198	22.53
284.413	49.15
284.628	2.05
284.843	16.38
285.058	110.59
285.274	-47.1
285.489	55.3
285.704	45.06
285.919	24.58
286.134	71.68
286.349	26.62
286.564	-22.53
286.779	12.29
286.995	73.73
287.21	36.86
287.425	49.15
287.64	4.1
287.855	55.3
288.07	-22.53
288.285	0
288.5	96.25
288.715	-2.05
288.93	38.91
289.145	-20.48
289.36	36.86
289.575	40.96
289.79	61.44
290.004	16.38
290.219	34.82
290.434	-4.1
290.649	79.87
290.864	28.67
291.079	65.54
291.294	40.96
291.509	73.73
291.724	-28.67
291.938	36.86
292.153	8.19
292.368	-51.2
292.583	10.24
292.798	6.14
293.012	75.77
293.227	-6.14
293.442	-30.72
293.657	32.77
293.871	22.53
294.086	-18.43
294.301	10.24
294.516	38.91
294.73	36.86
294.945	16.38
295.16	2.05
295.374	32.77
295.589	43.01
295.804	49.15
296.018	61.44
296.233	26.62
296.447	45.06
296.662	8.19
296.877	43.01
297.091	67.58
297.306	-12.29
297.52	4.1
297.735	-4.1
297.949	59.39
298.164	6.14
298.378	-34.82
298.593	36.86
298.807	-18.43
299.022	57.34
299.236	4.1
299.451	-2.05
299.665	24.58
299.88	-12.29
300.094	38.91
300.309	16.38
300.523	-2.05
300.737	12.29
300.952	4.1
301.166	34.82
301.381	26.62
301.595	-30.72
301.809	-18.43
302.024	-8.19
302.238	40.96
302.452	-18.43
302.667	-24.58
302.881	10.24
303.095	47.1
303.309	94.21
303.524	-32.77
303.738	20.48
303.952	24.58
304.166	73.73
304.381	16.38
304.595	43.01
304.809	14.34
305.023	8.19
305.237	8.19
305.452	77.82
305.666	-22.53
305.88	81.92
306.094	47.1
306.308	-36.86
306.522	75.77
306.736	73.73
306.95	94.21
307.164	43.01
307.379	-59.39
307.593	94.21
307.807	16.38
308.021	36.86
308.235	63.49
308.449	-22.53
308.663	-10.24
308.877	90.11
309.091	4.1
309.305	0
309.519	-26.62
309.733	79.87
309.947	-38.91
310.161	90.11
310.374	61.44
310.588	40.96
310.802	49.15
311.016	69.63
311.23	30.72
311.444	8.19
311.658	30.72
311.872	28.67
312.085	98.3
312.299	67.58
312.513	92.16
312.727	118.78
312.941	-20.48
313.154	122.88
313.368	22.53
313.582	16.38
313.796	45.06
314.009	10.24
314.223	67.58
314.437	77.82
314.651	55.3
314.864	-20.48
315.078	67.58
315.292	-12.29
315.505	-24.58
315.719	83.97
315.933	49.15
316.146	36.86
316.36	32.77
316.573	65.54
316.787	49.15
317.001	24.58
317.214	8.19
317.428	8.19
317.641	18.43
317.855	-20.48
318.068	59.39
318.282	0
318.495	81.92
318.709	40.96
318.922	4.1
319.136	26.62
319.349	53.25
319.563	2.05
319.776	6.14
319.99	38.91
320.203	32.77
320.417	32.77
320.63	57.34
320.843	71.68
321.057	71.68
321.27	-14.34
321.483	6.14
321.697	116.73
321.91	40.96
322.124	6.14
322.337	47.1
322.55	43.01
322.763	32.77
322.977	34.82
323.19	-2.05
323.403	51.2
323.617	47.1
323.83	40.96
324.043	-2.05
324.256	0
324.469	-16.38
324.683	65.54
324.896	-8.19
325.109	57.34
325.322	-16.38
325.535	38.91
325.748	40.96
325.962	-28.67
326.175	-16.38
326.388	-16.38
326.601	34.82
326.814	94.21
327.027	-14.34
327.24	26.62
327.453	10.24
327.666	92.16
327.879	12.29
328.092	65.54
328.305	45.06
328.518	40.96
328.731	38.91
328.944	79.87
329.157	53.25
329.37	14.34
329.583	6.14
329.796	61.44
330.009	24.58
330.222	18.43
330.435	73.73
330.648	-22.53
330.861	-2.05
331.073	2.05
331.286	71.68
331.499	40.96
331.712	26.62
331.925	61.44
332.138	32.77
332.35	10.24
332.563	2.05
332.776	16.38
332.989	69.63
333.202	45.06
333.414	0
333.627	18.43
333.84	63.49
334.053	49.15
334.265	77.82
334.478	49.15
334.691	45.06
334.903	-24.58
335.116	0
335.329	92.16
335.541	40.96
335.754	98.3
335.966	-20.48
336.179	-2.05
336.392	36.86
336.604	67.58
336.817	12.29
337.029	30.72
337.242	88.06
337.454	12.29
337.667	47.1
337.88	71.68
338.092	20.48
338.305	36.86
338.517	38.91
338.729	63.49
338.942	12.29
339.154	55.3
339.367	34.82
339.579	69.63
339.792	30.72
340.004	24.58
340.217	-24.58
340.429	90.11
340.641	36.86
340.854	-24.58
341.066	28.67
341.278	67.58
341.491	34.82
341.703	-16.38
341.915	20.48
342.128	67.58
342.34	118.78
342.552	49.15
342.764	12.29
342.977	71.68
343.189	53.25
343.401	108.54
343.613	-22.53
343.826	67.58
344.038	-8.19
344.25	-2.05
344.462	6.14
344.674	26.62
344.886	79.87
345.099	-51.2
345.311	77.82
345.523	-57.34
345.735	28.67
345.947	18.43
346.159	14.34
346.371	14.34
346.583	22.53
346.795	38.91
347.007	57.34
347.219	65.54
347.431	-24.58
347.643	24.58
347.855	-4.1
348.067	-10.24
348.279	49.15
348.491	61.44
348.703	77.82
348.915	-18.43
349.127	-47.1
349.339	16.38
349.551	12.29
349.763	40.96
349.975	79.87
350.187	57.34
350.399	-43.01
350.61	43.01
350.822	-28.67
351.034	-16.38
351.246	30.72
351.458	45.06
351.669	53.25
351.881	10.24
352.093	-20.48
352.305	43.01
352.517	49.15
352.728	30.72
352.94	0
353.152	-26.62
353.363	-8.19
353.575	67.58
353.787	26.62
353.999	75.77
354.21	20.48
354.422	2.05
354.633	96.25
354.845	49.15
355.057	-32.77
355.268	73.73
355.48	114.69
355.692	22.53
355.903	83.97
356.115	40.96
356.326	34.82
356.538	30.72
356.749	63.49
356.961	20.48
357.172	96.25
357.384	81.92
357.595	38.91
357.807	88.06
358.018	8.19
358.23	40.96
358.441	26.62
358.653	24.58
358.864	34.82
359.075	83.97
359.287	124.93
359.498	65.54
359.709	-18.43
359.921	71.68
360.132	4.1
360.344	40.96
360.555	120.83
360.766	65.54
360.977	-24.58
361.189	92.16
361.4	2.05
361.611	67.58
361.823	57.34
362.034	65.54
362.245	51.2
362.456	67.58
362.667	-26.62
362.879	28.67
363.09	34.82
363.301	106.49
363.512	63.49
363.723	12.29
363.935	34.82
364.146	45.06
364.357	69.63
364.568	43.01
364.779	14.34
364.99	124.93
365.201	-12.29
365.412	106.49
365.623	-4.1
365.834	124.93
366.045	137.21
366.256	55.3
366.467	22.53
366.678	28.67
366.889	12.29
367.1	-16.38
367.311	61.44
367.522	10.24
367.733	8.19
367.944	24.58
368.155	-12.29
368.366	32.77
368.577	108.54
368.788	63.49
368.999	59.39
369.209	32.77
369.42	53.25
369.631	40.96
369.842	16.38
370.053	81.92
370.264	112.64
370.474	28.67
370.685	40.96
370.896	-20.48
371.107	73.73
371.317	67.58
371.528	110.59
371.739	14.34
371.95	57.34
372.16	45.06
372.371	-14.34
372.582	10.24
372.792	55.3
373.003	63.49
373.214	0
373.424	53.25
373.635	32.77
373.846	22.53
374.056	49.15
374.267	51.2
374.477	61.44
374.688	43.01
374.898	79.87
375.109	-38.91
375.319	131.07
375.53	75.77
375.74	18.43
375.951	12.29
376.161	53.25
376.372	124.93
376.582	28.67
376.793	-14.34
377.003	16.38
377.214	22.53
377.424	-16.38
377.635	96.25
377.845	-51.2
378.055	40.96
378.266	-34.82
378.476	63.49
378.686	104.45
378.897	12.29
379.107	4.1
379.317	30.72
379.528	118.78
379.738	77.82
379.948	34.82
380.158	59.39
380.369	14.34
380.579	79.87
380.789	28.67
380.999	126.97
381.21	34.82
381.42	86.01
381.63	36.86
381.84	104.45
382.05	4.1
382.261	149.5
382.471	32.77
382.681	59.39
382.891	71.68
383.101	49.15
383.311	45.06
383.521	-14.34
383.731	16.38
383.941	28.67
384.151	77.82
384.361	10.24
384.571	88.06
384.781	102.4
384.991	139.26
385.201	124.93
385.411	69.63
385.621	67.58
385.831	40.96
386.041	4.1
386.251	98.3
386.461	167.93
386.671	61.44
386.881	-2.05
387.091	69.63
387.301	83.97
387.511	26.62
387.72	20.48
387.93	94.21
388.14	16.38
388.35	67.58
388.56	73.73
388.769	92.16
388.979	122.88
389.189	18.43
389.399	34.82
389.609	135.17
389.818	61.44
390.028	67.58
390.238	129.02
390.447	8.19
390.657	53.25
390.867	77.82
391.076	43.01
391.286	4.1
391.496	57.34
391.705	-8.19
391.915	65.54
392.125	118.78
392.334	12.29
392.544	4.1
392.753	71.68
392.963	47.1
393.172	73.73
393.382	104.45
393.591	129.02
393.801	108.54
394.01	129.02
394.22	75.77
394.429	92.16
394.639	49.15
394.848	4.1
395.058	53.25
395.267	36.86
395.477	65.54
395.686	38.91
395.895	114.69
396.105	79.87
396.314	94.21
396.524	126.97
396.733	86.01
396.942	81.92
397.152	86.01
397.361	20.48
397.57	63.49
397.78	65.54
397.989	69.63
398.198	137.21
398.407	98.3
398.617	49.15
398.826	88.06
399.035	94.21
399.244	145.41
399.453	112.64
399.663	159.74
399.872	69.63
400.081	75.77
400.29	118.78
400.499	67.58
400.708	81.92
400.917	112.64
401.127	92.16
401.336	34.82
401.545	206.84
401.754	118.78
401.963	106.49
402.172	159.74
402.381	81.92
402.59	63.49
402.799	106.49
403.008	104.45
403.217	137.21
403.426	151.55
403.635	96.25
403.844	92.16
404.053	81.92
404.262	86.01
404.471	174.08
404.68	145.41
404.888	135.17
405.097	65.54
405.306	98.3
405.515	118.78
405.724	137.21
405.933	153.6
406.142	147.45
406.35	200.7
406.559	141.31
406.768	180.22
406.977	116.73
407.185	221.18
407.394	182.27
407.603	208.89
407.812	194.56
408.02	243.71
408.229	239.61
408.438	233.47
408.646	161.79
408.855	243.71
409.064	217.08
409.272	194.56
409.481	233.47
409.69	253.95
409.898	264.19
410.107	194.56
410.315	286.72
410.524	274.43
410.733	342.01
410.941	221.18
411.15	333.82
411.358	348.15
411.567	358.39
411.775	325.63
411.984	352.25
412.192	403.45
412.401	344.06
412.609	438.27
412.818	456.7
413.026	454.65
413.234	499.7
413.443	446.46
413.651	616.44
413.86	475.13
414.068	542.71
414.276	487.42
414.485	575.48
414.693	620.53
414.901	579.58
415.11	724.98
415.318	608.25
415.526	591.86
415.734	788.47
415.943	772.08
416.151	778.23
416.359	774.13
416.567	737.27
416.776	858.1
416.984	862.19
417.192	870.39
417.4	825.33
417.608	917.49
417.817	960.5
418.025	1085.42
418.233	1167.34
418.441	983.02
418.649	1183.73
418.857	1048.56
419.065	1183.73
419.273	1130.48
419.481	1210.35
419.689	1386.47
419.897	1370.09
420.105	1353.71
420.313	1380.33
420.521	1490.92
420.729	1441.77
420.937	1615.85
421.145	1597.42
421.353	1621.99
421.561	1820.64
421.769	1902.56
421.977	1896.42
422.185	1892.32
422.393	1943.52
422.601	2033.63
422.809	2004.96
423.017	2119.65
423.224	2107.36
423.432	2428.89
423.64	2334.68
423.848	2326.49
424.056	2375.64
424.263	2656.22
424.471	2711.51
424.679	2727.89
424.887	2834.39
425.094	2883.54
425.302	2969.55
425.51	3102.67
425.718	2942.93
425.925	3094.48
426.133	3217.36
426.341	3403.72
426.548	3600.33
426.756	3608.52
426.964	3639.24
427.171	3821.51
427.379	3919.81
427.586	3954.63
427.794	3921.86
428.001	4319.17
428.209	4540.35
428.417	4306.88
428.624	4739
428.832	4851.64
429.039	4671.42
429.247	4757.43
429.454	5072.82
429.662	5504.94
429.869	5134.26
430.076	5638.06
430.284	5337.01
430.491	5660.59
430.699	6135.71
430.906	5849
431.114	6043.56
431.321	6203.3
431.528	6582.17
431.736	6870.94
431.943	6877.08
432.15	6911.89
432.358	7065.49
432.565	7272.34
432.772	7311.25
432.979	7600.01
433.187	7901.06
433.394	7831.43
433.601	8607.61
433.808	8482.69
434.016	8478.59
434.223	8748.92
434.43	9449.33
434.637	9176.95
434.844	9629.55
435.052	9885.55
435.259	9709.42
435.466	9834.35
435.673	9756.52
435.88	10479.46
436.087	10858.33
436.294	10985.3
436.501	10639.2
436.708	10999.64
436.915	11327.32
437.122	11663.18
437.329	11779.92
437.537	12349.25
437.743	12519.23
437.95	12267.33
438.157	12883.77
438.364	13401.91
438.571	13322.04
438.778	13346.61
438.985	14751.52
439.192	13993.77
439.399	14628.64
439.606	14169.9
439.813	15073.05
440.02	16193.29
440.227	15433.49
440.433	15654.67
440.64	15916.81
440.847	16058.12
441.054	16414.47
441.261	17276.66
441.467	17096.44
441.674	17512.18
441.881	18142.96
442.088	18142.96
442.294	17952.49
442.501	18460.39
442.708	18984.67
442.914	19545.81
443.121	20221.64
443.328	19832.53
443.534	21044.93
443.741	20557.51
443.948	20379.34
444.154	21909.17
444.361	21470.9
444.568	21778.1
444.774	21909.17
444.981	22183.6
445.187	22955.68
445.394	23768.73
445.6	23416.47
445.807	25642.62
446.013	24641.16
446.22	24974.98
446.426	26058.35
446.633	26164.85
446.839	27176.55
447.046	26197.62
447.252	27547.23
447.459	27522.65
447.665	27313.76
447.871	28585.55
448.078	30031.41
448.284	28581.45
448.491	29492.8
448.697	30391.86
448.903	30649.9
449.11	31180.32
449.316	30791.21
449.522	31065.64
449.728	31718.94
449.935	32165.4
450.141	32030.23
450.347	32675.34
450.553	32024.09
450.76	32198.16
450.966	33365.51
451.172	32894.47
451.378	33656.32
451.584	32994.82
451.791	34004.47
451.997	33811.96
452.203	34477.55
452.409	34520.56
452.615	34323.96
452.821	33293.83
453.027	32796.17
453.233	34573.81
453.44	33011.21
453.646	33545.73
453.852	33758.72
454.058	34063.86
454.264	32820.75
454.47	33658.37
454.676	33093.13
454.882	34092.54
455.088	31045.16
455.294	31899.16
455.5	32050.71
455.705	32550.42
455.911	31381.03
456.117	30721.58
456.323	30398
456.529	28663.37
456.735	29933.11
456.941	29060.68
457.147	28573.26
457.352	27795.03
457.558	27663.96
457.764	27549.28
457.97	27141.73
458.176	26551.91
458.381	26420.84
458.587	24786.57
458.793	25163.39
458.999	23742.1
459.204	25575.03
459.41	24858.24
459.616	23162.53
459.821	23303.84
460.027	23133.85
460.233	22658.73
460.438	21434.04
460.644	22042.29
460.85	20809.41
461.055	20436.68
461.261	19922.64
461.466	18855.65
461.672	18173.67
461.878	19582.68
462.083	18308.84
462.289	18112.24
462.494	17637.11
462.7	17000.19
462.905	16555.78
463.111	17184.51
463.316	17196.79
463.522	17114.87
463.727	16852.73
463.932	16789.25
464.138	16697.09
464.343	16723.71
464.549	16181
464.754	16920.32
464.959	16570.12
465.165	16353.03
465.37	15830.8
465.575	15394.58
465.781	16070.41
465.986	16056.07
466.191	15482.64
466.397	15093.53
466.602	14583.59
466.807	15038.23
467.012	14966.56
467.218	14995.23
467.423	14800.67
467.628	14917.4
467.833	15421.2
468.038	14964.51
468.244	14425.89
468.449	15169.3
468.654	14716.7
468.859	14382.88
469.064	14321.45
469.269	13762.35
469.474	13926.19
469.679	14173.99
469.885	13866.8
470.09	13997.87
470.295	13772.59
470.5	13483.83
470.705	13719.34
470.91	13465.39
471.115	13270.84
471.32	13422.39
471.525	13295.41
471.73	13076.28
471.935	13211.45
472.139	12779.32
472.344	12539.71
472.549	12498.75
472.754	12386.11
472.959	12179.27
473.164	11962.19
473.369	11552.59
473.574	12119.88
473.778	11958.09
473.983	12009.29
474.188	11982.67
474.393	11288.4
474.598	11605.84
474.802	11249.49
475.007	11167.57
475.212	11296.6
475.417	10837.85
475.621	10872.67
475.826	11192.15
476.031	10733.4
476.235	10477.41
476.44	10600.29
476.645	10516.32
476.849	10483.55
477.054	10028.9
477.259	10211.17
477.463	10168.16
477.668	9963.37
477.872	10047.33
478.077	9586.54
478.282	9637.74
478.486	9510.77
478.691	9516.91
478.895	9547.63
479.1	9277.3
479.304	9422.7
479.509	9207.67
479.713	9465.71
479.918	9127.8
480.122	9109.36
480.326	9101.17
480.531	9179
480.735	9033.59
480.94	9027.45
481.144	9129.84
481.348	8847.23
481.553	8839.03
481.757	8486.78
481.961	9006.97
482.166	8828.79
482.37	8959.86
482.574	8574.85
482.778	8767.35
482.983	8746.87
483.187	8677.24
483.391	8783.74
483.595	8558.46
483.8	8572.8
484.004	8777.59
484.208	8783.74
484.412	8636.28
484.616	8767.35
484.821	8783.74
485.025	8599.42
485.229	8769.4
485.433	8664.96
485.637	8896.38
485.841	8611.71
486.045	8658.81
486.249	8632.19
486.453	8404.86
486.657	8818.55
486.861	8736.63
487.065	8437.63
487.269	8564.61
487.473	8460.16
487.677	8781.69
487.881	8748.92
488.085	8642.43
488.289	8843.13
488.493	8642.43
488.697	8601.47
488.901	8726.39
489.105	8607.61
489.309	8777.59
489.512	8877.94
489.716	8736.63
489.92	8796.03
490.124	8951.67
490.328	8978.3
490.531	8855.42
490.735	8744.83
490.939	9039.73
491.143	8834.94
491.346	8822.65
491.55	8918.9
491.754	9041.78
491.958	9023.35
492.161	9080.69
492.365	9142.13
492.569	9209.72
492.772	9207.67
492.976	9340.79
493.18	9344.88
493.383	9193.33
493.587	9332.59
493.79	9594.73
493.994	9291.63
494.197	9568.11
494.401	9703.28
494.605	9641.84
494.808	9873.26
495.012	9961.32
495.215	9850.73
495.419	10035.05
495.622	9846.63
495.825	10020.71
496.029	10041.19
496.232	10381.15
496.436	10278.76
496.639	10510.18
496.843	10358.63
497.046	10682.2
497.249	10723.16
497.453	10618.72
497.656	10882.91
497.859	11186.01
498.063	10837.85
498.266	11417.43
498.469	11147.09
498.673	11323.22
498.876	11501.39
499.079	11601.74
499.282	11583.31
499.485	11966.28
499.689	11964.23
499.892	12121.93
500.095	12199.75
500.298	12461.89
500.501	12267.33
500.705	12525.38
500.908	12572.48
501.111	12971.83
501.314	12982.07
501.517	13088.57
501.72	13381.43
501.923	13049.66
502.126	13582.13
502.329	13756.21
502.532	13614.9
502.735	13784.88
502.938	14184.23
503.141	14223.14
503.344	14395.17
503.547	14501.67
503.75	14802.72
503.953	15001.37
504.156	15062.81
504.359	15142.68
504.562	15288.09
504.765	15488.79
504.968	15560.47
505.17	15843.09
505.373	15869.71
505.576	16303.88
505.779	16248.58
505.982	16402.18
506.185	16666.37
506.387	16592.64
506.59	16772.86
506.793	17174.27
506.996	17387.25
507.198	17561.33
507.401	17532.66
507.604	17815.28
507.807	18044.65
508.009	18159.34
508.212	18491.11
508.415	18583.27
508.617	18859.74
508.82	19007.2
509.022	18759.39
509.225	19424.98
509.428	19629.78
509.63	19527.38
509.833	19431.13
510.035	20176.59
510.238	19836.63
510.44	20293.32
510.643	20514.5
510.845	20457.16
511.048	20770.5
511.25	21006.02
511.453	21065.41
511.655	21833.39
511.858	21616.31
512.06	22054.58
512.262	21939.89
512.465	22286
512.667	22382.25
512.87	22636.2
513.072	22775.46
513.274	23049.89
513.477	23338.65
513.679	23594.65
513.881	23383.71
514.084	23746.2
514.286	23692.95
514.488	24106.64
514.69	24491.66
514.893	24596.1
515.095	24821.38
515.297	24864.39
515.499	24819.33
515.701	25624.18
515.904	25489.02
516.106	25634.42
516.308	26203.76
516.51	26226.29
516.712	26257.01
516.914	26412.65
517.116	26648.17
517.318	27192.93
517.52	27211.36
517.722	27256.42
517.925	27864.66
518.127	28069.46
518.329	28069.46
518.531	27803.22
518.733	28610.12
518.935	28409.42
519.136	28773.96
519.338	29216.32
519.54	29277.76
519.742	29574.72
519.944	29646.4
520.146	30338.61
520.348	30223.92
520.55	30137.91
520.752	30707.24
520.954	31206.95
521.155	31049.25
521.357	31155.75
521.559	31493.66
521.761	31458.85
521.963	31962.65
522.164	31921.69
522.366	31981.08
522.568	32056.85
522.77	32333.33
522.971	32921.1
523.173	32390.67
523.375	32914.95
523.576	33170.95
523.778	33244.68
523.98	33476.1
524.181	33605.12
524.383	33742.33
524.584	34274.81
524.786	33983.99
524.988	33973.75
525.189	33983.99
525.391	34625.01
525.592	34790.89
525.794	34665.97
525.995	34807.28
526.197	34897.39
526.398	34780.65
526.6	35114.47
526.801	35599.84
527.003	35427.81
527.204	35675.62
527.406	35857.88
527.607	35745.25
527.808	36255.19
528.01	35513.83
528.211	35556.83
528.412	36537.81
528.614	36419.03
528.815	36281.81
529.016	36758.99
529.218	36306.39
529.419	36632.02
529.62	36660.69
529.822	36519.38
530.023	36683.22
530.224	36523.47
530.425	36855.25
530.626	36744.66
530.828	36468.18
531.029	37619.14
531.23	36404.69
531.431	37053.9
531.632	37328.33
531.833	37461.44
532.035	37225.93
532.236	37107.15
532.437	37477.83
532.638	36904.4
532.839	37397.96
533.04	37385.67
533.241	36795.85
533.442	38043.07
533.643	37187.02
533.844	37201.35
534.045	37354.95
534.246	37025.23
534.447	37678.53
534.648	37420.48
534.849	37483.97
535.05	37227.98
535.251	37754.3
535.451	37397.96
535.652	37559.75
535.853	37516.74
536.054	37615.04
536.255	37627.33
536.456	37111.24
536.657	37942.72
536.857	37473.73
537.058	37184.97
537.259	37541.32
537.46	37397.96
537.66	37250.5
537.861	37363.14
538.062	37664.19
538.263	37739.97
538.463	37371.33
538.664	37047.75
538.865	37457.35
539.065	37451.2
539.266	37420.48
539.466	37578.18
539.667	37125.58
539.868	38133.18
540.068	37576.13
540.269	37256.65
540.469	37455.3
540.67	37297.61
540.87	37033.42
541.071	37281.22
541.271	37752.26
541.472	37117.39
541.672	37240.26
541.873	37084.62
542.073	36738.51
542.274	37658.05
542.474	37105.1
542.675	36820.43
542.875	37350.85
543.075	37170.63
543.276	36627.92
543.476	37277.13
543.676	37197.26
543.877	37195.21
544.077	37176.78
544.277	37320.13
544.478	37529.03
544.678	37541.32
544.878	37279.18
545.078	37101
545.279	36922.83
545.479	36726.22
545.679	36965.84
545.879	37043.66
546.079	37080.52
546.28	37031.37
546.48	36560.34
546.68	37254.6
546.88	37445.06
547.08	36871.63
547.28	37285.32
547.48	36546
547.68	37137.87
547.88	36838.86
548.081	37273.03
548.281	36677.07
548.481	36781.52
548.681	37043.66
548.881	37316.04
549.081	36965.84
549.28	36804.05
549.48	37037.51
549.68	36873.68
549.88	37207.5
550.08	36937.16
550.28	36871.63
550.48	36642.26
550.68	37250.5
550.88	36683.22
551.08	36842.96
551.279	36740.56
551.479	36230.62
551.679	36625.87
551.879	36933.07
552.079	36888.01
552.278	36652.5
552.478	36771.28
552.678	36826.57
552.878	36761.04
553.077	36758.99
553.277	36595.15
553.477	37219.78
553.676	36615.63
553.876	36632.02
554.076	36605.39
554.275	36521.43
554.475	35839.45
554.674	36720.08
554.874	36666.83
555.074	36275.67
555.273	36591.06
555.473	36705.74
555.672	36341.21
555.872	36605.39
556.071	36314.58
556.271	36345.3
556.47	36089.31
556.67	35732.96
556.869	36222.42
557.068	36230.62
557.268	36013.53
557.467	36138.46
557.667	36183.51
557.866	35919.32
558.065	35720.67
558.265	35968.48
558.464	35749.34
558.663	36210.14
558.863	35612.13
559.062	36177.37
559.261	35180.01
559.461	35874.27
559.66	35139.05
559.859	36044.25
560.058	35395.04
560.258	35917.28
560.457	35458.53
560.656	35708.38
560.855	35339.75
561.054	35618.27
561.253	35384.8
561.453	35282.41
561.652	35458.53
561.851	35427.81
562.05	35356.13
562.249	34829.8
562.448	35352.04
562.647	35106.28
562.846	35096.04
563.045	35274.21
563.244	34860.52
563.443	35411.43
563.642	34532.85
563.841	35042.79
564.04	34729.45
564.239	35192.29
564.438	34729.45
564.637	34741.74
564.836	34717.17
565.035	34424.31
565.234	34475.51
565.432	34276.85
565.631	34594.29
565.83	34420.21
566.029	34311.67
566.228	33900.03
566.427	34092.54
566.625	34291.19
566.824	33900.03
567.023	34516.47
567.222	33451.52
567.42	33785.34
567.619	34211.32
567.818	33797.63
568.016	33424.9
568.215	34287.09
568.414	33672.7
568.612	33977.85
568.811	33824.25
569.01	33744.38
569.208	33504.77
569.407	33723.9
569.605	32923.15
569.804	33150.47
570.002	33005.06
570.201	33445.38
570.4	32898.57
570.598	32765.45
570.797	33109.51
570.995	32900.62
571.193	32437.78
571.392	33340.93
571.59	32574.99
571.789	32747.02
571.987	32589.33
572.186	32695.82
572.384	32605.71
572.582	32761.36
572.781	32599.57
572.979	32304.66
573.177	32136.73
573.376	32331.28
573.574	31804.95
573.772	32378.39
573.971	31755.8
574.169	31886.87
574.367	31538.72
574.565	31682.08
574.763	31591.97
574.962	31833.63
575.16	31565.34
575.358	31632.93
575.556	31223.33
575.754	31813.15
575.952	31276.58
576.151	31505.95
576.349	30934.57
576.547	30895.66
576.745	31147.56
576.943	30959.14
577.141	31000.1
577.339	31143.46
577.537	30854.7
577.735	30740.01
577.933	30717.48
578.131	30465.58
578.329	30457.39
578.527	30457.39
578.725	30418.48
578.923	30537.26
579.121	30344.75
579.319	30258.74
579.516	30359.09
579.714	30359.09
579.912	30135.86
580.11	30004.79
580.308	29984.31
580.506	29675.07
580.704	29752.89
580.901	29984.31
581.099	30105.14
581.297	29828.66
581.495	29603.39
581.692	29570.62
581.89	29212.23
582.088	29636.16
582.285	29115.97
582.483	29525.57
582.681	29435.45
582.878	29376.06
583.076	29066.82
583.274	28943.94
583.471	28692.04
583.669	28886.6
583.866	28528.2
584.064	28886.6
584.262	28591.69
584.459	28694.09
584.657	28460.62
584.854	28614.22
585.052	28034.64
585.249	28538.44
585.447	28669.51
585.644	27860.57
585.841	28374.61
586.039	28366.42
586.236	28098.13
586.434	27991.64
586.631	27735.64
586.828	27917.91
587.026	27872.85
587.223	27666.01
587.42	27776.6
587.618	27860.57
587.815	27465.31
588.012	27240.03
588.21	27356.77
588.407	27395.68
588.604	27217.5
588.801	26783.34
588.999	27215.46
589.196	26875.49
589.393	26910.31
589.59	26871.4
589.787	27004.52
589.984	26617.45
590.182	26562.15
590.379	26273.39
590.576	26244.72
590.773	26576.49
590.97	26220.14
591.167	26543.72
591.364	25665.14
591.561	26386.03
591.758	26009.2
591.955	25763.45
592.152	26328.69
592.349	25919.09
592.546	25902.71
592.743	26072.69
592.94	25419.39
593.137	25730.68
593.334	25781.88
593.531	25308.8
593.727	25247.36
593.924	25800.31
594.121	24985.22
594.318	25343.61
594.515	25126.53
594.712	25224.83
594.908	24526.47
595.105	25138.82
595.302	24776.33
595.499	25022.08
595.696	24848
595.892	24749.7
596.089	24913.54
596.286	24499.85
596.482	24667.78
596.679	24729.22
596.876	24700.55
597.072	24254.09
597.269	24184.46
597.466	24131.22
597.662	24098.45
597.859	23959.19
598.055	23989.91
598.252	23844.5
598.448	23709.33
598.645	23662.23
598.841	23479.96
599.038	23400.09
599.234	23500.44
599.431	23156.38
599.627	23307.93
599.824	23574.17
600.02	23185.05
600.217	23281.31
600.413	23150.24
600.609	23074.46
600.806	22914.72
601.002	23131.81
601.198	22972.07
601.395	22714.02
601.591	22834.85
601.787	22859.43
601.984	22486.7
602.18	22697.64
602.376	22562.47
602.572	22406.83
602.769	22429.35
602.965	22154.93
603.161	22574.76
603.357	21798.58
603.553	22103.73
603.75	22390.44
603.946	22005.42
604.142	21759.67
604.338	21888.69
604.534	21950.13
604.73	21612.21
604.926	21950.13
605.122	21647.03
605.318	21446.33
605.514	21481.14
605.71	21280.44
605.906	21579.45
606.102	21319.35
606.298	21286.59
606.494	21259.96
606.69	21001.92
606.886	21470.9
607.082	21063.36
607.278	21350.07
607.474	20954.82
607.67	21196.48
607.866	20922.05
608.062	20876.99
608.257	20893.38
608.453	21001.92
608.649	20987.58
608.845	20926.14
609.041	21008.06
609.236	20963.01
609.432	20750.02
609.628	20383.43
609.824	20401.86
610.019	20516.55
610.215	20487.88
610.411	20426.44
610.606	20307.66
610.802	20303.56
610.998	20092.62
611.193	20235.98
611.389	20373.19
611.584	20358.86
611.78	20207.31
611.976	20215.5
612.171	20082.38
612.367	19887.82
612.562	20070.09
612.758	19588.82
612.953	19760.85
613.149	20190.92
613.344	19801.81
613.539	20348.62
613.735	19947.22
613.93	19758.8
614.126	19881.68
614.321	19828.43
614.517	19500.76
614.712	19723.99
614.907	19523.29
615.103	19736.27
615.298	19611.35
615.493	19730.13
615.688	19259.1
615.884	19756.75
616.079	19255
616.274	19517.14
616.47	19234.52
616.665	19416.79
616.86	19085.02
617.055	19334.87
617.25	19162.84
617.445	19537.62
617.641	18659.04
617.836	19281.63
618.031	18804.45
618.226	18988.77
618.421	18910.94
618.616	19302.11
618.811	18890.46
619.006	18849.5
619.201	18468.58
619.396	18671.33
619.591	18415.33
619.786	18409.19
619.981	18095.85
620.176	18562.79
620.371	17975.02
620.566	18263.79
620.761	17925.87
620.956	18214.63
621.151	17878.77
621.346	17997.55
621.541	17542.9
621.735	17919.73
621.93	17643.25
622.125	17331.96
622.32	17454.84
622.515	17686.26
622.709	17331.96
622.904	17346.3
623.099	17243.9
623.294	17286.9
623.488	16928.51
623.683	16879.36
623.878	16908.03
624.072	16973.56
624.267	16682.75
624.462	16789.25
624.656	16365.32
624.851	16629.51
625.046	16267.02
625.24	16336.65
625.435	16060.17
625.629	16279.3
625.824	16135.95
626.018	16291.59
626.213	15750.93
626.407	15910.67
626.602	15456.02
626.796	15558.42
626.991	15664.91
627.185	15427.35
627.38	15470.36
627.574	15425.3
627.768	15304.47
627.963	15146.78
628.157	15124.25
628.352	15212.31
628.546	14833.44
628.74	15095.58
628.935	14812.96
629.129	14622.5
629.323	14581.54
629.517	14516
629.712	14327.59
629.906	14411.56
630.1	14217
630.294	14307.11
630.489	13891.37
630.683	14247.72
630.877	13956.91
631.071	13860.65
631.265	13817.65
631.459	13829.93
631.653	13600.56
631.848	13678.38
632.042	13733.68
632.236	13596.46
632.43	13322.04
632.624	13395.76
632.818	13475.63
633.012	13225.78
633.206	13131.58
633.4	13154.1
633.594	12959.55
633.788	13008.7
633.982	12973.88
634.176	12834.62
634.369	12797.76
634.563	12912.44
634.757	12656.45
634.951	12519.23
635.145	12599.1
635.339	12638.02
635.533	12404.55
635.726	12308.29
635.92	12330.82
636.114	12212.04
636.308	12019.53
636.501	12115.78
636.695	12037.96
636.889	11908.94
637.083	11786.06
637.276	11874.12
637.47	11786.06
637.664	11775.82
637.857	11626.32
638.051	11757.39
638.244	11642.7
638.438	11593.55
638.632	11464.53
638.825	11306.84
639.019	11355.99
639.212	11188.05
639.406	11421.52
639.599	11196.25
639.793	11097.94
639.986	10966.87
640.18	11073.37
640.373	11128.66
640.567	10964.82
640.76	10893.15
640.954	10671.97
641.147	10536.8
641.34	10743.64
641.534	10549.09
641.727	10688.35
641.92	10719.07
642.114	10393.44
642.307	10405.73
642.5	10461.02
642.694	10243.94
642.887	10272.61
643.08	10399.59
643.273	10235.75
643.467	10184.55
643.66	10043.24
643.853	9989.99
644.046	9910.12
644.239	10033
644.432	9678.7
644.626	9557.87
644.819	9756.52
645.012	9738.09
645.205	9596.78
645.398	9860.97
645.591	9635.69
645.784	9701.23
645.977	9549.68
646.17	9445.23
646.363	9406.32
646.556	9232.24
646.749	9224.05
646.942	9394.03
647.135	9396.08
647.328	9279.35
647.521	9033.59
647.714	8875.9
647.907	8931.19
648.099	9172.85
648.292	9035.64
648.485	8920.95
648.678	8847.23
648.871	8906.62
649.064	8804.22
649.256	8740.73
649.449	8736.63
649.642	8525.69
649.835	8406.91
650.027	8394.62
650.22	8535.93
650.413	8347.52
650.605	8316.8
650.798	8324.99
650.991	8292.23
651.183	8308.61
651.376	8134.53
651.568	8167.3
651.761	8228.74
651.954	8173.44
652.146	8077.19
652.339	8155.01
652.531	7972.74
652.724	7976.84
652.916	7696.27
653.109	7737.23
653.301	8038.28
653.494	7741.32
653.686	7675.79
653.879	7862.15
654.071	7710.6
654.263	7579.53
654.456	7522.19
654.648	7460.75
654.84	7491.47
655.033	7450.51
655.225	7364.5
655.417	7417.74
655.61	7366.54
655.802	7409.55
655.994	7382.93
656.186	7143.32
656.379	7264.15
656.571	7241.62
656.763	7122.84
656.955	7141.27
657.148	7098.26
657.34	7008.15
657.532	7055.25
657.724	6782.87
657.916	6983.57
658.108	6840.22
658.3	6866.84
658.492	6729.63
658.684	6750.1
658.876	6696.86
659.068	6623.13
659.26	6680.47
659.452	6684.57
659.644	6789.02
659.836	6623.13
660.028	6621.08
660.22	6604.7
660.412	6530.97
660.604	6418.33
660.796	6395.81
660.988	6569.88
661.18	6336.42
661.372	6293.41
661.563	6272.93
661.755	6174.63
661.947	6219.68
662.139	6279.07
662.331	6240.16
662.522	6182.82
662.714	6033.32
662.906	6033.32
663.097	6111.14
663.289	5939.11
663.481	5980.07
663.673	6045.6
663.864	5973.92
664.056	5754.79
664.247	5855.14
664.439	5707.69
664.631	5853.09
664.822	5873.57
665.014	5746.6
665.205	5701.55
665.397	5699.5
665.588	5769.13
665.78	5625.77
665.971	5695.4
666.163	5586.86
666.354	5506.99
666.546	5410.73
666.737	5646.25
666.929	5576.62
667.12	5445.55
667.311	5330.86
667.503	5515.18
667.694	5453.74
667.885	5396.4
668.077	5470.12
668.268	5257.14
668.459	5371.82
668.651	5304.24
668.842	5294
669.033	5083.06
669.224	5205.94
669.416	5216.18
669.607	5076.91
669.798	5113.78
669.989	5179.31
670.18	5126.07
670.371	5054.39
670.563	4925.36
670.754	5113.78
670.945	4927.41
671.136	5001.14
671.327	4988.85
671.518	4839.35
671.709	4995
671.9	4982.71
672.091	4681.66
672.282	4906.93
672.473	4837.3
672.664	4759.48
672.855	4777.91
673.046	4755.38
673.237	4804.53
673.428	4665.27
673.619	4775.86
673.809	4667.32
674	4681.66
674.191	4683.7
674.382	4693.94
674.573	4612.03
674.764	4747.19
674.954	4712.38
675.145	4679.61
675.336	4626.36
675.527	4609.98
675.717	4661.18
675.908	4538.3
676.099	4566.97
676.289	4562.87
676.48	4540.35
676.671	4440
676.861	4483
677.052	4548.54
677.243	4386.75
677.433	4368.32
677.624	4497.34
677.814	4327.36
678.005	4515.77
678.195	4298.69
678.386	4378.56
678.576	4339.65
678.767	4304.83
678.957	4235.2
679.148	4253.63
679.338	4374.46
679.529	4231.1
679.719	4274.11
679.909	4368.32
680.1	4237.25
680.29	4386.75
680.481	4306.88
680.671	4253.63
680.861	4091.84
681.052	4267.97
681.242	4267.97
681.432	4276.16
681.622	4016.07
681.813	4214.72
682.003	4118.47
682.193	4079.55
682.383	4110.27
682.573	3981.25
682.764	4132.8
682.954	4095.94
683.144	4071.36
683.334	3942.34
683.524	3993.54
683.714	4014.02
683.904	3987.4
684.094	4097.99
684.284	3913.67
684.474	3844.04
684.664	3913.67
684.854	3987.4
685.044	3942.34
685.234	3960.77
685.424	3794.89
685.614	3936.2
685.804	3762.12
685.994	3858.37
686.184	3721.16
686.374	3827.65
686.564	3844.04
686.753	3753.93
686.943	3850.18
687.133	3684.3
687.323	3674.06
687.513	3669.96
687.702	3715.02
687.892	3680.2
688.082	3520.46
688.272	3643.34
688.461	3624.9
688.651	3585.99
688.841	3608.52
689.03	3663.82
689.22	3690.44
689.41	3364.81
689.599	3504.07
689.789	3479.5
689.979	3450.83
690.168	3424.2
690.358	3362.76
690.547	3432.4
690.737	3446.73
690.926	3297.23
691.116	3330
691.305	3450.83
691.495	3489.74
691.684	3272.65
691.874	3330
692.063	3184.59
692.252	3246.03
692.442	3307.47
692.631	3342.28
692.82	3313.61
693.01	3178.45
693.199	3170.26
693.388	3196.88
693.578	3192.78
693.767	3153.87
693.956	3178.45
694.146	3123.15
694.335	3217.36
694.524	3078.1
694.713	3047.38
694.902	3108.82
695.092	3055.57
695.281	3069.91
695.47	3004.37
695.659	3022.8
695.848	3123.15
696.037	2916.31
696.226	3010.51
696.415	2936.79
696.604	3127.25
696.793	2951.12
696.982	2961.36
697.171	2924.5
697.36	3127.25
697.549	2873.3
697.738	2904.02
697.927	2799.57
698.116	2901.97
698.305	2881.49
698.494	2768.85
698.683	2918.36
698.872	2805.72
699.061	2850.77
699.25	2920.4
699.438	2854.87
699.627	2815.96
699.816	2883.54
700.005	2918.36
700.193	2836.44
700.382	2791.38
700.571	2684.89
700.76	2713.56
700.948	2723.8
701.137	2635.74
701.326	2734.04
701.514	2885.59
701.703	2664.41
701.892	2678.74
702.08	2772.95
702.269	2682.84
702.457	2723.8
702.646	2822.1
702.834	2629.59
703.023	2752.47
703.212	2729.94
703.4	2666.46
703.589	2772.95
703.777	2834.39
703.965	2731.99
704.154	2557.91
704.342	2664.41
704.531	2590.68
704.719	2615.26
704.907	2736.09
705.096	2625.5
705.284	2656.22
705.472	2600.92
705.661	2662.36
705.849	2719.7
706.037	2658.26
706.226	2672.6
706.414	2672.6
706.602	2756.57
706.79	2615.26
706.979	2783.19
707.167	2668.5
707.355	2586.58
707.543	2613.21
707.731	2764.76
707.919	2740.18
708.107	2678.74
708.296	2486.23
708.484	2639.83
708.672	2602.97
708.86	2596.82
709.048	2582.49
709.236	2639.83
709.424	2715.61
709.612	2697.17
709.8	2635.74
709.988	2621.4
710.176	2609.11
710.364	2729.94
710.551	2641.88
710.739	2596.82
710.927	2605.02
711.115	2609.11
711.303	2617.3
711.491	2666.46
711.679	2596.82
711.866	2643.93
712.054	2549.72
712.242	2543.58
712.43	2635.74
712.617	2699.22
712.805	2682.84
712.993	2625.5
713.181	2535.39
713.368	2641.88
713.556	2652.12
713.744	2473.95
713.931	2670.55
714.119	2549.72
714.306	2525.15
714.494	2615.26
714.682	2627.54
714.869	2594.78
715.057	2475.99
715.244	2637.78
715.432	2695.13
715.619	2598.87
715.807	2580.44
715.994	2574.3
716.182	2691.03
716.369	2633.69
716.556	2645.98
716.744	2486.23
716.931	2576.34
717.119	2584.54
717.306	2637.78
717.493	2613.21
717.681	2703.32
717.868	2502.62
718.055	2631.64
718.242	2680.79
718.43	2717.65
718.617	2557.91
718.804	2590.68
718.991	2570.2
719.179	2531.29
719.366	2639.83
719.553	2543.58
719.74	2398.17
719.927	2631.64
720.114	2541.53
720.301	2570.2
720.488	2566.1
720.676	2504.67
720.863	2504.67
721.05	2600.92
721.237	2523.1
721.424	2668.5
721.611	2568.15
721.798	2627.54
721.985	2645.98
722.172	2662.36
722.358	2592.73
722.545	2566.1
722.732	2541.53
722.919	2584.54
723.106	2621.4
723.293	2635.74
723.48	2570.2
723.667	2478.04
723.853	2645.98
724.04	2508.76
724.227	2619.35
724.414	2570.2
724.6	2625.5
724.787	2514.91
724.974	2533.34
725.161	2494.43
725.347	2533.34
725.534	2482.14
725.72	2598.87
725.907	2521.05
726.094	2545.63
726.28	2471.9
726.467	2656.22
726.653	2549.72
726.84	2615.26
727.027	2613.21
727.213	2494.43
727.4	2557.91
727.586	2527.19
727.773	2598.87
727.959	2600.92
728.145	2478.04
728.332	2586.58
728.518	2498.52
728.705	2623.45
728.891	2480.09
729.077	2512.86
729.264	2570.2
729.45	2648.02
729.636	2627.54
729.823	2559.96
730.009	2545.63
730.195	2523.1
730.382	2605.02
730.568	2664.41
730.754	2449.37
730.94	2605.02
731.126	2557.91
731.313	2402.27
731.499	2588.63
731.685	2541.53
731.871	2553.82
732.057	2562.01
732.243	2621.4
732.429	2498.52
732.615	2535.39
732.801	2596.82
732.987	2482.14
733.173	2578.39
733.359	2521.05
733.545	2486.23
733.731	2633.69
733.917	2455.51
734.103	2439.13
734.289	2506.71
734.475	2488.28
734.661	2432.99
734.847	2553.82
735.033	2617.3
735.219	2516.95
735.404	2643.93
735.59	2551.77
735.776	2449.37
735.962	2584.54
736.148	2519
736.333	2441.18
736.519	2467.8
736.705	2562.01
736.89	2430.94
737.076	2451.42
737.262	2498.52
737.447	2394.08
737.633	2396.12
737.819	2531.29
738.004	2447.32
738.19	2437.08
738.375	2398.17
738.561	2451.42
738.747	2416.6
738.932	2451.42
739.118	2465.75
739.303	2539.48
739.489	2400.22
739.674	2295.77
739.859	2385.88
740.045	2473.95
740.23	2459.61
740.416	2301.92
740.601	2430.94
740.786	2385.88
740.972	2269.15
741.157	2332.64
741.342	2185.18
741.528	2408.41
741.713	2371.55
741.898	2260.96
742.084	2201.57
742.269	2328.54
742.454	2308.06
742.639	2381.79
742.824	2228.19
743.01	2250.72
743.195	2299.87
743.38	2281.44
743.565	2111.46
743.75	2156.51
743.935	2238.43
744.12	2250.72
744.305	2252.77
744.49	2201.57
744.675	2193.37
744.86	2181.09
745.045	2215.9
745.23	2138.08
745.415	2129.89
745.6	2105.31
745.785	2136.03
745.97	2121.7
746.155	2095.07
746.34	2150.37
746.525	1961.95
746.71	2070.5
746.895	2029.54
747.079	2060.26
747.264	2117.6
747.449	2076.64
747.634	2066.4
747.819	1941.47
748.003	2072.54
748.188	1976.29
748.373	1990.63
748.557	1849.32
748.742	1892.32
748.927	2027.49
749.111	1906.66
749.296	1830.88
749.481	1890.28
749.665	1775.59
749.85	1875.94
750.034	1816.55
750.219	1826.79
750.404	1927.14
750.588	1826.79
750.773	1771.49
750.957	1925.09
751.141	1810.4
751.326	1785.83
751.51	1724.39
751.695	1730.53
751.879	1779.68
752.064	1785.83
752.248	1740.77
752.432	1699.81
752.617	1773.54
752.801	1654.76
752.985	1701.86
753.17	1665
753.354	1613.8
753.538	1630.18
753.722	1581.03
753.907	1665
754.091	1673.19
754.275	1560.55
754.459	1599.46
754.643	1556.46
754.828	1548.26
755.012	1621.99
755.196	1578.98
755.38	1513.45
755.564	1540.07
755.748	1499.11
755.932	1503.21
756.116	1523.69
756.3	1447.91
756.484	1425.39
756.668	1478.63
756.852	1482.73
757.036	1359.85
757.22	1361.9
757.404	1486.83
757.588	1308.65
757.772	1322.99
757.956	1390.57
758.14	1400.81
758.323	1294.32
758.507	1343.47
758.691	1310.7
758.875	1339.37
759.059	1306.6
759.242	1335.28
759.426	1327.08
759.61	1366
759.794	1208.3
759.977	1380.33
760.161	1349.61
760.345	1245.17
760.528	1398.76
760.712	1316.84
760.895	1241.07
761.079	1286.12
761.263	1226.73
761.446	1187.82
761.63	1167.34
761.813	1163.25
761.997	1239.02
762.18	1179.63
762.364	1181.68
762.547	1198.06
762.731	1128.43
762.914	1155.05
763.098	1220.59
763.281	1124.33
763.464	1212.4
763.648	1097.71
763.831	1112.05
764.015	1011.7
764.198	1138.67
764.381	1087.47
764.564	1075.18
764.748	1081.33
764.931	1050.61
765.114	1112.05
765.297	1153.01
765.481	1101.81
765.664	1105.9
765.847	1017.84
766.03	1064.94
766.213	989.17
766.397	1069.04
766.58	1107.95
766.763	1079.28
766.946	1054.7
767.129	927.73
767.312	1097.71
767.495	1048.56
767.678	1062.9
767.861	974.83
768.044	1011.7
768.227	991.22
768.41	1013.74
768.593	980.98
768.776	1005.55
768.959	1015.79
769.142	1036.27
769.324	1026.03
769.507	972.79
769.69	1038.32
769.873	888.82
770.056	1091.57
770.239	954.35
770.421	954.35
770.604	985.07
770.787	972.79
770.97	851.96
771.152	937.97
771.335	870.39
771.518	978.93
771.7	901.11
771.883	835.57
772.066	878.58
772.248	872.43
772.431	890.87
772.613	933.87
772.796	804.85
772.978	800.76
773.161	905.2
773.343	915.44
773.526	876.53
773.708	821.24
773.891	854
774.073	835.57
774.256	716.79
774.438	821.24
774.621	792.56
774.803	817.14
774.985	735.22
775.168	827.38
775.35	823.28
775.532	808.95
775.715	761.84
775.897	747.51
776.079	821.24
776.261	786.42
776.444	776.18
776.626	864.24
776.808	759.8
776.99	763.89
777.173	722.93
777.355	755.7
777.537	765.94
777.719	724.98
777.901	694.26
778.083	727.03
778.265	684.02
778.447	690.17
778.629	702.45
778.811	667.64
778.993	681.97
779.175	714.74
779.357	600.05
779.539	616.44
779.721	616.44
779.903	712.69
780.085	694.26
780.267	647.16
780.449	684.02
780.631	673.78
780.812	638.97
780.994	671.73
781.176	550.9
781.358	706.55
781.54	651.25
781.721	641.01
781.903	595.96
782.085	608.25
782.267	569.34
782.448	679.93
782.63	610.29
782.812	610.29
782.993	573.43
783.175	485.37
783.357	462.84
783.538	589.81
783.72	579.58
783.901	452.6
784.083	581.62
784.264	550.9
784.446	559.1
784.627	481.27
784.809	528.38
784.99	497.66
785.172	491.51
785.353	471.03
785.535	489.46
785.716	464.89
785.897	466.94
786.079	485.37
786.26	436.22
786.441	364.54
786.623	458.75
786.804	444.41
786.985	491.51
787.167	466.94
787.348	372.73
787.529	493.56
787.71	487.42
787.891	358.39
788.073	438.27
788.254	450.55
788.435	378.87
788.616	487.42
788.797	409.59
788.978	374.78
789.159	475.13
789.34	419.83
789.522	419.83
789.703	360.44
789.884	356.35
790.065	364.54
790.246	382.97
790.427	456.7
790.607	399.35
790.788	405.5
790.969	352.25
791.15	378.87
791.331	319.48
791.512	358.39
791.693	356.35
791.874	405.5
792.054	378.87
792.235	344.06
792.416	247.8
792.597	282.62
792.778	366.59
792.958	358.39
793.139	393.21
793.32	397.31
793.5	327.67
793.681	348.15
793.862	403.45
794.042	307.2
794.223	315.39
794.404	274.43
794.584	231.42
794.765	348.15
794.945	290.81
795.126	401.4
795.306	317.44
795.487	256
795.667	292.86
795.848	280.57
796.028	309.24
796.209	356.35
796.389	264.19
796.57	344.06
796.75	274.43
796.93	370.68
797.111	235.52
797.291	282.62
797.471	309.24
797.652	249.85
797.832	276.48
798.012	311.29
798.192	262.14
798.373	288.76
798.553	256
798.733	284.67
798.913	352.25
799.093	321.53
799.274	268.28
799.454	266.24
799.634	231.42
799.814	241.66
799.994	227.32
800.174	243.71
800.354	235.52
800.534	333.82
800.714	245.76
800.894	204.8
801.074	204.8
801.254	251.9
801.434	247.8
801.614	292.86
801.794	184.32
801.974	653.3
802.154	200.7
802.334	247.8
802.514	266.24
802.693	243.71
802.873	208.89
803.053	223.23
803.233	286.72
803.413	249.85
803.592	233.47
803.772	249.85
803.952	167.93
804.131	260.09
804.311	266.24
804.491	208.89
804.67	219.13
804.85	167.93
805.03	174.08
805.209	204.8
805.389	280.57
805.568	190.46
805.748	190.46
805.928	278.52
806.107	219.13
806.287	174.08
806.466	200.7
806.646	153.6
806.825	270.33
807.004	172.03
807.184	200.7
807.363	188.41
807.543	227.32
807.722	169.98
807.901	235.52
808.081	288.76
808.26	151.55
808.439	118.78
808.619	137.21
808.798	212.99
808.977	124.93
809.156	262.14
809.336	186.37
809.515	251.9
809.694	145.41
809.873	202.75
810.052	223.23
810.231	172.03
810.411	180.22
810.59	198.65
810.769	206.84
810.948	206.84
811.127	81.92
811.306	217.08
811.485	178.17
811.664	188.41
811.843	133.12
812.022	241.66
812.201	165.89
812.38	184.32
812.559	174.08
812.737	194.56
812.916	155.65
813.095	126.97
813.274	96.25
813.453	206.84
813.632	141.31
813.811	139.26
813.989	169.98
814.168	186.37
814.347	172.03
814.526	167.93
814.704	182.27
814.883	184.32
815.062	131.07
815.24	190.46
815.419	98.3
815.598	143.36
815.776	116.73
815.955	151.55
816.133	143.36
816.312	129.02
816.49	223.23
816.669	186.37
816.847	174.08
817.026	155.65
817.204	108.54
817.383	116.73
817.561	129.02
817.74	135.17
817.918	190.46
818.097	141.31
818.275	108.54
818.453	169.98
818.632	180.22
818.81	180.22
818.988	129.02
819.167	145.41
819.345	79.87
819.523	96.25
819.701	108.54
819.879	135.17
820.058	63.49
820.236	172.03
820.414	202.75
820.592	94.21
820.77	96.25
820.948	83.97
821.127	83.97
821.305	114.69
821.483	38.91
821.661	153.6
821.839	153.6
822.017	163.84
822.195	153.6
822.373	163.84
822.551	75.77
822.729	126.97
822.907	108.54
823.085	96.25
823.262	75.77
823.44	88.06
823.618	129.02
823.796	114.69
823.974	116.73
824.152	71.68
824.329	180.22
824.507	149.5
824.685	126.97
824.863	114.69
825.04	137.21
825.218	108.54
825.396	90.11
825.574	174.08
825.751	96.25
825.929	100.35
826.107	86.01
826.284	137.21
826.462	86.01
826.639	43.01
826.817	184.32
826.994	86.01
827.172	92.16
827.349	153.6
827.527	118.78
827.704	141.31
827.882	118.78
828.059	71.68
828.237	90.11
828.414	139.26
828.591	30.72
828.769	90.11
828.946	106.49
829.124	169.98
829.301	77.82
829.478	110.59
829.655	98.3
829.833	92.16
830.01	135.17
830.187	67.58
830.364	141.31
830.542	120.83
830.719	112.64
830.896	77.82
831.073	124.93
831.25	135.17
831.427	126.97
831.604	69.63
831.782	77.82
831.959	59.39
832.136	96.25
832.313	114.69
832.49	18.43
832.667	116.73
832.844	63.49
833.021	137.21
833.198	90.11
833.374	36.86
833.551	83.97
833.728	98.3
833.905	108.54
834.082	10.24
834.259	77.82
834.436	55.3
834.612	51.2
834.789	86.01
834.966	49.15
835.143	71.68
835.319	69.63
835.496	157.69
835.673	161.79
835.85	112.64
836.026	8.19
836.203	63.49
836.38	57.34
836.556	18.43
836.733	100.35
836.909	67.58
837.086	40.96
837.262	-6.14
837.439	20.48
837.616	34.82
837.792	2.05
837.968	96.25
838.145	81.92
838.321	57.34
838.498	79.87
838.674	100.35
838.851	63.49
839.027	30.72
839.203	90.11
839.38	59.39
839.556	28.67
839.732	59.39
839.909	-10.24
840.085	104.45
840.261	22.53
840.437	49.15
840.614	43.01
840.79	18.43
840.966	49.15
841.142	112.64
841.318	53.25
841.494	69.63
841.671	106.49
841.847	131.07
842.023	83.97
842.199	34.82
842.375	24.58
842.551	57.34
842.727	10.24
842.903	86.01
843.079	63.49
843.255	98.3
843.431	65.54
843.607	-14.34
843.783	57.34
843.959	65.54
844.134	69.63
844.31	75.77
844.486	51.2
844.662	24.58
844.838	63.49
845.013	116.73
845.189	26.62
845.365	104.45
845.541	94.21
845.716	69.63
845.892	92.16
846.068	28.67
846.244	-12.29
846.419	-12.29
846.595	-18.43
846.77	6.14
846.946	65.54
847.122	-2.05
847.297	-4.1
847.473	71.68
847.648	-28.67
847.824	63.49
847.999	65.54
848.175	49.15
848.35	81.92
848.526	59.39
848.701	77.82
848.876	12.29
849.052	71.68
849.227	51.2
849.403	-18.43
849.578	75.77
849.753	2.05
849.929	20.48
850.104	59.39
850.279	71.68
850.454	20.48
850.63	69.63
850.805	8.19
850.98	73.73
851.155	47.1
851.33	118.78
851.505	-38.91
851.681	53.25
851.856	102.4
852.031	53.25
852.206	51.2
852.381	18.43
852.556	88.06
852.731	6.14
852.906	8.19
853.081	88.06
853.256	53.25
853.431	55.3
853.606	22.53
853.781	-4.1
853.956	-32.77
854.131	83.97
854.305	73.73
854.48	40.96
854.655	45.06
854.83	47.1
855.005	2.05
855.18	36.86
855.354	20.48
855.529	16.38
855.704	20.48
855.879	32.77
856.053	40.96
856.228	14.34
856.403	-4.1
856.577	32.77
856.752	-57.34
856.926	49.15
857.101	88.06
857.276	43.01
857.45	6.14
857.625	67.58
857.799	-36.86
857.974	45.06
858.148	-36.86
858.323	6.14
858.497	55.3
858.672	47.1
858.846	24.58
859.02	51.2
859.195	75.77
859.369	-8.19
859.543	8.19
859.718	51.2
859.892	16.38
860.066	63.49
860.241	45.06
860.415	-59.39
860.589	14.34
860.763	-20.48
860.938	65.54
861.112	32.77
861.286	49.15
861.46	43.01
861.634	49.15
861.808	102.4
861.982	-45.06
862.157	4.1
862.331	34.82
862.505	20.48
862.679	-32.77
862.853	-10.24
863.027	22.53
863.201	-16.38
863.375	49.15
863.549	-20.48
863.722	38.91
863.896	4.1
864.07	-20.48
864.244	8.19
864.418	18.43
864.592	-47.1
864.766	22.53
864.939	49.15
865.113	-24.58
865.287	53.25
865.461	-104.45
865.634	6.14
865.808	-8.19
865.982	0
866.156	43.01
866.329	-4.1
866.503	59.39
866.676	18.43
866.85	43.01
867.024	45.06
867.197	28.67
867.371	-18.43
867.544	92.16
867.718	-32.77
867.891	-47.1
868.065	10.24
868.238	-4.1
868.412	14.34
868.585	20.48
868.759	81.92
868.932	-20.48
869.105	-4.1
869.279	12.29
869.452	-2.05
869.625	-30.72
869.799	18.43
869.972	0
870.145	40.96
870.319	0
870.492	43.01
870.665	0
870.838	-26.62
871.011	-28.67
871.185	43.01
871.358	-43.01
871.531	67.58
871.704	40.96
871.877	-28.67
872.05	63.49
872.223	-2.05
872.396	-18.43
872.569	49.15
872.742	-6.14
872.915	104.45
873.088	69.63
873.261	-51.2
873.434	79.87
873.607	-38.91
873.78	26.62
873.953	0
874.126	2.05
874.299	-40.96
874.471	-12.29
874.644	38.91
874.817	-34.82
874.99	6.14
875.163	-90.11
875.335	10.24
875.508	-14.34
875.681	8.19
875.853	-34.82
876.026	8.19
876.199	-18.43
876.371	-2.05
876.544	6.14
876.717	16.38
876.889	12.29
877.062	0
877.234	51.2
877.407	-24.58
877.579	-4.1
877.752	8.19
877.924	-24.58
878.097	16.38
878.269	63.49
878.442	18.43
878.614	4.1
878.786	2.05
878.959	24.58
879.131	-8.19
879.303	6.14
879.476	86.01
879.648	24.58
879.82	6.14
879.993	14.34
880.165	-20.48
880.337	2.05
880.509	83.97
880.681	-10.24
880.854	4.1
881.026	63.49
881.198	49.15
881.37	8.19
881.542	57.34
881.714	-24.58
881.886	53.25
882.058	53.25
882.23	-40.96
882.402	-79.87
882.574	-2.05
882.746	14.34
882.918	-2.05
883.09	38.91
883.262	28.67
883.434	-92.16
883.606	61.44
883.778	26.62
883.95	51.2
884.122	16.38
884.293	61.44
884.465	6.14
884.637	49.15
884.809	38.91
884.98	38.91
885.152	45.06
885.324	57.34
885.496	-2.05
885.667	61.44
885.839	-45.06
886.011	71.68
886.182	-18.43
886.354	8.19
886.525	32.77
886.697	-14.34
886.869	75.77
887.04	-22.53
887.212	55.3
887.383	63.49
887.555	10.24
887.726	-63.49
887.897	14.34
888.069	20.48
888.24	28.67
888.412	36.86
888.583	-20.48
888.754	20.48
888.926	-34.82
889.097	-4.1
889.268	-77.82
889.44	-26.62
889.611	-8.19
889.782	-14.34
889.953	-51.2
890.125	40.96
890.296	-2.05
890.467	10.24
890.638	-2.05
890.809	-71.68
890.98	-8.19
891.151	-51.2
891.323	86.01
891.494	10.24
891.665	10.24
891.836	6.14
892.007	57.34
892.178	4.1
892.349	-20.48
892.52	28.67
892.691	6.14
892.862	30.72
893.032	-28.67
893.203	18.43
893.374	-8.19
893.545	86.01
893.716	-45.06
893.887	24.58
894.057	-24.58
894.228	-20.48
894.399	-34.82
894.57	59.39
894.74	18.43
894.911	73.73
895.082	79.87
895.253	-26.62
895.423	-22.53
895.594	40.96
895.764	-2.05
895.935	10.24
896.106	2.05
896.276	16.38
896.447	-51.2
896.617	2.05
896.788	18.43
896.958	18.43
897.129	47.1
897.299	-16.38
897.47	45.06
897.64	-47.1
897.81	36.86
897.981	90.11
898.151	-57.34
898.322	-14.34
898.492	0
898.662	2.05
898.832	18.43
899.003	36.86
899.173	75.77
899.343	-22.53
899.513	-26.62
