Data from USB4F104151__49__12-27-31-133.txt Node

Date: Fri Mar 14 12:27:31 EDT 2025
User: louis
Spectrometer: USB4F10415
Trigger mode: 4
Integration Time (sec): 2.000000E-2
Scans to average: 1
Electric dark correction enabled: true
Nonlinearity correction enabled: false
Boxcar width: 0
XAxis mode: Wavelengths
Number of Pixels in Spectrum: 3648
>>>>>Begin Spectral Data<<<<<
178.204	-103.76
178.424	-103.76
178.644	-103.76
178.864	-73.04
179.084	-52.56
179.304	8.87
179.524	-30.04
179.744	88.75
179.964	58.03
180.184	12.97
180.404	-5.46
180.624	-64.85
180.844	-32.08
181.064	-60.76
181.283	2.73
181.503	-3.41
181.723	25.26
181.943	4.78
182.163	45.74
182.383	-85.33
182.602	53.93
182.822	74.41
183.042	45.74
183.262	41.64
183.482	2.73
183.701	10.92
183.921	41.64
184.141	21.16
184.361	19.11
184.58	-46.42
184.8	-87.38
185.02	62.12
185.239	29.35
185.459	23.21
185.679	49.83
185.898	35.5
186.118	-17.75
186.338	17.07
186.557	-30.04
186.777	35.5
186.997	-93.52
187.216	-15.7
187.436	76.46
187.655	0.68
187.875	39.59
188.095	74.41
188.314	29.35
188.534	-32.08
188.753	-11.61
188.973	-19.8
189.192	49.83
189.412	68.27
189.631	31.4
189.851	-7.51
190.07	6.83
190.29	-32.08
190.509	-1.37
190.729	-11.61
190.948	64.17
191.168	109.23
191.387	19.11
191.607	51.88
191.826	90.79
192.045	47.79
192.265	-25.94
192.484	4.78
192.704	33.45
192.923	-3.41
193.142	47.79
193.362	47.79
193.581	86.7
193.8	76.46
194.02	21.16
194.239	94.89
194.458	55.98
194.678	64.17
194.897	2.73
195.116	-25.94
195.335	94.89
195.555	-7.51
195.774	-5.46
195.993	4.78
196.212	29.35
196.432	-3.41
196.651	10.92
196.87	4.78
197.089	117.42
197.308	72.36
197.528	47.79
197.747	-60.76
197.966	8.87
198.185	51.88
198.404	37.55
198.623	25.26
198.842	27.31
199.062	-23.89
199.281	-17.75
199.5	-21.84
199.719	43.69
199.938	-48.47
200.157	10.92
200.376	21.16
200.595	39.59
200.814	17.07
201.033	17.07
201.252	47.79
201.471	43.69
201.69	94.89
201.909	19.11
202.128	2.73
202.347	4.78
202.566	41.64
202.785	8.87
203.004	58.03
203.223	-17.75
203.442	72.36
203.661	10.92
203.879	10.92
204.098	15.02
204.317	-38.23
204.536	-9.56
204.755	-15.7
204.974	74.41
205.193	-19.8
205.411	123.56
205.63	17.07
205.849	49.83
206.068	49.83
206.287	-30.04
206.505	66.22
206.724	39.59
206.943	0.68
207.162	21.16
207.381	12.97
207.599	0.68
207.818	39.59
208.037	-11.61
208.255	8.87
208.474	45.74
208.693	53.93
208.911	31.4
209.13	74.41
209.349	47.79
209.567	-27.99
209.786	47.79
210.005	-21.84
210.223	-23.89
210.442	19.11
210.661	10.92
210.879	-13.65
211.098	58.03
211.316	21.16
211.535	-62.8
211.753	29.35
211.972	-9.56
212.191	-32.08
212.409	-3.41
212.628	23.21
212.846	2.73
213.065	64.17
213.283	94.89
213.502	-11.61
213.72	29.35
213.938	-30.04
214.157	2.73
214.375	27.31
214.594	96.94
214.812	68.27
215.031	10.92
215.249	19.11
215.467	92.84
215.686	21.16
215.904	137.9
216.122	27.31
216.341	-21.84
216.559	0.68
216.778	88.75
216.996	12.97
217.214	12.97
217.432	8.87
217.651	-1.37
217.869	12.97
218.087	78.51
218.306	-5.46
218.524	12.97
218.742	0.68
218.96	39.59
219.179	60.07
219.397	-17.75
219.615	103.08
219.833	51.88
220.051	-17.75
220.27	109.23
220.488	96.94
220.706	27.31
220.924	-23.89
221.142	-3.41
221.36	2.73
221.578	17.07
221.796	15.02
222.015	-34.13
222.233	19.11
222.451	62.12
222.669	19.11
222.887	-5.46
223.105	60.07
223.323	25.26
223.541	-1.37
223.759	109.23
223.977	-21.84
224.195	58.03
224.413	31.4
224.631	58.03
224.849	58.03
225.067	10.92
225.285	15.02
225.503	-1.37
225.721	92.84
225.939	60.07
226.157	64.17
226.375	174.76
226.592	8.87
226.81	78.51
227.028	39.59
227.246	41.64
227.464	6.83
227.682	0.68
227.9	-25.94
228.117	10.92
228.335	60.07
228.553	-17.75
228.771	-44.37
228.989	58.03
229.206	37.55
229.424	41.64
229.642	45.74
229.86	-48.47
230.077	121.51
230.295	15.02
230.513	29.35
230.731	-1.37
230.948	70.31
231.166	37.55
231.384	-23.89
231.601	-21.84
231.819	94.89
232.037	53.93
232.254	-32.08
232.472	45.74
232.689	88.75
232.907	-13.65
233.125	29.35
233.342	35.5
233.56	43.69
233.777	27.31
233.995	17.07
234.213	4.78
234.43	2.73
234.648	6.83
234.865	39.59
235.083	39.59
235.3	-19.8
235.518	51.88
235.735	90.79
235.953	-11.61
236.17	-5.46
236.388	-30.04
236.605	-9.56
236.822	55.98
237.04	47.79
237.257	25.26
237.475	-13.65
237.692	98.99
237.909	23.21
238.127	-1.37
238.344	27.31
238.562	72.36
238.779	15.02
238.996	21.16
239.214	-32.08
239.431	53.93
239.648	-3.41
239.865	-1.37
240.083	49.83
240.3	45.74
240.517	27.31
240.735	-15.7
240.952	33.45
241.169	-1.37
241.386	39.59
241.603	-23.89
241.821	72.36
242.038	8.87
242.255	43.69
242.472	-1.37
242.689	29.35
242.907	41.64
243.124	35.5
243.341	-30.04
243.558	-1.37
243.775	-1.37
243.992	-13.65
244.209	90.79
244.426	74.41
244.643	51.88
244.86	-13.65
245.078	29.35
245.295	74.41
245.512	35.5
245.729	25.26
245.946	-27.99
246.163	27.31
246.38	35.5
246.597	37.55
246.814	31.4
247.031	92.84
247.248	27.31
247.464	4.78
247.681	29.35
247.898	6.83
248.115	53.93
248.332	23.21
248.549	27.31
248.766	47.79
248.983	10.92
249.2	-46.42
249.417	76.46
249.633	23.21
249.85	41.64
250.067	45.74
250.284	23.21
250.501	-9.56
250.717	45.74
250.934	45.74
251.151	19.11
251.368	78.51
251.585	6.83
251.801	-42.32
252.018	-52.56
252.235	31.4
252.451	10.92
252.668	68.27
252.885	66.22
253.102	53.93
253.318	-7.51
253.535	8.87
253.752	-27.99
253.968	-11.61
254.185	31.4
254.401	-30.04
254.618	2.73
254.835	51.88
255.051	117.42
255.268	6.83
255.484	31.4
255.701	-54.61
255.917	43.69
256.134	55.98
256.351	80.55
256.567	21.16
256.784	-9.56
257	70.31
257.217	27.31
257.433	55.98
257.65	53.93
257.866	66.22
258.082	12.97
258.299	58.03
258.515	19.11
258.732	21.16
258.948	-23.89
259.165	25.26
259.381	45.74
259.597	66.22
259.814	82.6
260.03	19.11
260.246	6.83
260.463	-13.65
260.679	-40.28
260.895	15.02
261.112	4.78
261.328	-23.89
261.544	17.07
261.761	62.12
261.977	47.79
262.193	15.02
262.409	37.55
262.626	27.31
262.842	21.16
263.058	39.59
263.274	129.7
263.49	49.83
263.707	-40.28
263.923	-23.89
264.139	-17.75
264.355	25.26
264.571	70.31
264.787	19.11
265.004	139.94
265.22	94.89
265.436	51.88
265.652	45.74
265.868	19.11
266.084	12.97
266.3	19.11
266.516	-17.75
266.732	-1.37
266.948	25.26
267.164	-42.32
267.38	-40.28
267.596	27.31
267.812	37.55
268.028	25.26
268.244	-73.04
268.46	51.88
268.676	-1.37
268.892	55.98
269.108	-62.8
269.324	21.16
269.54	78.51
269.756	-5.46
269.972	-5.46
270.188	68.27
270.403	6.83
270.619	31.4
270.835	25.26
271.051	19.11
271.267	29.35
271.483	-11.61
271.698	-3.41
271.914	-15.7
272.13	-25.94
272.346	41.64
272.562	84.65
272.777	37.55
272.993	27.31
273.209	-23.89
273.425	10.92
273.64	23.21
273.856	37.55
274.072	60.07
274.287	37.55
274.503	58.03
274.719	74.41
274.934	43.69
275.15	-32.08
275.366	27.31
275.581	4.78
275.797	66.22
276.012	29.35
276.228	12.97
276.444	-3.41
276.659	51.88
276.875	15.02
277.09	82.6
277.306	-5.46
277.521	41.64
277.737	-56.66
277.952	119.46
278.168	-1.37
278.383	51.88
278.599	8.87
278.814	53.93
279.03	4.78
279.245	49.83
279.461	49.83
279.676	64.17
279.892	15.02
280.107	-17.75
280.322	55.98
280.538	25.26
280.753	49.83
280.969	-56.66
281.184	21.16
281.399	-21.84
281.615	25.26
281.83	35.5
282.045	-1.37
282.26	-21.84
282.476	10.92
282.691	4.78
282.906	-19.8
283.122	58.03
283.337	-36.18
283.552	25.26
283.767	60.07
283.983	31.4
284.198	23.21
284.413	39.59
284.628	27.31
284.843	23.21
285.058	21.16
285.274	111.27
285.489	-1.37
285.704	84.65
285.919	15.02
286.134	-50.52
286.349	8.87
286.564	23.21
286.779	94.89
286.995	17.07
287.21	-3.41
287.425	23.21
287.64	29.35
287.855	10.92
288.07	-7.51
288.285	27.31
288.5	25.26
288.715	82.6
288.93	17.07
289.145	31.4
289.36	68.27
289.575	23.21
289.79	-21.84
290.004	17.07
290.219	113.32
290.434	-15.7
290.649	0.68
290.864	-15.7
291.079	-27.99
291.294	6.83
291.509	-23.89
291.724	45.74
291.938	84.65
292.153	23.21
292.368	-23.89
292.583	-58.71
292.798	51.88
293.012	41.64
293.227	33.45
293.442	25.26
293.657	62.12
293.871	80.55
294.086	92.84
294.301	35.5
294.516	29.35
294.73	41.64
294.945	8.87
295.16	-23.89
295.374	35.5
295.589	-25.94
295.804	27.31
296.018	31.4
296.233	-25.94
296.447	53.93
296.662	29.35
296.877	70.31
297.091	-7.51
297.306	80.55
297.52	-17.75
297.735	27.31
297.949	-56.66
298.164	-7.51
298.378	27.31
298.593	27.31
298.807	8.87
299.022	21.16
299.236	58.03
299.451	6.83
299.665	17.07
299.88	41.64
300.094	17.07
300.309	27.31
300.523	8.87
300.737	58.03
300.952	152.23
301.166	25.26
301.381	-15.7
301.595	133.8
301.809	31.4
302.024	15.02
302.238	0.68
302.452	64.17
302.667	53.93
302.881	8.87
303.095	43.69
303.309	55.98
303.524	-30.04
303.738	51.88
303.952	-1.37
304.166	37.55
304.381	12.97
304.595	80.55
304.809	29.35
305.023	-27.99
305.237	12.97
305.452	55.98
305.666	-5.46
305.88	80.55
306.094	23.21
306.308	98.99
306.522	117.42
306.736	35.5
306.95	29.35
307.164	-36.18
307.379	51.88
307.593	78.51
307.807	31.4
308.021	-1.37
308.235	6.83
308.449	6.83
308.663	49.83
308.877	25.26
309.091	35.5
309.305	8.87
309.519	21.16
309.733	88.75
309.947	64.17
310.161	53.93
310.374	53.93
310.588	62.12
310.802	-64.85
311.016	-34.13
311.23	37.55
311.444	-17.75
311.658	80.55
311.872	4.78
312.085	80.55
312.299	58.03
312.513	23.21
312.727	-52.56
312.941	29.35
313.154	74.41
313.368	23.21
313.582	60.07
313.796	25.26
314.009	21.16
314.223	39.59
314.437	101.03
314.651	-38.23
314.864	88.75
315.078	49.83
315.292	45.74
315.505	25.26
315.719	-15.7
315.933	58.03
316.146	-13.65
316.36	6.83
316.573	25.26
316.787	88.75
317.001	68.27
317.214	12.97
317.428	45.74
317.641	-73.04
317.855	17.07
318.068	-1.37
318.282	86.7
318.495	62.12
318.709	119.46
318.922	19.11
319.136	17.07
319.349	82.6
319.563	68.27
319.776	53.93
319.99	49.83
320.203	53.93
320.417	60.07
320.63	4.78
320.843	109.23
321.057	-17.75
321.27	27.31
321.483	23.21
321.697	64.17
321.91	43.69
322.124	21.16
322.337	90.79
322.55	55.98
322.763	27.31
322.977	23.21
323.19	31.4
323.403	72.36
323.617	-7.51
323.83	-21.84
324.043	-5.46
324.256	49.83
324.469	103.08
324.683	29.35
324.896	62.12
325.109	74.41
325.322	-15.7
325.535	0.68
325.748	15.02
325.962	41.64
326.175	25.26
326.388	27.31
326.601	60.07
326.814	35.5
327.027	-9.56
327.24	66.22
327.453	-44.37
327.666	-32.08
327.879	60.07
328.092	12.97
328.305	117.42
328.518	-21.84
328.731	10.92
328.944	58.03
329.157	-32.08
329.37	70.31
329.583	117.42
329.796	21.16
330.009	84.65
330.222	96.94
330.435	88.75
330.648	74.41
330.861	-44.37
331.073	19.11
331.286	25.26
331.499	45.74
331.712	-11.61
331.925	4.78
332.138	86.7
332.35	25.26
332.563	4.78
332.776	15.02
332.989	43.69
333.202	15.02
333.414	23.21
333.627	43.69
333.84	111.27
334.053	23.21
334.265	82.6
334.478	53.93
334.691	27.31
334.903	105.13
335.116	8.87
335.329	58.03
335.541	64.17
335.754	25.26
335.966	8.87
336.179	60.07
336.392	-25.94
336.604	25.26
336.817	74.41
337.029	37.55
337.242	-1.37
337.454	17.07
337.667	23.21
337.88	41.64
338.092	78.51
338.305	33.45
338.517	70.31
338.729	60.07
338.942	-11.61
339.154	21.16
339.367	29.35
339.579	-1.37
339.792	-15.7
340.004	25.26
340.217	-7.51
340.429	-15.7
340.641	15.02
340.854	49.83
341.066	68.27
341.278	105.13
341.491	60.07
341.703	82.6
341.915	109.23
342.128	49.83
342.34	15.02
342.552	-15.7
342.764	64.17
342.977	47.79
343.189	47.79
343.401	31.4
343.613	64.17
343.826	21.16
344.038	21.16
344.25	74.41
344.462	45.74
344.674	8.87
344.886	-32.08
345.099	72.36
345.311	58.03
345.523	29.35
345.735	-21.84
345.947	-25.94
346.159	115.37
346.371	82.6
346.583	12.97
346.795	117.42
347.007	45.74
347.219	55.98
347.431	-11.61
347.643	17.07
347.855	-15.7
348.067	105.13
348.279	43.69
348.491	23.21
348.703	45.74
348.915	-85.33
349.127	17.07
349.339	43.69
349.551	-11.61
349.763	90.79
349.975	49.83
350.187	76.46
350.399	8.87
350.61	25.26
350.822	92.84
351.034	66.22
351.246	84.65
351.458	31.4
351.669	21.16
351.881	107.18
352.093	33.45
352.305	53.93
352.517	47.79
352.728	10.92
352.94	-15.7
353.152	12.97
353.363	0.68
353.575	60.07
353.787	68.27
353.999	37.55
354.21	55.98
354.422	35.5
354.633	51.88
354.845	33.45
355.057	94.89
355.268	82.6
355.48	29.35
355.692	-23.89
355.903	-3.41
356.115	-27.99
356.326	17.07
356.538	68.27
356.749	76.46
356.961	17.07
357.172	55.98
357.384	115.37
357.595	58.03
357.807	-3.41
358.018	-23.89
358.23	45.74
358.441	103.08
358.653	55.98
358.864	94.89
359.075	76.46
359.287	94.89
359.498	94.89
359.709	29.35
359.921	70.31
360.132	31.4
360.344	70.31
360.555	47.79
360.766	68.27
360.977	55.98
361.189	105.13
361.4	51.88
361.611	6.83
361.823	17.07
362.034	47.79
362.245	53.93
362.456	55.98
362.667	105.13
362.879	45.74
363.09	55.98
363.301	31.4
363.512	17.07
363.723	66.22
363.935	25.26
364.146	64.17
364.357	12.97
364.568	109.23
364.779	35.5
364.99	53.93
365.201	45.74
365.412	49.83
365.623	-44.37
365.834	6.83
366.045	31.4
366.256	109.23
366.467	117.42
366.678	115.37
366.889	25.26
367.1	-40.28
367.311	-27.99
367.522	80.55
367.733	31.4
367.944	113.32
368.155	92.84
368.366	88.75
368.577	109.23
368.788	12.97
368.999	-27.99
369.209	53.93
369.42	101.03
369.631	25.26
369.842	37.55
370.053	58.03
370.264	29.35
370.474	105.13
370.685	60.07
370.896	39.59
371.107	39.59
371.317	58.03
371.528	111.27
371.739	25.26
371.95	64.17
372.16	55.98
372.371	2.73
372.582	41.64
372.792	90.79
373.003	31.4
373.214	29.35
373.424	62.12
373.635	51.88
373.846	33.45
374.056	96.94
374.267	96.94
374.477	8.87
374.688	84.65
374.898	25.26
375.109	43.69
375.319	39.59
375.53	86.7
375.74	107.18
375.951	109.23
376.161	-1.37
376.372	62.12
376.582	127.66
376.793	64.17
377.003	-3.41
377.214	23.21
377.424	76.46
377.635	84.65
377.845	-38.23
378.055	78.51
378.266	29.35
378.476	4.78
378.686	6.83
378.897	60.07
379.107	53.93
379.317	47.79
379.528	98.99
379.738	86.7
379.948	-7.51
380.158	94.89
380.369	35.5
380.579	74.41
380.789	37.55
380.999	51.88
381.21	101.03
381.42	141.99
381.63	131.75
381.84	101.03
382.05	90.79
382.261	58.03
382.471	90.79
382.681	68.27
382.891	49.83
383.101	68.27
383.311	37.55
383.521	80.55
383.731	31.4
383.941	72.36
384.151	33.45
384.361	15.02
384.571	86.7
384.781	47.79
384.991	129.7
385.201	51.88
385.411	78.51
385.621	72.36
385.831	47.79
386.041	74.41
386.251	76.46
386.461	88.75
386.671	-15.7
386.881	90.79
387.091	47.79
387.301	70.31
387.511	37.55
387.72	17.07
387.93	109.23
388.14	-27.99
388.35	94.89
388.56	105.13
388.769	76.46
388.979	33.45
389.189	23.21
389.399	72.36
389.609	27.31
389.818	27.31
390.028	119.46
390.238	125.61
390.447	74.41
390.657	121.51
390.867	21.16
391.076	41.64
391.286	62.12
391.496	60.07
391.705	53.93
391.915	70.31
392.125	-19.8
392.334	74.41
392.544	133.8
392.753	45.74
392.963	-25.94
393.172	98.99
393.382	62.12
393.591	109.23
393.801	33.45
394.01	60.07
394.22	139.94
394.429	86.7
394.639	88.75
394.848	64.17
395.058	29.35
395.267	82.6
395.477	90.79
395.686	45.74
395.895	80.55
396.105	166.57
396.314	43.69
396.524	103.08
396.733	23.21
396.942	131.75
397.152	127.66
397.361	146.09
397.57	31.4
397.78	66.22
397.989	90.79
398.198	168.62
398.407	66.22
398.617	86.7
398.826	98.99
399.035	88.75
399.244	123.56
399.453	82.6
399.663	121.51
399.872	158.38
400.081	68.27
400.29	135.85
400.499	98.99
400.708	107.18
400.917	96.94
401.127	96.94
401.336	115.37
401.545	84.65
401.754	74.41
401.963	129.7
402.172	191.14
402.381	92.84
402.59	172.71
402.799	158.38
403.008	139.94
403.217	115.37
403.426	207.53
403.635	94.89
403.844	223.91
404.053	158.38
404.262	131.75
404.471	225.96
404.68	174.76
404.888	187.05
405.097	172.71
405.306	199.34
405.515	135.85
405.724	144.04
405.933	187.05
406.142	144.04
406.35	197.29
406.559	234.15
406.768	203.43
406.977	223.91
407.185	82.6
407.394	299.69
407.603	137.9
407.812	262.82
408.02	295.59
408.229	242.34
408.438	271.01
408.646	160.42
408.855	209.58
409.064	199.34
409.272	221.86
409.481	342.69
409.69	221.86
409.898	285.35
410.107	289.45
410.315	430.76
410.524	258.73
410.733	297.64
410.941	328.36
411.15	414.37
411.358	379.56
411.567	385.7
411.775	375.46
411.984	377.51
412.192	508.58
412.401	494.24
412.609	535.2
412.818	522.91
413.026	557.73
413.234	506.53
413.443	574.11
413.651	570.02
413.86	666.27
414.068	629.41
414.276	672.42
414.485	615.07
414.693	733.86
414.901	823.97
415.11	737.95
415.318	776.86
415.526	787.1
415.734	774.81
415.943	897.69
416.151	877.21
416.359	903.84
416.567	901.79
416.776	952.99
416.984	924.32
417.192	1020.57
417.4	1159.83
417.608	1047.19
417.817	1110.68
418.025	1161.88
418.233	1254.04
418.441	1278.62
418.649	1317.53
418.857	1372.82
419.065	1430.16
419.273	1381.01
419.481	1487.51
419.689	1589.91
419.897	1544.85
420.105	1616.53
420.313	1614.48
420.521	1727.12
420.729	1770.13
420.937	1821.33
421.145	1882.77
421.353	1964.68
421.561	1983.12
421.769	1907.34
421.977	2091.66
422.185	2108.04
422.393	2337.41
422.601	2505.35
422.809	2472.58
423.017	2470.53
423.224	2620.03
423.432	2552.45
423.64	2693.76
423.848	2890.37
424.056	2892.41
424.263	3164.79
424.471	3017.34
424.679	3203.71
424.887	3359.35
425.094	3326.58
425.302	3410.55
425.51	3539.57
425.718	3727.99
425.925	3687.03
426.133	3750.51
426.341	4039.28
426.548	4217.45
426.756	4289.13
426.964	4323.94
427.171	4598.37
427.379	4747.87
427.586	4778.59
427.794	4895.33
428.001	5091.93
428.209	5397.08
428.417	5327.45
428.624	5653.08
428.832	5718.61
429.039	5595.73
429.247	5558.87
429.454	6107.73
429.662	6537.8
429.869	6281.8
430.076	6568.52
430.284	6361.67
430.491	6804.03
430.699	7195.2
430.906	6998.59
431.114	7213.63
431.321	7217.72
431.528	7561.78
431.736	7840.31
431.943	8268.33
432.15	8219.18
432.358	8344.11
432.565	8667.69
432.772	8821.28
432.979	9140.77
433.187	9286.17
433.394	9402.91
433.601	9896.47
433.808	9787.93
434.016	9902.61
434.223	10199.57
434.43	10992.13
434.637	10826.25
434.844	11473.4
435.052	11520.51
435.259	11579.9
435.466	11659.77
435.673	11612.67
435.88	12341.74
436.087	13015.52
436.294	12913.13
436.501	12648.94
436.708	12800.49
436.915	13584.86
437.122	13953.49
437.329	13910.49
437.537	14254.55
437.743	14860.74
437.95	14594.51
438.157	15317.44
438.364	15858.1
438.571	15786.43
438.778	15829.43
438.985	17324.45
439.192	16775.59
439.399	17207.72
439.606	16765.35
439.813	17729.95
440.02	19016.07
440.227	18428.31
440.433	18481.55
440.64	18827.66
440.847	18682.25
441.054	19177.86
441.261	20668.78
441.467	20361.59
441.674	21125.48
441.881	21393.76
442.088	21610.85
442.294	21305.7
442.501	21725.54
442.708	22518.1
442.914	23159.11
443.121	24152.38
443.328	23660.87
443.534	25383.21
443.741	24588.6
443.948	24174.91
444.154	25932.06
444.361	25854.24
444.568	25911.58
444.774	25944.35
444.981	26300.7
445.187	26988.81
445.394	28375.29
445.6	28166.4
445.807	30468.31
446.013	29382.89
446.22	30054.62
446.426	31297.74
446.633	31092.94
446.839	32368.83
447.046	30953.68
447.252	32508.09
447.459	32544.95
447.665	32829.62
447.871	34228.38
448.078	35829.9
448.284	33863.85
448.491	35053.72
448.697	35940.49
448.903	36810.87
449.11	36829.3
449.316	36042.88
449.522	37075.06
449.728	38285.41
449.935	38541.41
450.141	38314.08
450.347	39508.05
450.553	37638.25
450.76	38776.92
450.966	39663.69
451.172	39358.55
451.378	40237.12
451.584	39577.68
451.791	40464.45
451.997	40271.94
452.203	40826.94
452.409	41277.49
452.615	40640.57
452.821	39524.43
453.027	39043.16
453.233	40851.52
453.44	39409.75
453.646	39884.87
453.852	40110.15
454.058	40659.01
454.264	39561.29
454.47	40302.66
454.676	39258.2
454.882	40816.7
455.088	37027.96
455.294	38056.04
455.5	38391.9
455.705	38819.93
455.911	37290.1
456.117	36579.45
456.323	36413.57
456.529	34271.39
456.735	35690.63
456.941	34914.45
457.147	34080.93
457.352	33061.04
457.558	32872.63
457.764	33122.48
457.97	32549.05
458.176	31441.1
458.381	31717.57
458.587	30079.2
458.793	30130.4
458.999	28664.05
459.204	30759.13
459.41	29812.96
459.616	27756.8
459.821	27775.23
460.027	27908.35
460.233	27035.92
460.438	25669.92
460.644	26220.83
460.85	24672.56
461.055	24467.77
461.261	24478.01
461.466	22507.86
461.672	22120.79
461.878	23443.78
462.083	22014.3
462.289	21526.88
462.494	21424.48
462.7	20308.34
462.905	20152.7
463.111	20652.4
463.316	20402.55
463.522	20070.78
463.727	20369.78
463.932	20064.63
464.138	19929.47
464.343	19964.28
464.549	19714.43
464.754	20244.85
464.959	19908.99
465.165	19794.3
465.37	18676.11
465.575	18512.27
465.781	19204.49
465.986	19396.99
466.191	18346.39
466.397	18143.64
466.602	17547.68
466.807	17977.75
467.012	18241.94
467.218	17873.31
467.423	17645.98
467.628	17959.32
467.833	18430.35
468.038	17830.3
468.244	17488.29
468.449	17951.13
468.654	17514.91
468.859	17473.95
469.064	17545.63
469.269	16603.57
469.474	16726.44
469.679	17101.22
469.885	16388.53
470.09	16802.22
470.295	16589.23
470.5	16273.84
470.705	16513.45
470.91	15946.17
471.115	15786.43
471.32	16155.06
471.525	15937.98
471.73	15788.47
471.935	15397.31
472.139	15169.99
472.344	15153.6
472.549	15221.19
472.754	14983.62
472.959	14772.68
473.164	14174.67
473.369	14561.74
473.574	14795.21
473.778	14432.72
473.983	14213.59
474.188	14369.23
474.393	13775.32
474.598	13824.47
474.802	13599.2
475.007	13476.32
475.212	13474.27
475.417	12993
475.621	12874.21
475.826	12784.1
476.031	12745.19
476.235	12696.04
476.44	12952.04
476.645	12411.37
476.849	12456.43
477.054	12431.85
477.259	12331.5
477.463	12311.02
477.668	11977.2
477.872	11962.87
478.077	11973.11
478.282	11500.03
478.486	11596.28
478.691	11393.53
478.895	11563.51
479.1	11403.77
479.304	11131.39
479.509	11211.26
479.713	11319.81
479.918	10998.27
480.122	10897.92
480.326	10916.36
480.531	10850.82
480.735	10805.77
480.94	10641.93
481.144	11170.3
481.348	10506.76
481.553	10715.66
481.757	10572.3
481.961	10578.44
482.166	10672.65
482.37	10572.3
482.574	10261.01
482.778	10590.73
482.983	10600.97
483.187	10551.82
483.391	10351.12
483.595	10381.84
483.8	10304.01
484.004	10404.36
484.208	10619.4
484.412	10439.18
484.616	10510.86
484.821	10488.33
485.025	10283.53
485.229	10658.31
485.433	10406.41
485.637	10514.95
485.841	10557.96
486.045	10254.86
486.249	10574.35
486.453	10322.45
486.657	10441.23
486.861	10408.46
487.065	10328.59
487.269	10369.55
487.473	10263.05
487.677	10486.28
487.881	10453.52
488.085	10447.37
488.289	10721.8
488.493	10412.56
488.697	10682.89
488.901	10697.22
489.105	10635.78
489.309	10574.35
489.512	10672.65
489.716	10603.02
489.92	10852.87
490.124	10469.9
490.328	10947.08
490.531	10502.67
490.735	10615.3
490.939	10713.61
491.143	10701.32
491.346	10916.36
491.55	10850.82
491.754	10867.2
491.958	10793.48
492.161	11035.14
492.365	10899.97
492.569	11096.58
492.772	10992.13
492.976	11043.33
493.18	11311.61
493.383	11344.38
493.587	11379.2
493.79	11649.53
493.994	11399.68
494.197	11698.68
494.401	11612.67
494.605	11583.99
494.808	11950.58
495.012	11823.61
495.215	12026.36
495.419	11905.52
495.622	11835.89
495.825	12171.76
496.029	11921.91
496.232	12237.3
496.436	12493.29
496.639	12716.52
496.843	12560.88
497.046	12800.49
497.249	12968.42
497.453	12976.61
497.656	13044.2
497.859	13095.39
498.063	13380.06
498.266	13443.55
498.469	13568.48
498.673	13693.4
498.876	13793.75
499.079	14062.04
499.282	14012.88
499.485	14352.85
499.689	14379.47
499.892	14791.11
500.095	14621.13
500.298	15296.96
500.501	14862.79
500.705	15206.85
500.908	15565.25
501.111	15665.6
501.314	15759.8
501.517	15858.1
501.72	16216.5
501.923	15933.88
502.126	16472.5
502.329	16763.31
502.532	16789.93
502.735	17220
502.938	17232.29
503.141	17482.14
503.344	17584.54
503.547	17562.01
503.75	17664.41
503.953	18248.08
504.156	18450.83
504.359	18598.29
504.562	18739.6
504.765	19054.98
504.968	18905.48
505.17	19227.01
505.373	19532.16
505.576	19560.83
505.779	19978.62
505.982	20017.53
506.185	20529.52
506.387	20568.43
506.59	20849
506.793	21152.1
506.996	21107.05
507.198	21649.76
507.401	21504.35
507.604	21903.71
507.807	22317.4
508.009	22296.92
508.212	22540.63
508.415	22892.88
508.617	23230.79
508.82	23179.59
509.022	23361.86
509.225	23603.52
509.428	23789.89
509.63	23945.53
509.833	24031.55
510.035	24881.45
510.238	24510.77
510.44	25256.23
510.643	25325.86
510.845	25383.21
511.048	25424.17
511.25	26003.74
511.453	25712.93
511.655	27193.61
511.858	26607.89
512.06	27085.07
512.262	27287.82
512.465	27074.83
512.667	27855.11
512.87	28031.23
513.072	27916.54
513.274	28379.39
513.477	28887.28
513.679	28836.08
513.881	29253.87
514.084	29692.13
514.286	29632.74
514.488	30005.47
514.69	30613.72
514.893	30818.52
515.095	30929.11
515.297	31094.99
515.499	31148.24
515.701	31674.57
515.904	31842.5
516.106	32024.77
516.308	32420.03
516.51	32618.68
516.712	32870.58
516.914	33304.75
517.116	33806.5
517.318	33810.6
517.52	34240.67
517.722	33947.81
517.925	34488.48
518.127	35131.54
518.329	34879.64
518.531	34652.31
518.733	35899.53
518.935	35973.25
519.136	36155.52
519.338	36348.03
519.54	36509.82
519.742	36974.71
519.944	37224.56
520.146	37830.76
520.348	38037.61
520.55	37898.34
520.752	38379.62
520.954	39004.25
521.155	38604.89
521.357	39346.26
521.559	39299.15
521.761	39901.26
521.963	39667.79
522.164	40061
522.366	40259.65
522.568	40620.09
522.77	40804.41
522.971	41232.44
523.173	41023.54
523.375	41736.24
523.576	41302.07
523.778	41840.68
523.98	42530.85
524.181	42207.27
524.383	42637.34
524.584	43071.51
524.786	42954.78
524.988	43259.93
525.189	43692.05
525.391	43882.51
525.592	43837.45
525.794	44169.22
525.995	44259.34
526.197	44099.59
526.398	44302.34
526.6	44554.24
526.801	44810.24
527.003	44865.53
527.204	45252.6
527.406	45348.85
527.607	45610.99
527.808	45750.26
528.01	45500.4
528.211	45547.51
528.412	45733.87
528.614	45823.98
528.815	46370.79
529.016	46335.98
529.218	46256.1
529.419	46342.12
529.62	46893.02
529.822	46426.09
530.023	46452.71
530.224	46616.55
530.425	46421.99
530.626	46311.4
530.828	46555.11
531.029	47716.31
531.23	46929.89
531.431	46706.66
531.632	46649.31
531.833	47235.03
532.035	46942.17
532.236	47554.52
532.437	47468.5
532.638	47396.82
532.839	47249.37
533.04	47534.04
533.241	47130.59
533.442	47908.82
533.643	47638.48
533.844	47372.25
534.045	47661.01
534.246	47241.18
534.447	47636.44
534.648	47478.74
534.849	47603.67
535.05	47486.93
535.251	47564.76
535.451	47228.89
535.652	47822.8
535.853	47822.8
536.054	47724.5
536.255	47904.72
536.456	47163.35
536.657	48080.85
536.857	47673.3
537.058	47982.54
537.259	48238.54
537.46	47570.9
537.66	47912.91
537.861	47710.16
538.062	47448.02
538.263	47953.87
538.463	47824.85
538.664	47851.47
538.865	48189.39
539.065	48533.45
539.266	47460.31
539.466	48437.19
539.667	47314.9
539.868	48113.61
540.068	47482.84
540.269	47581.14
540.469	47718.35
540.67	47620.05
540.87	47579.09
541.071	47685.59
541.271	48218.06
541.472	47505.37
541.672	47724.5
541.873	47515.61
542.073	47022.05
542.274	47880.14
542.474	47284.19
542.675	47138.78
542.875	47867.86
543.075	47384.54
543.276	47273.95
543.476	47994.83
543.676	47513.56
543.877	47884.24
544.077	47699.92
544.277	47726.55
544.478	47394.78
544.678	47556.56
544.878	47536.09
545.078	47540.18
545.279	47290.33
545.479	46985.18
545.679	47871.95
545.879	47480.79
546.079	47644.63
546.28	47450.07
546.48	47562.71
546.68	47726.55
546.88	47685.59
547.08	47568.85
547.28	47339.48
547.48	46895.07
547.68	47427.54
547.88	47028.19
548.081	47683.54
548.281	47396.82
548.481	47357.91
548.681	47349.72
548.881	47181.79
549.081	47333.34
549.28	47144.92
549.48	47687.63
549.68	47466.45
549.88	47593.43
550.08	46905.31
550.28	47126.49
550.48	47024.09
550.68	47382.49
550.88	46895.07
551.08	47140.83
551.279	47245.27
551.479	46856.16
551.679	47073.24
551.879	47083.48
552.079	47142.88
552.278	46999.52
552.478	47464.41
552.678	46667.75
552.878	47050.72
553.077	46895.07
553.277	46600.16
553.477	47515.61
553.676	47149.02
553.876	46749.67
554.076	46686.18
554.275	46835.68
554.475	46651.36
554.674	47214.55
554.874	46917.6
555.074	46778.34
555.273	47024.09
555.473	47044.57
555.672	46491.62
555.872	46716.9
556.071	46663.65
556.271	46843.87
556.47	46344.17
556.67	46274.54
556.869	45996.01
557.068	46727.14
557.268	45838.32
557.467	46303.21
557.667	46065.64
557.866	46651.36
558.065	46161.9
558.265	45776.88
558.464	45934.57
558.663	46440.42
558.863	45895.66
559.062	46196.71
559.261	45717.49
559.461	46569.44
559.66	45359.09
559.859	46137.32
560.058	45654
560.258	45721.58
560.457	45465.59
560.656	45793.26
560.855	45434.87
561.054	45557.75
561.253	44939.26
561.453	45840.37
561.652	45643.76
561.851	45967.34
562.05	45422.58
562.249	44918.78
562.448	45953.01
562.647	45262.84
562.846	44828.67
563.045	44982.27
563.244	44810.24
563.443	45291.51
563.642	44269.58
563.841	44568.58
564.04	44234.76
564.239	45017.08
564.438	44785.66
564.637	44578.82
564.836	45029.37
565.035	43851.79
565.234	44292.1
565.432	43886.6
565.631	43997.2
565.83	44361.73
566.029	43823.12
566.228	43653.14
566.427	43571.22
566.625	43483.16
566.824	43130.9
567.023	43493.39
567.222	43311.13
567.42	43681.81
567.619	43667.47
567.818	43239.45
568.016	43343.89
568.215	43380.76
568.414	43399.19
568.612	43370.52
568.811	43520.02
569.01	42938.4
569.208	42500.13
569.407	43124.76
569.605	42496.03
569.804	43108.38
570.002	42522.66
570.201	42811.42
570.4	42440.74
570.598	41832.49
570.797	41848.88
570.995	42285.09
571.193	41498.67
571.392	42207.27
571.59	41781.29
571.789	41709.61
571.987	41633.84
572.186	41826.35
572.384	41635.89
572.582	41535.54
572.781	41865.26
572.979	41130.04
573.177	41148.47
573.376	41234.49
573.574	41037.88
573.772	41070.65
573.971	40769.6
574.169	40556.61
574.367	40728.64
574.565	40775.74
574.763	40583.23
574.962	40237.12
575.16	39893.07
575.358	40243.27
575.556	40063.05
575.754	40446.02
575.952	40163.4
576.151	40181.83
576.349	39659.6
576.547	39757.9
576.745	39243.86
576.943	39376.98
577.141	39565.39
577.339	39551.06
577.537	39247.96
577.735	39286.87
577.933	38975.58
578.131	39034.97
578.329	39225.43
578.527	38514.78
578.725	38578.27
578.923	38996.06
579.121	38678.62
579.319	38555.74
579.516	38578.27
579.714	38510.69
579.912	38340.71
580.11	38299.75
580.308	38695
580.506	38053.99
580.704	37728.36
580.901	37982.31
581.099	37935.21
581.297	37496.94
581.495	37556.33
581.692	37546.09
581.89	37296.24
582.088	37646.44
582.285	37286
582.483	37460.08
582.681	37075.06
582.878	37007.48
583.076	37038.2
583.274	37245.04
583.471	37044.34
583.669	36724.86
583.866	36628.6
584.064	36632.7
584.262	36100.23
584.459	36515.97
584.657	36450.43
584.854	36554.88
585.052	35563.66
585.249	36243.59
585.447	35694.73
585.644	35872.9
585.841	35752.07
586.039	35598.48
586.236	35502.22
586.434	35078.29
586.631	35348.62
586.828	35586.19
587.026	35285.14
587.223	35235.99
587.42	34932.89
587.618	35291.28
587.815	34635.93
588.012	34621.59
588.21	34568.35
588.407	35053.72
588.604	34150.56
588.801	34461.85
588.999	34291.87
589.196	34164.9
589.393	34193.57
589.59	34218.14
589.787	34099.36
589.984	34119.84
590.182	33654.95
590.379	34089.12
590.576	33007.79
590.773	33192.11
590.97	33261.74
591.167	33708.2
591.364	32972.98
591.561	33194.16
591.758	32700.6
591.955	33237.17
592.152	33056.95
592.349	32743.61
592.546	32977.08
592.743	32725.18
592.94	32030.91
593.137	32387.26
593.334	32547
593.531	31856.84
593.727	32547
593.924	32350.4
594.121	31875.27
594.318	32137.41
594.515	31713.48
594.712	32219.33
594.908	31666.38
595.105	31748.29
595.302	31424.72
595.499	31647.94
595.696	31572.17
595.892	30994.64
596.089	31166.67
596.286	31094.99
596.482	31189.2
596.679	30955.73
596.876	30906.58
597.072	30636.25
597.269	30623.96
597.466	30531.8
597.662	30306.52
597.859	30613.72
598.055	30376.16
598.252	30085.34
598.448	30046.43
598.645	30062.82
598.841	29962.47
599.038	29685.99
599.234	29933.79
599.431	29219.05
599.627	29520.1
599.824	29720.81
600.02	29335.79
600.217	29384.94
600.413	29518.06
600.609	29286.64
600.806	29346.03
601.002	29376.75
601.198	29098.22
601.395	28666.1
601.591	28516.6
601.787	28664.05
601.984	28608.76
602.18	28788.98
602.376	28356.86
602.572	28330.23
602.769	28309.75
602.965	28258.56
603.161	28469.5
603.357	28272.89
603.553	27658.5
603.75	28029.18
603.946	27871.49
604.142	28203.26
604.338	27328.78
604.534	27822.34
604.73	27603.21
604.926	27142.41
605.122	27332.87
605.318	27210
605.514	26798.35
605.71	27072.78
605.906	27205.9
606.102	26841.36
606.298	27070.73
606.494	27273.48
606.69	26769.68
606.886	26888.46
607.082	26605.84
607.278	26765.59
607.474	26358.04
607.67	26794.26
607.866	26200.35
608.062	26556.69
608.257	26480.92
608.453	26245.4
608.649	26255.64
608.845	26310.94
609.041	26212.63
609.236	26194.2
609.432	26161.44
609.628	26186.01
609.824	26083.61
610.019	25553.19
610.215	25962.78
610.411	25766.18
610.606	25788.71
610.802	25481.51
610.998	25739.55
611.193	25549.09
611.389	25731.36
611.584	25518.37
611.78	25153.83
611.976	25420.07
612.171	25456.93
612.367	25303.34
612.562	25293.1
612.758	24758.58
612.953	24928.56
613.149	25401.64
613.344	24863.02
613.539	25352.49
613.735	25153.83
613.93	25159.98
614.126	25141.55
614.321	25303.34
614.517	24787.25
614.712	24899.89
614.907	24643.89
615.103	24967.47
615.298	24455.48
615.493	24865.07
615.688	24076.6
615.884	24891.69
616.079	24340.79
616.274	24699.19
616.47	24518.96
616.665	24383.8
616.86	24295.74
617.055	24211.77
617.25	24205.63
617.445	24512.82
617.641	23963.97
617.836	24168.76
618.031	24064.32
618.226	24289.59
618.421	23507.27
618.616	24043.84
618.811	23517.51
619.006	23828.8
619.201	23406.92
619.396	23738.69
619.591	23216.46
619.786	23443.78
619.981	22831.44
620.176	23429.45
620.371	23075.15
620.566	22747.47
620.761	22790.48
620.956	23230.79
621.151	22384.98
621.346	22471
621.541	22411.6
621.735	22544.72
621.93	22069.59
622.125	22432.08
622.32	21932.38
622.515	21893.47
622.709	21961.05
622.904	21872.99
623.099	21786.97
623.294	21842.27
623.488	21494.11
623.683	21711.2
623.878	21332.33
624.072	21225.83
624.267	20988.27
624.462	20947.31
624.656	20887.92
624.851	20455.79
625.046	20582.77
625.24	20353.4
625.435	20459.89
625.629	20175.22
625.824	20038.01
626.018	20177.27
626.213	19671.42
626.407	19958.14
626.602	19558.78
626.796	19630.46
626.991	19816.83
627.185	19734.91
627.38	19157.38
627.574	19380.61
627.768	18749.84
627.963	18909.58
628.157	18700.69
628.352	18801.04
628.546	18563.47
628.74	18952.59
628.935	18485.65
629.129	18264.47
629.323	18215.32
629.517	18215.32
629.712	18364.82
629.906	18170.26
630.1	17580.45
630.294	18092.44
630.489	17830.3
630.683	17717.66
630.877	17549.73
631.071	17420.7
631.265	17320.35
631.459	17275.3
631.653	17213.86
631.848	17033.64
632.042	16921
632.236	17041.83
632.43	16902.57
632.624	16943.53
632.818	16646.57
633.012	16773.55
633.206	16732.59
633.4	16501.17
633.594	16452.02
633.788	16439.73
633.982	16216.5
634.176	16150.96
634.369	15976.89
634.563	16132.53
634.757	15829.43
634.951	15944.12
635.145	15868.34
635.339	15679.93
635.533	15653.31
635.726	15661.5
635.92	15272.39
636.114	15405.5
636.308	15313.35
636.501	15391.17
636.695	15186.37
636.889	15157.7
637.083	14836.17
637.276	15010.25
637.47	14735.82
637.664	14746.06
637.857	14797.26
638.051	14651.85
638.244	14459.34
638.438	14637.52
638.632	14526.92
638.825	14035.41
639.019	14225.87
639.212	14211.54
639.406	13951.45
639.599	14062.04
639.793	14010.84
639.986	13656.54
640.18	13785.56
640.373	13803.99
640.567	13533.66
640.76	13584.86
640.954	13693.4
641.147	13404.64
641.34	13277.66
641.534	13220.32
641.727	13191.65
641.92	13251.04
642.114	13150.69
642.307	13087.2
642.5	12847.59
642.694	12792.3
642.887	12714.47
643.08	12763.62
643.273	12503.53
643.467	12726.76
643.66	12476.91
643.853	12524.01
644.046	12384.75
644.239	12438
644.432	12126.71
644.626	12235.25
644.819	12184.05
645.012	12182
645.205	12294.64
645.398	12102.13
645.591	11909.62
645.784	12009.97
645.977	11794.93
646.17	11778.55
646.363	11854.33
646.556	11618.81
646.749	11473.4
646.942	11512.32
647.135	11315.71
647.328	11317.76
647.521	11252.22
647.714	11143.68
647.907	11127.3
648.099	11149.82
648.292	11383.29
648.485	10854.92
648.678	10820.1
648.871	10850.82
649.064	10836.49
649.256	10983.94
649.449	10453.52
649.642	10703.37
649.835	10519.05
650.027	10654.22
650.22	10560.01
650.413	10447.37
650.605	10299.92
650.798	10553.87
650.991	10082.83
651.183	10191.38
651.376	10304.01
651.568	10226.19
651.761	9988.63
651.954	9947.67
652.146	9929.24
652.339	9839.12
652.531	9970.19
652.724	10058.26
652.916	9843.22
653.109	9710.1
653.301	9671.19
653.494	9777.69
653.686	9601.56
653.879	9552.41
654.071	9419.29
654.263	9275.93
654.456	9665.05
654.648	9407
654.84	9407
655.033	9329.18
655.225	9234.97
655.417	9189.92
655.61	9179.68
655.802	9216.54
655.994	8923.68
656.186	8983.07
656.379	8655.4
656.571	8884.77
656.763	8759.84
656.955	8739.37
657.148	8741.41
657.34	8696.36
657.532	8532.52
657.724	8542.76
657.916	8692.26
658.108	8344.11
658.3	8337.96
658.492	8493.61
658.684	8294.96
658.876	8481.32
659.068	8362.54
659.26	8317.48
659.452	8294.96
659.644	8174.13
659.836	8030.77
660.028	7948.85
660.22	7785.01
660.412	7854.64
660.604	7832.12
660.796	7971.38
660.988	7895.6
661.18	7807.54
661.372	7860.79
661.563	7832.12
661.755	7742
661.947	7668.28
662.139	7717.43
662.331	7529.02
662.522	7680.57
662.714	7623.22
662.906	7600.69
663.097	7295.55
663.289	7397.95
663.481	7219.77
663.673	7307.84
663.864	7363.13
664.056	7135.81
664.247	7356.99
664.439	7008.83
664.631	7416.38
664.822	7019.07
665.014	7127.61
665.205	7010.88
665.397	6769.22
665.588	7053.89
665.78	6873.67
665.971	6871.62
666.163	6838.85
666.354	6943.3
666.546	6720.07
666.737	6873.67
666.929	6877.76
667.12	6713.92
667.311	6689.35
667.503	6486.6
667.694	6707.78
667.885	6462.02
668.077	6556.23
668.268	6476.36
668.459	6502.98
668.651	6443.59
668.842	6625.86
669.033	6244.94
669.224	6279.75
669.416	6472.26
669.607	6410.82
669.798	6449.74
669.989	6328.91
670.18	6183.5
670.371	6279.75
670.563	6064.72
670.754	6085.2
670.945	5952.08
671.136	6113.87
671.327	5941.84
671.518	6085.2
671.709	6183.5
671.9	6111.82
672.091	6042.19
672.282	5915.22
672.473	6025.81
672.664	5921.36
672.855	6031.95
673.046	5960.27
673.237	5941.84
673.428	5894.74
673.619	5788.24
673.809	5716.56
674	5565.01
674.191	5751.38
674.382	5655.12
674.573	5700.18
674.764	5642.84
674.954	5757.52
675.145	5515.86
675.336	5614.16
675.527	5550.68
675.717	5569.11
675.908	5435.99
676.099	5476.95
676.289	5495.38
676.48	5458.52
676.671	5268.06
676.861	5417.56
677.052	5513.81
677.243	5274.2
677.433	5493.33
677.624	5321.31
677.814	5317.21
678.005	5317.21
678.195	5292.63
678.386	5284.44
678.576	5249.63
678.767	5347.93
678.957	5352.02
679.148	5134.94
679.338	5194.33
679.529	5161.56
679.719	5132.89
679.909	5223
680.1	5266.01
680.29	5241.43
680.481	5161.56
680.671	5091.93
680.861	5153.37
681.052	5042.78
681.242	5007.97
681.432	5036.64
681.622	4885.09
681.813	5087.84
682.003	5083.74
682.193	5171.8
682.383	5018.21
682.573	5028.45
682.764	5007.97
682.954	4993.63
683.144	4952.67
683.334	4848.22
683.524	4964.96
683.714	4821.6
683.904	4868.7
684.094	4833.89
684.284	4858.46
684.474	4811.36
684.664	4928.1
684.854	4774.5
685.044	4850.27
685.234	4893.28
685.424	4745.83
685.614	4604.52
685.804	4766.31
685.994	4747.87
686.184	4737.63
686.374	4684.39
686.564	4405.86
686.753	4602.47
686.943	4491.88
687.133	4565.6
687.323	4610.66
687.513	4538.98
687.702	4659.81
687.892	4498.02
688.082	4448.87
688.272	4543.08
688.461	4563.56
688.651	4524.65
688.841	4334.18
689.03	4434.53
689.22	4432.49
689.41	4401.77
689.599	4328.04
689.789	4432.49
689.979	4194.92
690.168	4344.42
690.358	4072.04
690.547	4291.18
690.737	4285.03
690.926	4301.42
691.116	4031.09
691.305	4176.49
691.495	4145.77
691.684	4002.41
691.874	4059.76
692.063	4080.24
692.252	4053.61
692.442	3969.65
692.631	3955.31
692.82	3945.07
693.01	3986.03
693.199	4035.18
693.388	3957.36
693.578	3928.69
693.767	3990.13
693.956	4039.28
694.146	4004.46
694.335	4002.41
694.524	3844.72
694.713	3844.72
694.902	3684.98
695.092	3955.31
695.281	3797.62
695.47	3807.86
695.659	3803.76
695.848	3826.29
696.037	3805.81
696.226	3832.43
696.415	3773.04
696.604	3744.37
696.793	3748.47
696.982	3830.38
697.171	3783.28
697.36	3740.27
697.549	3678.83
697.738	3691.12
697.927	3734.13
698.116	3619.44
698.305	3738.23
698.494	3781.23
698.683	3730.03
698.872	3760.75
699.061	3678.83
699.25	3576.44
699.438	3496.57
699.627	3578.48
699.816	3633.78
700.005	3617.4
700.193	3644.02
700.382	3670.64
700.571	3576.44
700.76	3582.58
700.948	3682.93
701.137	3500.66
701.326	3633.78
701.514	3506.81
701.703	3566.2
701.892	3576.44
702.08	3691.12
702.269	3463.8
702.457	3465.85
702.646	3598.96
702.834	3383.93
703.023	3541.62
703.212	3410.55
703.4	3441.27
703.589	3463.8
703.777	3521.14
703.965	3308.15
704.154	3439.22
704.342	3433.08
704.531	3437.17
704.719	3408.5
704.907	3484.28
705.096	3400.31
705.284	3541.62
705.472	3326.58
705.661	3445.37
705.849	3373.69
706.037	3512.95
706.226	3428.98
706.414	3394.17
706.602	3488.37
706.79	3428.98
706.979	3420.79
707.167	3463.8
707.355	3345.02
707.543	3459.7
707.731	3285.62
707.919	3377.78
708.107	3400.31
708.296	3369.59
708.484	3310.2
708.672	3304.06
708.86	3320.44
709.048	3322.49
709.236	3385.98
709.424	3418.74
709.612	3381.88
709.8	3191.42
709.988	3299.96
710.176	3367.54
710.364	3322.49
710.551	3465.85
710.739	3189.37
710.927	3199.61
711.115	3193.47
711.303	3336.82
711.491	3312.25
711.679	3220.09
711.866	3379.83
712.054	3238.52
712.242	3224.19
712.43	3318.39
712.617	3342.97
712.805	3236.47
712.993	3129.98
713.181	3275.38
713.368	3289.72
713.556	3201.66
713.744	3193.47
713.931	3310.2
714.119	3246.71
714.306	3250.81
714.494	3142.27
714.682	3211.9
714.869	3232.38
715.057	3269.24
715.244	3117.69
715.432	3261.05
715.619	3207.8
715.807	3293.82
715.994	3273.34
716.182	3144.31
716.369	3316.34
716.556	3226.23
716.744	3207.8
716.931	3156.6
717.119	3215.99
717.306	3252.86
717.493	3160.7
717.681	3265.14
717.868	3242.62
718.055	3261.05
718.242	3201.66
718.43	3238.52
718.617	3236.47
718.804	3121.79
718.991	3248.76
719.179	3203.71
719.366	3009.15
719.553	3166.84
719.74	3224.19
719.927	3156.6
720.114	3082.88
720.301	3295.86
720.488	3050.11
720.676	3078.78
720.863	3181.18
721.05	3250.81
721.237	3218.04
721.424	3129.98
721.611	3031.68
721.798	3091.07
721.985	3023.48
722.172	3148.41
722.358	3062.4
722.545	3252.86
722.732	2996.86
722.919	3220.09
723.106	3068.54
723.293	3068.54
723.48	3142.27
723.667	3142.27
723.853	3189.37
724.04	3105.4
724.227	2962.05
724.414	3095.16
724.6	2986.62
724.787	3115.64
724.974	3054.2
725.161	3015.29
725.347	3005.05
725.534	3181.18
725.72	3031.68
725.907	3037.82
726.094	3164.79
726.28	3025.53
726.467	3097.21
726.653	3070.59
726.84	3064.44
727.027	3105.4
727.213	2921.09
727.4	3056.25
727.586	3080.83
727.773	3066.49
727.959	3070.59
728.145	2962.05
728.332	3066.49
728.518	2871.93
728.705	3011.2
728.891	2968.19
729.077	2998.91
729.264	3021.44
729.45	3029.63
729.636	3154.55
729.823	3041.92
730.009	2912.89
730.195	3072.64
730.382	2964.09
730.568	2880.13
730.754	2929.28
730.94	2859.65
731.126	2970.24
731.313	2968.19
731.499	2949.76
731.685	2998.91
731.871	3013.24
732.057	2927.23
732.243	2974.33
732.429	2906.75
732.615	2900.61
732.801	2843.26
732.987	2978.43
733.173	2837.12
733.359	2878.08
733.545	2982.53
733.731	2865.79
733.917	2826.88
734.103	2929.28
734.289	3027.58
734.475	2914.94
734.661	2988.67
734.847	3070.59
735.033	2865.79
735.219	2767.49
735.404	2779.78
735.59	2968.19
735.776	2841.22
735.962	2929.28
736.148	2790.02
736.333	2841.22
736.519	2865.79
736.705	2992.77
736.89	2749.06
737.076	2806.4
737.262	2890.37
737.447	2855.55
737.633	2814.59
737.819	2830.98
738.004	2818.69
738.19	2890.37
738.375	2736.77
738.561	2908.8
738.747	2808.45
738.932	2781.82
739.118	2855.55
739.303	2906.75
739.489	2652.8
739.674	2654.85
739.859	2857.6
740.045	2732.67
740.23	2695.81
740.416	2744.96
740.601	2701.95
740.786	2828.93
740.972	2732.67
741.157	2724.48
741.342	2595.46
741.528	2515.59
741.713	2722.43
741.898	2693.76
742.084	2595.46
742.269	2556.55
742.454	2572.93
742.639	2693.76
742.824	2544.26
743.01	2652.8
743.195	2577.03
743.38	2542.21
743.565	2611.84
743.75	2513.54
743.935	2611.84
744.12	2595.46
744.305	2499.2
744.49	2574.98
744.675	2329.22
744.86	2405
745.045	2499.2
745.23	2454.15
745.415	2493.06
745.6	2509.44
745.785	2394.76
745.97	2472.58
746.155	2380.42
746.34	2423.43
746.525	2415.24
746.71	2359.94
746.895	2355.85
747.079	2384.52
747.264	2253.45
747.449	2349.7
747.634	2247.3
747.819	2417.29
748.003	2192.01
748.188	2288.26
748.373	2194.06
748.557	2261.64
748.742	2114.19
748.927	2288.26
749.111	2167.43
749.296	2103.95
749.481	2136.71
749.665	2122.38
749.85	2108.04
750.034	2062.99
750.219	2087.56
750.404	2077.32
750.588	2081.42
750.773	2001.55
750.957	2157.19
751.141	1942.16
751.326	2050.7
751.51	1878.67
751.695	1991.31
751.879	1979.02
752.064	2122.38
752.248	1864.33
752.432	1981.07
752.617	1833.61
752.801	1942.16
752.985	1929.87
753.17	1868.43
753.354	1856.14
753.538	1772.18
753.722	1874.57
753.907	1893.01
754.091	1821.33
754.275	1790.61
754.459	1796.75
754.643	1559.19
754.828	1751.7
755.012	1745.55
755.196	1821.33
755.38	1809.04
755.564	1663.63
755.748	1780.37
755.932	1694.35
756.116	1610.39
756.3	1729.17
756.484	1739.41
756.668	1608.34
756.852	1505.94
757.036	1610.39
757.22	1596.05
757.404	1483.41
757.588	1655.44
757.772	1614.48
757.956	1594
758.14	1618.58
758.323	1544.85
758.507	1600.15
758.691	1481.36
758.875	1493.65
759.059	1530.52
759.242	1571.47
759.426	1553.04
759.61	1546.9
759.794	1374.87
759.977	1514.13
760.161	1551
760.345	1432.21
760.528	1512.08
760.712	1434.26
760.895	1442.45
761.079	1403.54
761.263	1454.74
761.446	1307.29
761.63	1350.29
761.813	1411.73
761.997	1426.07
762.18	1419.93
762.364	1364.63
762.547	1356.44
762.731	1440.4
762.914	1421.97
763.098	1356.44
763.281	1329.81
763.464	1196.7
763.648	1297.05
763.831	1241.75
764.015	1278.62
764.198	1206.94
764.381	1280.66
764.564	1301.14
764.748	1276.57
764.931	1331.86
765.114	1266.33
765.297	1188.5
765.481	1219.22
765.664	1325.72
765.847	1249.94
766.03	1194.65
766.213	1231.51
766.397	1401.49
766.58	1262.23
766.763	1239.7
766.946	1182.36
767.129	1133.21
767.312	1198.74
767.495	1186.46
767.678	1188.5
767.861	1151.64
768.044	1106.59
768.227	1159.83
768.41	1235.61
768.593	1139.35
768.776	1075.87
768.959	1333.91
769.142	1190.55
769.324	1180.31
769.507	1096.35
769.69	1157.79
769.873	1063.58
770.056	1039
770.239	1051.29
770.421	1129.11
770.604	1055.39
770.787	1088.15
770.97	1049.24
771.152	948.89
771.335	981.66
771.518	1041.05
771.7	1049.24
771.883	952.99
772.066	1051.29
772.248	952.99
772.431	1034.91
772.613	1055.39
772.796	946.84
772.978	981.66
773.161	1008.28
773.343	996
773.526	973.47
773.708	1024.67
773.891	1000.09
774.073	979.61
774.256	899.74
774.438	971.42
774.621	950.94
774.803	983.71
774.985	930.46
775.168	973.47
775.35	912.03
775.532	850.59
775.715	952.99
775.897	965.28
776.079	897.69
776.261	895.64
776.444	871.07
776.626	899.74
776.808	928.41
776.99	768.67
777.173	785.05
777.355	811.68
777.537	838.3
777.719	836.25
777.901	795.29
778.083	871.07
778.265	787.1
778.447	809.63
778.629	762.53
778.811	778.91
778.993	713.38
779.175	783.01
779.357	838.3
779.539	785.05
779.721	754.34
779.903	703.14
780.085	713.38
780.267	756.38
780.449	682.66
780.631	809.63
780.812	721.57
780.994	719.52
781.176	756.38
781.358	684.7
781.54	709.28
781.721	694.94
781.903	711.33
782.085	705.18
782.267	742.05
782.448	692.9
782.63	596.64
782.812	625.31
782.993	631.46
783.175	588.45
783.357	684.7
783.538	666.27
783.72	643.74
783.901	617.12
784.083	625.31
784.264	582.31
784.446	541.35
784.627	510.63
784.809	604.83
784.99	582.31
785.172	637.6
785.353	572.07
785.535	588.45
785.716	553.63
785.897	567.97
786.079	547.49
786.26	518.82
786.441	563.87
786.623	459.43
786.804	561.83
786.985	486.05
787.167	481.96
787.348	527.01
787.529	506.53
787.71	486.05
787.891	488.1
788.073	494.24
788.254	508.58
788.435	522.91
788.616	535.2
788.797	463.52
788.978	449.19
789.159	510.63
789.34	559.78
789.522	469.67
789.703	500.39
789.884	453.28
790.065	463.52
790.246	477.86
790.427	496.29
790.607	481.96
790.788	475.81
790.969	393.89
791.15	375.46
791.331	412.32
791.512	451.24
791.693	432.8
791.874	426.66
792.054	426.66
792.235	428.71
792.416	449.19
792.597	406.18
792.778	465.57
792.958	379.56
793.139	504.48
793.32	430.76
793.5	389.8
793.681	447.14
793.862	381.6
794.042	404.13
794.223	377.51
794.404	320.17
794.584	402.08
794.765	371.37
794.945	359.08
795.126	393.89
795.306	369.32
795.487	467.62
795.667	352.93
795.848	346.79
796.028	340.65
796.209	373.41
796.389	369.32
796.57	328.36
796.75	344.74
796.93	293.54
797.111	316.07
797.291	344.74
797.471	359.08
797.652	412.32
797.832	238.25
798.012	395.94
798.192	354.98
798.373	359.08
798.553	309.93
798.733	383.65
798.913	303.78
799.093	350.89
799.274	301.73
799.454	338.6
799.634	309.93
799.814	332.45
799.994	297.64
800.174	311.97
800.354	305.83
800.534	326.31
800.714	326.31
800.894	307.88
801.074	336.55
801.254	256.68
801.434	264.87
801.614	266.92
801.794	285.35
801.974	744.1
802.154	309.93
802.334	281.25
802.514	291.49
802.693	246.44
802.873	242.34
803.053	295.59
803.233	213.67
803.413	293.54
803.592	271.01
803.772	277.16
803.952	254.63
804.131	287.4
804.311	320.17
804.491	264.87
804.67	254.63
804.85	238.25
805.03	199.34
805.209	293.54
805.389	242.34
805.568	232.1
805.748	223.91
805.928	289.45
806.107	228.01
806.287	268.97
806.466	291.49
806.646	230.06
806.825	207.53
807.004	297.64
807.184	217.77
807.363	316.07
807.543	182.95
807.722	176.81
807.901	201.38
808.081	268.97
808.26	178.86
808.439	178.86
808.619	271.01
808.798	191.14
808.977	254.63
809.156	260.77
809.336	228.01
809.515	287.4
809.694	109.23
809.873	209.58
810.052	170.66
810.231	225.96
810.411	234.15
810.59	238.25
810.769	195.24
810.948	238.25
811.127	141.99
811.306	178.86
811.485	199.34
811.664	242.34
811.843	197.29
812.022	195.24
812.201	203.43
812.38	221.86
812.559	121.51
812.737	160.42
812.916	121.51
813.095	166.57
813.274	254.63
813.453	197.29
813.632	201.38
813.811	176.81
813.989	215.72
814.168	232.1
814.347	254.63
814.526	205.48
814.704	119.46
814.883	254.63
815.062	228.01
815.24	189.1
815.419	225.96
815.598	137.9
815.776	127.66
815.955	137.9
816.133	141.99
816.312	187.05
816.49	96.94
816.669	158.38
816.847	170.66
817.026	115.37
817.204	90.79
817.383	187.05
817.561	180.9
817.74	137.9
817.918	180.9
818.097	146.09
818.275	193.19
818.453	58.03
818.632	146.09
818.81	119.46
818.988	127.66
819.167	144.04
819.345	125.61
819.523	135.85
819.701	156.33
819.879	191.14
820.058	152.23
820.236	92.84
820.414	74.41
820.592	31.4
820.77	98.99
820.948	135.85
821.127	168.62
821.305	105.13
821.483	70.31
821.661	55.98
821.839	121.51
822.017	29.35
822.195	162.47
822.373	156.33
822.551	156.33
822.729	178.86
822.907	152.23
823.085	176.81
823.262	156.33
823.44	90.79
823.618	123.56
823.796	94.89
823.974	139.94
824.152	135.85
824.329	109.23
824.507	86.7
824.685	119.46
824.863	152.23
825.04	117.42
825.218	96.94
825.396	162.47
825.574	148.14
825.751	164.52
825.929	117.42
826.107	133.8
826.284	160.42
826.462	121.51
826.639	94.89
826.817	117.42
826.994	150.18
827.172	41.64
827.349	197.29
827.527	113.32
827.704	187.05
827.882	111.27
828.059	80.55
828.237	187.05
828.414	187.05
828.591	90.79
828.769	119.46
828.946	94.89
829.124	148.14
829.301	158.38
829.478	80.55
829.655	88.75
829.833	82.6
830.01	64.17
830.187	129.7
830.364	94.89
830.542	49.83
830.719	133.8
830.896	115.37
831.073	74.41
831.25	123.56
831.427	146.09
831.604	119.46
831.782	154.28
831.959	105.13
832.136	107.18
832.313	117.42
832.49	78.51
832.667	96.94
832.844	111.27
833.021	162.47
833.198	141.99
833.374	88.75
833.551	49.83
833.728	60.07
833.905	105.13
834.082	74.41
834.259	68.27
834.436	164.52
834.612	84.65
834.789	176.81
834.966	129.7
835.143	55.98
835.319	92.84
835.496	80.55
835.673	72.36
835.85	80.55
836.026	72.36
836.203	180.9
836.38	53.93
836.556	86.7
836.733	29.35
836.909	74.41
837.086	6.83
837.262	6.83
837.439	74.41
837.616	68.27
837.792	78.51
837.968	27.31
838.145	60.07
838.321	60.07
838.498	27.31
838.674	160.42
838.851	53.93
839.027	76.46
839.203	51.88
839.38	76.46
839.556	115.37
839.732	74.41
839.909	137.9
840.085	58.03
840.261	101.03
840.437	19.11
840.614	17.07
840.79	119.46
840.966	131.75
841.142	74.41
841.318	10.92
841.494	107.18
841.671	111.27
841.847	101.03
842.023	33.45
842.199	31.4
842.375	21.16
842.551	64.17
842.727	60.07
842.903	94.89
843.079	51.88
843.255	25.26
843.431	84.65
843.607	15.02
843.783	4.78
843.959	109.23
844.134	88.75
844.31	88.75
844.486	53.93
844.662	53.93
844.838	101.03
845.013	66.22
845.189	88.75
845.365	66.22
845.541	21.16
845.716	25.26
845.892	117.42
846.068	88.75
846.244	43.69
846.419	115.37
846.595	-42.32
846.77	10.92
846.946	19.11
847.122	37.55
847.297	158.38
847.473	45.74
847.648	-17.75
847.824	17.07
847.999	96.94
848.175	70.31
848.35	29.35
848.526	133.8
848.701	29.35
848.876	-1.37
849.052	80.55
849.227	-11.61
849.403	53.93
849.578	105.13
849.753	-11.61
849.929	-5.46
850.104	27.31
850.279	76.46
850.454	4.78
850.63	64.17
850.805	2.73
850.98	68.27
851.155	12.97
851.33	15.02
851.505	37.55
851.681	78.51
851.856	-7.51
852.031	70.31
852.206	62.12
852.381	-34.13
852.556	17.07
852.731	64.17
852.906	-34.13
853.081	45.74
853.256	47.79
853.431	12.97
853.606	60.07
853.781	53.93
853.956	-60.76
854.131	12.97
854.305	12.97
854.48	82.6
854.655	19.11
854.83	-23.89
855.005	37.55
855.18	27.31
855.354	39.59
855.529	113.32
855.704	35.5
855.879	101.03
856.053	-17.75
856.228	58.03
856.403	-32.08
856.577	111.27
856.752	-58.71
856.926	78.51
857.101	78.51
857.276	-7.51
857.45	31.4
857.625	80.55
857.799	45.74
857.974	8.87
858.148	4.78
858.323	2.73
858.497	6.83
858.672	64.17
858.846	-19.8
859.02	90.79
859.195	-83.28
859.369	33.45
859.543	25.26
859.718	8.87
859.892	86.7
860.066	55.98
860.241	23.21
860.415	-1.37
860.589	27.31
860.763	53.93
860.938	-21.84
861.112	64.17
861.286	58.03
861.46	25.26
861.634	-50.52
861.808	-15.7
861.982	-48.47
862.157	111.27
862.331	-7.51
862.505	43.69
862.679	-15.7
862.853	41.64
863.027	4.78
863.201	-3.41
863.375	84.65
863.549	84.65
863.722	0.68
863.896	43.69
864.07	-5.46
864.244	37.55
864.418	70.31
864.592	17.07
864.766	0.68
864.939	-23.89
865.113	19.11
865.287	-17.75
865.461	-9.56
865.634	35.5
865.808	55.98
865.982	82.6
866.156	29.35
866.329	-48.47
866.503	31.4
866.676	37.55
866.85	19.11
867.024	-15.7
867.197	12.97
867.371	58.03
867.544	60.07
867.718	-40.28
867.891	-9.56
868.065	-36.18
868.238	-13.65
868.412	12.97
868.585	51.88
868.759	2.73
868.932	-5.46
869.105	64.17
869.279	8.87
869.452	55.98
869.625	62.12
869.799	76.46
869.972	-7.51
870.145	4.78
870.319	10.92
870.492	51.88
870.665	-3.41
870.838	17.07
871.011	-3.41
871.185	-46.42
871.358	45.74
871.531	27.31
871.704	8.87
871.877	35.5
872.05	21.16
872.223	-1.37
872.396	21.16
872.569	39.59
872.742	27.31
872.915	35.5
873.088	23.21
873.261	-1.37
873.434	27.31
873.607	82.6
873.78	103.08
873.953	41.64
874.126	17.07
874.299	19.11
874.471	25.26
874.644	-11.61
874.817	-13.65
874.99	68.27
875.163	-21.84
875.335	25.26
875.508	-11.61
875.681	41.64
875.853	-5.46
876.026	27.31
876.199	-13.65
876.371	37.55
876.544	10.92
876.717	-7.51
876.889	-34.13
877.062	29.35
877.234	-40.28
877.407	2.73
877.579	-17.75
877.752	39.59
877.924	12.97
878.097	8.87
878.269	74.41
878.442	98.99
878.614	12.97
878.786	15.02
878.959	-36.18
879.131	-15.7
879.303	-32.08
879.476	53.93
879.648	37.55
879.82	33.45
879.993	27.31
880.165	-25.94
880.337	19.11
880.509	-36.18
880.681	-3.41
880.854	-11.61
881.026	37.55
881.198	66.22
881.37	41.64
881.542	-3.41
881.714	-36.18
881.886	15.02
882.058	49.83
882.23	8.87
882.402	-15.7
882.574	45.74
882.746	15.02
882.918	-25.94
883.09	53.93
883.262	64.17
883.434	-71
883.606	-9.56
883.778	92.84
883.95	43.69
884.122	12.97
884.293	19.11
884.465	4.78
884.637	-11.61
884.809	-77.14
884.98	-9.56
885.152	-15.7
885.324	21.16
885.496	-32.08
885.667	27.31
885.839	39.59
886.011	-40.28
886.182	-38.23
886.354	25.26
886.525	35.5
886.697	0.68
886.869	19.11
887.04	31.4
887.212	-3.41
887.383	25.26
887.555	2.73
887.726	-64.85
887.897	15.02
888.069	47.79
888.24	-13.65
888.412	39.59
888.583	-71
888.754	6.83
888.926	-48.47
889.097	-68.95
889.268	-30.04
889.44	43.69
889.611	29.35
889.782	-11.61
889.953	-71
890.125	-5.46
890.296	51.88
890.467	45.74
890.638	-5.46
890.809	15.02
890.98	-32.08
891.151	53.93
891.323	33.45
891.494	-54.61
891.665	29.35
891.836	-60.76
892.007	-87.38
892.178	51.88
892.349	23.21
892.52	-27.99
892.691	2.73
892.862	8.87
893.032	-122.2
893.203	-58.71
893.374	43.69
893.545	-5.46
893.716	6.83
893.887	45.74
894.057	25.26
894.228	21.16
894.399	74.41
894.57	35.5
894.74	25.26
894.911	49.83
895.082	-38.23
895.253	-7.51
895.423	-11.61
895.594	6.83
895.764	39.59
895.935	-46.42
896.106	45.74
896.276	47.79
896.447	0.68
896.617	15.02
896.788	-30.04
896.958	-11.61
897.129	12.97
897.299	23.21
897.47	90.79
897.64	-68.95
897.81	-21.84
897.981	25.26
898.151	-34.13
898.322	35.5
898.492	-23.89
898.662	-25.94
898.832	-46.42
899.003	33.45
899.173	-15.7
899.343	-50.52
899.513	-34.13
