Data from USB4F104151__72__12-27-48-311.txt Node

Date: Fri Mar 14 12:27:48 EDT 2025
User: louis
Spectrometer: USB4F10415
Trigger mode: 4
Integration Time (sec): 2.000000E-2
Scans to average: 1
Electric dark correction enabled: true
Nonlinearity correction enabled: false
Boxcar width: 0
XAxis mode: Wavelengths
Number of Pixels in Spectrum: 3648
>>>>>Begin Spectral Data<<<<<
178.204	-77.31
178.424	-77.31
178.644	-77.31
178.864	-103.93
179.084	-97.79
179.304	-9.73
179.524	4.61
179.744	29.18
179.964	4.61
180.184	23.04
180.404	-56.83
180.624	10.75
180.844	59.9
181.064	-38.4
181.283	51.71
181.503	-71.17
181.723	-7.68
181.943	-73.21
182.163	53.76
182.383	-19.97
182.602	23.04
182.822	20.99
183.042	-3.58
183.262	-5.63
183.482	-5.63
183.701	-22.02
183.921	-1.54
184.141	-30.21
184.361	-15.87
184.58	-40.45
184.8	64
185.02	20.99
185.239	70.14
185.459	2.56
185.679	61.95
185.898	-36.35
186.118	6.66
186.338	-17.92
186.557	61.95
186.777	-42.5
186.997	35.33
187.216	27.14
187.436	41.47
187.655	-38.4
187.875	57.86
188.095	16.9
188.314	33.28
188.534	80.38
188.753	-19.97
188.973	-9.73
189.192	49.66
189.412	51.71
189.631	-32.26
189.851	-17.92
190.07	-3.58
190.29	68.09
190.509	14.85
190.729	-3.58
190.948	88.57
191.168	80.38
191.387	0.51
191.607	-26.11
191.826	-3.58
192.045	-1.54
192.265	16.9
192.484	8.7
192.704	33.28
192.923	-52.74
193.142	113.15
193.362	14.85
193.581	25.09
193.8	-81.41
194.02	25.09
194.239	-1.54
194.458	59.9
194.678	49.66
194.897	-54.78
195.116	-17.92
195.335	74.24
195.555	-15.87
195.774	-7.68
195.993	43.52
196.212	49.66
196.432	-62.98
196.651	4.61
196.87	-9.73
197.089	98.81
197.308	2.56
197.528	12.8
197.747	47.62
197.966	45.57
198.185	31.23
198.404	25.09
198.623	16.9
198.842	37.38
199.062	10.75
199.281	29.18
199.5	33.28
199.719	72.19
199.938	78.33
200.157	47.62
200.376	47.62
200.595	70.14
200.814	6.66
201.033	-1.54
201.252	16.9
201.471	39.42
201.69	20.99
201.909	31.23
202.128	18.94
202.347	66.05
202.566	-13.82
202.785	35.33
203.004	-19.97
203.223	61.95
203.442	27.14
203.661	-17.92
203.879	82.43
204.098	-28.16
204.317	-3.58
204.536	-38.4
204.755	8.7
204.974	61.95
205.193	-26.11
205.411	47.62
205.63	-7.68
205.849	-9.73
206.068	37.38
206.287	16.9
206.505	-1.54
206.724	-11.78
206.943	29.18
207.162	6.66
207.381	-13.82
207.599	-73.21
207.818	10.75
208.037	0.51
208.255	12.8
208.474	-32.26
208.693	25.09
208.911	-36.35
209.13	74.24
209.349	20.99
209.567	37.38
209.786	12.8
210.005	39.42
210.223	39.42
210.442	37.38
210.661	-40.45
210.879	4.61
211.098	-32.26
211.316	49.66
211.535	18.94
211.753	-38.4
211.972	-50.69
212.191	4.61
212.409	20.99
212.628	14.85
212.846	-3.58
213.065	102.91
213.283	-50.69
213.502	37.38
213.72	25.09
213.938	43.52
214.157	-46.59
214.375	-15.87
214.594	39.42
214.812	25.09
215.031	37.38
215.249	20.99
215.467	55.81
215.686	18.94
215.904	66.05
216.122	-9.73
216.341	150.01
216.559	-5.63
216.778	-36.35
216.996	-3.58
217.214	10.75
217.432	27.14
217.651	2.56
217.869	55.81
218.087	-73.21
218.306	43.52
218.524	98.81
218.742	-26.11
218.96	72.19
219.179	47.62
219.397	2.56
219.615	66.05
219.833	49.66
220.051	-38.4
220.27	72.19
220.488	-11.78
220.706	29.18
220.924	12.8
221.142	6.66
221.36	4.61
221.578	-1.54
221.796	-5.63
222.015	10.75
222.233	14.85
222.451	25.09
222.669	-32.26
222.887	43.52
223.105	-5.63
223.323	-28.16
223.541	-17.92
223.759	0.51
223.977	-79.36
224.195	133.63
224.413	-42.5
224.631	-3.58
224.849	51.71
225.067	41.47
225.285	12.8
225.503	-60.93
225.721	-40.45
225.939	-46.59
226.157	84.48
226.375	76.29
226.592	-79.36
226.81	-15.87
227.028	31.23
227.246	76.29
227.464	86.53
227.682	82.43
227.9	31.23
228.117	41.47
228.335	-11.78
228.553	-36.35
228.771	14.85
228.989	25.09
229.206	-15.87
229.424	8.7
229.642	-77.31
229.86	-3.58
230.077	-24.06
230.295	25.09
230.513	20.99
230.731	31.23
230.948	41.47
231.166	27.14
231.384	-30.21
231.601	37.38
231.819	-38.4
232.037	-22.02
232.254	-5.63
232.472	-1.54
232.689	20.99
232.907	8.7
233.125	43.52
233.342	-13.82
233.56	-11.78
233.777	18.94
233.995	6.66
234.213	0.51
234.43	33.28
234.648	37.38
234.865	23.04
235.083	-32.26
235.3	29.18
235.518	37.38
235.735	-7.68
235.953	-9.73
236.17	59.9
236.388	45.57
236.605	-58.88
236.822	31.23
237.04	23.04
237.257	74.24
237.475	-56.83
237.692	61.95
237.909	23.04
238.127	33.28
238.344	55.81
238.562	0.51
238.779	27.14
238.996	-17.92
239.214	-19.97
239.431	-34.3
239.648	12.8
239.865	45.57
240.083	16.9
240.3	66.05
240.517	-13.82
240.735	61.95
240.952	61.95
241.169	59.9
241.386	16.9
241.603	-34.3
241.821	-65.02
242.038	76.29
242.255	-58.88
242.472	29.18
242.689	33.28
242.907	10.75
243.124	-93.69
243.341	121.34
243.558	96.77
243.775	74.24
243.992	-22.02
244.209	-15.87
244.426	107.01
244.643	68.09
244.86	-11.78
245.078	29.18
245.295	6.66
245.512	29.18
245.729	-54.78
245.946	29.18
246.163	14.85
246.38	-22.02
246.597	-13.82
246.814	0.51
247.031	64
247.248	12.8
247.464	98.81
247.681	-3.58
247.898	37.38
248.115	53.76
248.332	8.7
248.549	66.05
248.766	90.62
248.983	16.9
249.2	-15.87
249.417	35.33
249.633	-7.68
249.85	25.09
250.067	0.51
250.284	-1.54
250.501	88.57
250.717	8.7
250.934	8.7
251.151	39.42
251.368	-5.63
251.585	43.52
251.801	-42.5
252.018	-7.68
252.235	-44.54
252.451	-1.54
252.668	-24.06
252.885	59.9
253.102	-48.64
253.318	37.38
253.535	18.94
253.752	55.81
253.968	35.33
254.185	66.05
254.401	-7.68
254.618	29.18
254.835	-5.63
255.051	31.23
255.268	0.51
255.484	72.19
255.701	-32.26
255.917	47.62
256.134	18.94
256.351	-19.97
256.567	-36.35
256.784	25.09
257	-17.92
257.217	25.09
257.433	78.33
257.65	0.51
257.866	4.61
258.082	-32.26
258.299	-56.83
258.515	20.99
258.732	-32.26
258.948	33.28
259.165	35.33
259.381	35.33
259.597	-67.07
259.814	8.7
260.03	-1.54
260.246	76.29
260.463	72.19
260.679	25.09
260.895	-34.3
261.112	-40.45
261.328	-9.73
261.544	-28.16
261.761	33.28
261.977	-81.41
262.193	41.47
262.409	-1.54
262.626	49.66
262.842	70.14
263.058	-40.45
263.274	121.34
263.49	-1.54
263.707	72.19
263.923	51.71
264.139	0.51
264.355	14.85
264.571	23.04
264.787	55.81
265.004	0.51
265.22	53.76
265.436	-3.58
265.652	-48.64
265.868	27.14
266.084	-11.78
266.3	33.28
266.516	-19.97
266.732	66.05
266.948	66.05
267.164	27.14
267.38	49.66
267.596	29.18
267.812	141.82
268.028	6.66
268.244	12.8
268.46	-24.06
268.676	41.47
268.892	37.38
269.108	-7.68
269.324	-19.97
269.54	14.85
269.756	33.28
269.972	-17.92
270.188	64
270.403	27.14
270.619	53.76
270.835	-58.88
271.051	-11.78
271.267	12.8
271.483	-40.45
271.698	8.7
271.914	100.86
272.13	23.04
272.346	78.33
272.562	-67.07
272.777	47.62
272.993	-24.06
273.209	35.33
273.425	27.14
273.64	12.8
273.856	-3.58
274.072	-7.68
274.287	6.66
274.503	37.38
274.719	14.85
274.934	27.14
275.15	-5.63
275.366	31.23
275.581	16.9
275.797	27.14
276.012	-36.35
276.228	2.56
276.444	49.66
276.659	84.48
276.875	6.66
277.09	20.99
277.306	-5.63
277.521	-28.16
277.737	-13.82
277.952	6.66
278.168	-24.06
278.383	57.86
278.599	-1.54
278.814	37.38
279.03	41.47
279.245	68.09
279.461	10.75
279.676	102.91
279.892	14.85
280.107	-40.45
280.322	-24.06
280.538	90.62
280.753	-11.78
280.969	98.81
281.184	51.71
281.399	-9.73
281.615	37.38
281.83	-26.11
282.045	-15.87
282.26	-3.58
282.476	10.75
282.691	0.51
282.906	27.14
283.122	61.95
283.337	-3.58
283.552	61.95
283.767	-3.58
283.983	4.61
284.198	2.56
284.413	37.38
284.628	-13.82
284.843	-3.58
285.058	-1.54
285.274	6.66
285.489	76.29
285.704	45.57
285.919	-26.11
286.134	18.94
286.349	-40.45
286.564	8.7
286.779	12.8
286.995	-1.54
287.21	-7.68
287.425	16.9
287.64	37.38
287.855	37.38
288.07	-5.63
288.285	-11.78
288.5	-7.68
288.715	29.18
288.93	20.99
289.145	-32.26
289.36	10.75
289.575	-40.45
289.79	80.38
290.004	25.09
290.219	25.09
290.434	53.76
290.649	8.7
290.864	2.56
291.079	6.66
291.294	61.95
291.509	0.51
291.724	0.51
291.938	45.57
292.153	117.25
292.368	37.38
292.583	-1.54
292.798	-46.59
293.012	66.05
293.227	-1.54
293.442	6.66
293.657	49.66
293.871	84.48
294.086	18.94
294.301	119.29
294.516	14.85
294.73	20.99
294.945	33.28
295.16	-34.3
295.374	53.76
295.589	25.09
295.804	-40.45
296.018	-38.4
296.233	115.2
296.447	-52.74
296.662	129.53
296.877	23.04
297.091	-7.68
297.306	31.23
297.52	37.38
297.735	-46.59
297.949	41.47
298.164	64
298.378	57.86
298.593	-24.06
298.807	25.09
299.022	16.9
299.236	33.28
299.451	23.04
299.665	-11.78
299.88	49.66
300.094	18.94
300.309	72.19
300.523	-38.4
300.737	59.9
300.952	78.33
301.166	4.61
301.381	-75.26
301.595	20.99
301.809	4.61
302.024	-93.69
302.238	29.18
302.452	16.9
302.667	70.14
302.881	37.38
303.095	61.95
303.309	6.66
303.524	-42.5
303.738	-1.54
303.952	-1.54
304.166	-1.54
304.381	-17.92
304.595	76.29
304.809	82.43
305.023	-50.69
305.237	20.99
305.452	-32.26
305.666	-40.45
305.88	-40.45
306.094	-9.73
306.308	0.51
306.522	0.51
306.736	14.85
306.95	31.23
307.164	31.23
307.379	6.66
307.593	92.67
307.807	59.9
308.021	66.05
308.235	-3.58
308.449	12.8
308.663	-5.63
308.877	25.09
309.091	-3.58
309.305	14.85
309.519	4.61
309.733	6.66
309.947	6.66
310.161	35.33
310.374	-17.92
310.588	0.51
310.802	-30.21
311.016	25.09
311.23	14.85
311.444	4.61
311.658	16.9
311.872	57.86
312.085	78.33
312.299	82.43
312.513	51.71
312.727	49.66
312.941	-24.06
313.154	49.66
313.368	-9.73
313.582	41.47
313.796	33.28
314.009	51.71
314.223	8.7
314.437	-3.58
314.651	-34.3
314.864	4.61
315.078	35.33
315.292	31.23
315.505	2.56
315.719	-58.88
315.933	33.28
316.146	88.57
316.36	14.85
316.573	31.23
316.787	18.94
317.001	27.14
317.214	64
317.428	57.86
317.641	47.62
317.855	37.38
318.068	41.47
318.282	-50.69
318.495	-3.58
318.709	35.33
318.922	-42.5
319.136	53.76
319.349	70.14
319.563	49.66
319.776	53.76
319.99	29.18
320.203	64
320.417	-28.16
320.63	6.66
320.843	66.05
321.057	35.33
321.27	35.33
321.483	-19.97
321.697	-1.54
321.91	23.04
322.124	45.57
322.337	20.99
322.55	0.51
322.763	61.95
322.977	31.23
323.19	20.99
323.403	-11.78
323.617	39.42
323.83	37.38
324.043	12.8
324.256	18.94
324.469	51.71
324.683	18.94
324.896	6.66
325.109	39.42
325.322	-24.06
325.535	43.52
325.748	23.04
325.962	45.57
326.175	-17.92
326.388	59.9
326.601	37.38
326.814	-22.02
327.027	43.52
327.24	53.76
327.453	-44.54
327.666	64
327.879	-19.97
328.092	43.52
328.305	23.04
328.518	23.04
328.731	-5.63
328.944	66.05
329.157	74.24
329.37	-28.16
329.583	70.14
329.796	23.04
330.009	-24.06
330.222	131.58
330.435	51.71
330.648	37.38
330.861	0.51
331.073	31.23
331.286	107.01
331.499	10.75
331.712	43.52
331.925	25.09
332.138	-1.54
332.35	96.77
332.563	-3.58
332.776	57.86
332.989	45.57
333.202	18.94
333.414	-30.21
333.627	109.05
333.84	10.75
334.053	-11.78
334.265	35.33
334.478	33.28
334.691	92.67
334.903	78.33
335.116	-34.3
335.329	-32.26
335.541	49.66
335.754	76.29
335.966	55.81
336.179	45.57
336.392	-32.26
336.604	78.33
336.817	-56.83
337.029	111.1
337.242	49.66
337.454	-7.68
337.667	-3.58
337.88	33.28
338.092	8.7
338.305	47.62
338.517	72.19
338.729	23.04
338.942	70.14
339.154	-62.98
339.367	-1.54
339.579	57.86
339.792	49.66
340.004	47.62
340.217	-1.54
340.429	47.62
340.641	-24.06
340.854	-7.68
341.066	12.8
341.278	-42.5
341.491	0.51
341.703	4.61
341.915	-15.87
342.128	16.9
342.34	35.33
342.552	115.2
342.764	31.23
342.977	16.9
343.189	16.9
343.401	-7.68
343.613	-5.63
343.826	59.9
344.038	35.33
344.25	45.57
344.462	-9.73
344.674	45.57
344.886	0.51
345.099	25.09
345.311	92.67
345.523	45.57
345.735	-19.97
345.947	14.85
346.159	14.85
346.371	31.23
346.583	10.75
346.795	45.57
347.007	-30.21
347.219	23.04
347.431	4.61
347.643	-30.21
347.855	33.28
348.067	47.62
348.279	8.7
348.491	49.66
348.703	70.14
348.915	61.95
349.127	76.29
349.339	68.09
349.551	10.75
349.763	25.09
349.975	57.86
350.187	-22.02
350.399	47.62
350.61	78.33
350.822	59.9
351.034	25.09
351.246	14.85
351.458	70.14
351.669	10.75
351.881	51.71
352.093	53.76
352.305	25.09
352.517	61.95
352.728	33.28
352.94	27.14
353.152	23.04
353.363	10.75
353.575	86.53
353.787	-13.82
353.999	-9.73
354.21	-3.58
354.422	-19.97
354.633	88.57
354.845	55.81
355.057	35.33
355.268	2.56
355.48	-9.73
355.692	76.29
355.903	-13.82
356.115	-40.45
356.326	27.14
356.538	-28.16
356.749	2.56
356.961	27.14
357.172	33.28
357.384	74.24
357.595	61.95
357.807	10.75
358.018	33.28
358.23	94.72
358.441	78.33
358.653	49.66
358.864	61.95
359.075	33.28
359.287	53.76
359.498	-28.16
359.709	-1.54
359.921	-38.4
360.132	6.66
360.344	68.09
360.555	-28.16
360.766	2.56
360.977	-11.78
361.189	-24.06
361.4	20.99
361.611	33.28
361.823	96.77
362.034	-26.11
362.245	27.14
362.456	66.05
362.667	86.53
362.879	-48.64
363.09	86.53
363.301	20.99
363.512	10.75
363.723	-9.73
363.935	78.33
364.146	20.99
364.357	45.57
364.568	59.9
364.779	-7.68
364.99	23.04
365.201	33.28
365.412	27.14
365.623	29.18
365.834	0.51
366.045	115.2
366.256	37.38
366.467	37.38
366.678	16.9
366.889	-17.92
367.1	-36.35
367.311	45.57
367.522	66.05
367.733	94.72
367.944	0.51
368.155	-15.87
368.366	82.43
368.577	80.38
368.788	20.99
368.999	14.85
369.209	-11.78
369.42	-50.69
369.631	109.05
369.842	-36.35
370.053	-46.59
370.264	-13.82
370.474	47.62
370.685	20.99
370.896	20.99
371.107	-28.16
371.317	86.53
371.528	14.85
371.739	10.75
371.95	59.9
372.16	92.67
372.371	-3.58
372.582	10.75
372.792	-13.82
373.003	14.85
373.214	-38.4
373.424	59.9
373.635	8.7
373.846	109.05
374.056	57.86
374.267	51.71
374.477	88.57
374.688	64
374.898	-11.78
375.109	18.94
375.319	98.81
375.53	61.95
375.74	41.47
375.951	2.56
376.161	6.66
376.372	51.71
376.582	84.48
376.793	61.95
377.003	-3.58
377.214	55.81
377.424	104.96
377.635	43.52
377.845	-91.65
378.055	41.47
378.266	-5.63
378.476	80.38
378.686	-40.45
378.897	33.28
379.107	66.05
379.317	82.43
379.528	-40.45
379.738	27.14
379.948	68.09
380.158	43.52
380.369	6.66
380.579	33.28
380.789	6.66
380.999	64
381.21	31.23
381.42	39.42
381.63	-19.97
381.84	57.86
382.05	31.23
382.261	125.44
382.471	76.29
382.681	61.95
382.891	55.81
383.101	41.47
383.311	0.51
383.521	14.85
383.731	80.38
383.941	100.86
384.151	33.28
384.361	29.18
384.571	-24.06
384.781	74.24
384.991	90.62
385.201	39.42
385.411	84.48
385.621	115.2
385.831	-83.45
386.041	59.9
386.251	-5.63
386.461	82.43
386.671	14.85
386.881	74.24
387.091	66.05
387.301	70.14
387.511	47.62
387.72	115.2
387.93	88.57
388.14	-11.78
388.35	29.18
388.56	37.38
388.769	51.71
388.979	76.29
389.189	-11.78
389.399	37.38
389.609	-19.97
389.818	74.24
390.028	57.86
390.238	12.8
390.447	43.52
390.657	25.09
390.867	-28.16
391.076	-7.68
391.286	78.33
391.496	64
391.705	41.47
391.915	143.87
392.125	35.33
392.334	37.38
392.544	82.43
392.753	113.15
392.963	16.9
393.172	49.66
393.382	104.96
393.591	-36.35
393.801	61.95
394.01	6.66
394.22	84.48
394.429	78.33
394.639	20.99
394.848	23.04
395.058	0.51
395.267	92.67
395.477	-24.06
395.686	37.38
395.895	72.19
396.105	43.52
396.314	-11.78
396.524	68.09
396.733	43.52
396.942	6.66
397.152	86.53
397.361	72.19
397.57	125.44
397.78	80.38
397.989	111.1
398.198	117.25
398.407	33.28
398.617	59.9
398.826	113.15
399.035	109.05
399.244	78.33
399.453	123.39
399.663	49.66
399.872	96.77
400.081	94.72
400.29	143.87
400.499	39.42
400.708	16.9
400.917	104.96
401.127	129.53
401.336	84.48
401.545	37.38
401.754	176.64
401.963	90.62
402.172	137.73
402.381	-46.59
402.59	111.1
402.799	107.01
403.008	84.48
403.217	104.96
403.426	51.71
403.635	86.53
403.844	123.39
404.053	125.44
404.262	162.3
404.471	135.68
404.68	74.24
404.888	20.99
405.097	154.11
405.306	119.29
405.515	133.63
405.724	111.1
405.933	129.53
406.142	80.38
406.35	92.67
406.559	147.97
406.768	158.21
406.977	119.29
407.185	178.69
407.394	111.1
407.603	141.82
407.812	137.73
408.02	158.21
408.229	299.52
408.438	207.36
408.646	190.97
408.855	268.8
409.064	158.21
409.272	197.12
409.481	156.16
409.69	131.58
409.898	283.13
410.107	254.46
410.315	242.17
410.524	223.74
410.733	264.7
410.941	244.22
411.15	311.8
411.358	229.88
411.567	322.04
411.775	332.28
411.984	174.59
412.192	295.42
412.401	363
412.609	360.95
412.818	332.28
413.026	342.52
413.234	430.59
413.443	406.01
413.651	391.67
413.86	479.74
414.068	414.2
414.276	514.55
414.485	461.3
414.693	465.4
414.901	616.95
415.11	520.7
415.318	537.08
415.526	557.56
415.734	547.32
415.943	604.66
416.151	606.71
416.359	676.34
416.567	621.05
416.776	688.63
416.984	741.88
417.192	754.16
417.4	850.42
417.608	815.6
417.817	737.78
418.025	893.43
418.233	1059.31
418.441	874.99
418.649	973.3
418.857	1004.02
419.065	1057.26
419.273	1001.97
419.481	989.68
419.689	1227.25
419.897	1200.62
420.105	1200.62
420.313	1135.09
420.521	1276.4
420.729	1298.92
420.937	1315.31
421.145	1348.08
421.353	1458.67
421.561	1495.53
421.769	1591.78
421.977	1552.87
422.185	1640.93
422.393	1655.27
422.601	1780.2
422.809	1722.85
423.017	1849.83
423.224	1921.51
423.432	1894.88
423.64	2019.81
423.848	2128.35
424.056	2032.1
424.263	2191.84
424.471	2273.76
424.679	2265.57
424.887	2492.89
425.094	2509.27
425.302	2445.79
425.51	2648.54
425.718	2750.93
425.925	2664.92
426.133	2748.89
426.341	2888.15
426.548	3064.27
426.756	3033.55
426.964	3060.18
427.171	3400.14
427.379	3480.01
427.586	3398.09
427.794	3639.75
428.001	3662.28
428.209	3938.76
428.417	3764.68
428.624	4112.83
428.832	4080.07
429.039	4211.14
429.247	4069.83
429.454	4372.93
429.662	4876.73
429.869	4438.46
430.076	4782.52
430.284	4592.06
430.491	4766.14
430.699	4966.84
430.906	5120.43
431.114	5237.17
431.321	5319.09
431.528	5441.96
431.736	5863.85
431.943	5949.86
432.15	5900.71
432.358	5900.71
432.565	6236.58
432.772	6308.26
432.979	6574.49
433.187	6863.26
433.394	6848.92
433.601	7295.38
433.808	7397.78
434.016	7174.55
434.223	7395.73
434.43	8112.52
434.637	7881.1
434.844	8315.27
435.052	8352.13
435.259	8483.2
435.466	8440.19
435.673	8415.62
435.88	9124.21
436.087	9390.45
436.294	9492.85
436.501	9349.49
436.708	9654.64
436.915	9441.65
437.122	10244.45
437.329	10125.67
437.537	10520.93
437.743	10635.61
437.95	10500.45
438.157	11041.11
438.364	11278.68
438.571	11391.31
438.778	11831.63
438.985	12689.73
439.192	12169.54
439.399	12712.25
439.606	12167.49
439.813	13046.07
440.02	13918.51
440.227	13656.37
440.433	13644.08
440.64	14016.81
440.847	13846.83
441.054	13893.93
441.261	15012.12
441.467	14967.07
441.674	15270.17
441.881	15585.55
442.088	15595.79
442.294	15546.64
442.501	16011.53
442.708	16394.5
442.914	16779.52
443.121	17246.46
443.328	17125.63
443.534	18682.08
443.741	17797.36
443.948	17615.09
444.154	18905.31
444.361	18606.31
444.568	19146.97
444.774	19087.58
444.981	19132.64
445.187	19677.4
445.394	20396.23
445.6	20084.94
445.807	22204.59
446.013	21702.84
446.22	21625.01
446.426	22448.3
446.633	22833.32
446.839	23697.56
447.046	22558.89
447.252	23861.4
447.459	23888.02
447.665	23619.74
447.871	24942.72
448.078	26337.39
448.284	24879.24
448.491	25614.46
448.697	26464.36
448.903	26835.05
449.11	27009.12
449.316	26683.5
449.522	27060.32
449.728	28063.83
449.935	27951.19
450.141	28026.96
450.347	28498
450.553	27826.26
450.76	28342.35
450.966	29233.22
451.172	28989.51
451.378	29550.65
451.584	29050.95
451.791	29859.9
451.997	29767.74
452.203	29923.38
452.409	30079.03
452.615	29999.16
452.821	28659.79
453.027	28493.9
453.233	30240.82
453.44	28991.56
453.646	29392.96
453.852	29384.77
454.058	29857.85
454.264	29149.25
454.47	29587.52
454.676	28895.3
454.882	29446.21
455.088	27402.33
455.294	27883.61
455.5	28276.82
455.705	28217.43
455.911	27078.75
456.117	26902.63
456.323	26148.98
456.529	25028.74
456.735	26472.56
456.941	25247.87
457.147	25254.01
457.352	24408.2
457.558	24084.62
457.764	24014.99
457.97	23527.58
458.176	22962.34
458.381	23373.98
458.587	22069.42
458.793	21954.74
458.999	21274.81
459.204	22153.39
459.41	21823.67
459.616	20326.6
459.821	20388.04
460.027	20152.52
460.233	19761.36
460.438	18938.08
460.644	19261.66
460.85	18061.55
461.055	17932.53
461.261	17928.43
461.466	16494.85
461.672	16224.52
461.878	17129.72
462.083	15900.94
462.289	15735.06
462.494	15642.9
462.7	14876.96
462.905	14659.87
463.111	15028.51
463.316	15079.71
463.522	14784.8
463.727	14754.08
463.932	14526.75
464.138	14463.27
464.343	14633.25
464.549	14072.11
464.754	14645.54
464.959	14629.15
465.165	14569.76
465.37	13734.19
465.575	13617.46
465.781	13709.61
465.986	14086.44
466.191	13654.32
466.397	13277.49
466.602	12847.42
466.807	13222.2
467.012	13203.77
467.218	13009.21
467.423	12779.84
467.628	13048.12
467.833	13723.95
468.038	12898.62
468.244	12921.15
468.449	13439.28
468.654	13039.93
468.859	12775.74
469.064	12519.74
469.269	12077.38
469.474	12429.63
469.679	12288.32
469.885	12075.34
470.09	12403.01
470.295	12362.05
470.5	12013.9
470.705	11960.65
470.91	11811.15
471.115	11567.44
471.32	11809.1
471.525	11878.73
471.73	11395.41
471.935	11604.3
472.139	11022.68
472.344	11223.38
472.549	11180.37
472.754	11077.97
472.959	10850.65
473.164	10600.8
473.369	10475.87
473.574	10836.31
473.778	10721.63
473.983	10594.65
474.188	10426.72
474.393	10252.64
474.598	10056.04
474.802	9953.64
475.007	9861.48
475.212	10033.51
475.417	9542
475.621	9709.93
475.826	9689.45
476.031	9441.65
476.235	9187.7
476.44	9333.11
476.645	9408.88
476.849	9189.75
477.054	9286
477.259	8984.95
477.463	8937.85
477.668	8757.63
477.872	8991.09
478.077	8675.71
478.282	8520.06
478.486	8493.44
478.691	8354.18
478.895	8466.81
479.1	8468.86
479.304	8401.28
479.509	8151.43
479.713	8403.33
479.918	8092.04
480.122	7891.34
480.326	7958.92
480.531	8192.39
480.735	7903.62
480.94	7936.39
481.144	8065.41
481.348	7764.36
481.553	7885.19
481.757	7774.6
481.961	7866.76
482.166	7913.86
482.37	7870.86
482.574	7668.11
482.778	7565.71
482.983	7866.76
483.187	7877
483.391	7815.56
483.595	7932.29
483.8	7727.5
484.004	7786.89
484.208	7729.55
484.412	7788.94
484.616	7786.89
484.821	7819.66
485.025	7618.96
485.229	7829.9
485.433	7516.56
485.637	7795.08
485.841	7639.44
486.045	7698.83
486.249	7664.01
486.453	7735.69
486.657	7731.59
486.861	7743.88
487.065	7590.28
487.269	7500.17
487.473	7487.89
487.677	7752.07
487.881	7911.82
488.085	7704.97
488.289	7717.26
488.493	7801.22
488.697	8038.79
488.901	7905.67
489.105	7659.92
489.309	7725.45
489.512	7795.08
489.716	7858.57
489.92	7952.77
490.124	7807.37
490.328	8042.89
490.531	7932.29
490.735	7868.81
490.939	8020.36
491.143	8089.99
491.346	7848.33
491.55	8008.07
491.754	8003.97
491.958	8071.56
492.161	8124.8
492.365	8096.13
492.569	8227.2
492.772	8145.28
492.976	8130.95
493.18	8407.42
493.383	8434.05
493.587	8448.38
493.79	8573.31
493.994	8513.92
494.197	8493.44
494.401	8550.78
494.605	8677.76
494.808	8864.12
495.012	8872.31
495.215	8952.18
495.419	9046.39
495.622	8927.61
495.825	8909.18
496.029	8991.09
496.232	9283.95
496.436	9034.1
496.639	9320.82
496.843	9320.82
497.046	9642.35
497.249	9685.36
497.453	9714.03
497.656	9845.1
497.859	9714.03
498.063	10080.61
498.266	10031.46
498.469	9957.74
498.673	10154.34
498.876	10367.33
499.079	10326.37
499.282	10428.77
499.485	10572.13
499.689	10664.29
499.892	10926.43
500.095	10989.91
500.298	11477.33
500.501	11018.58
500.705	11469.14
500.908	11479.38
501.111	11669.84
501.314	11518.29
501.517	11944.27
501.72	11866.44
501.923	11966.79
502.126	12214.6
502.329	12294.47
502.532	12419.39
502.735	12738.88
502.938	12831.04
503.141	12943.67
503.344	13097.27
503.547	13048.12
503.75	13447.47
503.953	13580.59
504.156	13709.61
504.359	13857.07
504.562	13658.42
504.765	14281
504.968	14401.83
505.17	14119.21
505.373	14424.36
505.576	14799.13
505.779	14760.22
505.982	14954.78
506.185	15419.67
506.387	15333.65
506.59	15397.14
506.793	15495.44
506.996	15835.41
507.198	16206.09
507.401	15970.57
507.604	16132.36
507.807	16355.59
508.009	16410.89
508.212	16574.72
508.415	16675.07
508.617	17002.75
508.82	17410.29
509.022	17205.5
509.225	17680.63
509.428	17776.88
509.63	17834.22
509.833	18145.52
510.035	18221.29
510.238	18149.61
510.44	18518.25
510.643	18673.89
510.845	18956.51
511.048	18917.6
511.25	19329.24
511.453	19593.43
511.655	19890.38
511.858	19417.3
512.06	20138.19
512.262	20003.02
512.465	20173
512.667	20664.52
512.87	20928.7
513.072	20777.15
513.274	21500.09
513.477	21346.49
513.679	21420.22
513.881	21702.84
514.084	21958.83
514.286	22038.7
514.488	22073.52
514.69	22818.98
514.893	22501.54
515.095	22792.36
515.297	22999.2
515.499	23107.74
515.701	23345.31
515.904	24008.85
516.106	23572.63
516.308	24203.41
516.51	24400.01
516.712	24463.5
516.914	24520.84
517.116	25000.07
517.318	24676.49
517.52	25409.66
517.722	25223.3
517.925	25716.86
518.127	25784.44
518.329	26052.72
518.531	26036.34
518.733	26740.84
518.935	26503.28
519.136	26867.81
519.338	27080.8
519.54	27115.62
519.742	27664.47
519.944	27740.25
520.146	28100.69
520.348	28112.98
520.55	28155.99
520.752	28348.5
520.954	28840.01
521.155	28545.1
521.357	29216.83
521.559	29288.51
521.761	29462.59
521.963	29960.25
522.164	29755.45
522.366	29986.87
522.568	30230.58
522.77	30298.16
522.971	30830.63
523.173	30533.68
523.375	30933.03
523.576	31096.87
523.778	30920.74
523.98	31039.53
524.181	31662.11
524.383	31215.65
524.584	31739.93
524.786	31875.1
524.988	32079.89
525.189	32137.24
525.391	32718.86
525.592	32624.65
525.794	32737.29
525.995	32520.21
526.197	32708.62
526.398	33384.45
526.6	32931.85
526.801	33564.67
527.003	33626.11
527.204	33597.44
527.406	33974.27
527.607	33904.63
527.808	34172.92
528.01	33662.97
528.211	33988.6
528.412	34678.77
528.614	34111.48
528.815	34095.1
529.016	34840.56
529.218	34306.04
529.419	34592.75
529.62	34697.2
529.822	34846.7
530.023	34799.6
530.224	35024.87
530.425	34762.73
530.626	34861.04
530.828	34602.99
531.029	35348.45
531.23	34840.56
531.431	34791.41
531.632	35319.78
531.833	35424.23
532.035	35473.38
532.236	35534.82
532.437	35596.26
532.638	35239.91
532.839	35344.36
533.04	35989.47
533.241	35244.01
533.442	35762.14
533.643	35561.44
533.844	35446.76
534.045	35823.58
534.246	35420.13
534.447	35680.22
534.648	35516.39
534.849	35940.32
535.05	35717.09
535.251	35893.21
535.451	35508.19
535.652	35975.13
535.853	36151.26
536.054	35948.51
536.255	36071.39
536.456	35514.34
536.657	36468.69
536.857	35829.73
537.058	35766.24
537.259	36104.15
537.46	36243.41
537.66	35776.48
537.861	35909.6
538.062	35887.07
538.263	35739.61
538.463	35993.56
538.664	35809.25
538.865	35780.57
539.065	36399.06
539.266	35637.22
539.466	35936.22
539.667	35196.9
539.868	36382.68
540.068	35809.25
540.269	35882.97
540.469	35973.08
540.67	35764.19
540.87	35835.87
541.071	35569.63
541.271	36091.87
541.472	36114.39
541.672	35909.6
541.873	36132.82
542.073	35727.33
542.274	36315.09
542.474	35850.2
542.675	35747.81
542.875	35772.38
543.075	35657.7
543.276	35487.71
543.476	36128.73
543.676	36050.91
543.877	35839.97
544.077	36001.75
544.277	36095.96
544.478	35565.54
544.678	36104.15
544.878	35842.01
545.078	35772.38
545.279	35418.08
545.479	35702.75
545.679	36208.6
545.879	35923.93
546.079	35876.83
546.28	35792.86
546.48	35436.52
546.68	35909.6
546.88	35882.97
547.08	35893.21
547.28	35913.69
547.48	35618.78
547.68	36208.6
547.88	35500
548.081	36202.46
548.281	36151.26
548.481	35975.13
548.681	35966.94
548.881	35702.75
549.081	36132.82
549.28	35715.04
549.48	36462.55
549.68	35633.12
549.88	36249.56
550.08	35741.66
550.28	36007.9
550.48	36038.62
550.68	36270.04
550.88	35637.22
551.08	35612.64
551.279	35514.34
551.479	35461.09
551.679	35651.55
551.879	35874.78
552.079	35870.68
552.278	35495.91
552.478	35506.15
552.678	35725.28
552.878	35768.29
553.077	35518.43
553.277	35174.38
553.477	35919.84
553.676	35407.84
553.876	35745.76
554.076	35569.63
554.275	35473.38
554.475	34869.23
554.674	35162.09
554.874	35334.12
555.074	35041.26
555.273	35559.39
555.473	36241.37
555.672	35485.67
555.872	35090.41
556.071	35223.53
556.271	35895.26
556.47	35153.9
556.67	35172.33
556.869	35295.21
557.068	35524.58
557.268	35110.89
557.467	35137.51
557.667	35338.21
557.866	34965.48
558.065	35000.3
558.265	34828.27
558.464	34924.52
558.663	35416.04
558.863	34945
559.062	35352.55
559.261	34654.19
559.461	35225.57
559.66	34349.04
559.859	34904.04
560.058	34766.83
560.258	34963.43
560.457	34492.4
560.656	34689.01
560.855	34697.2
561.054	34865.13
561.253	34248.69
561.453	34592.75
561.652	34568.18
561.851	34611.18
562.05	34404.34
562.249	34189.3
562.448	34492.4
562.647	34435.06
562.846	33816.57
563.045	34420.72
563.244	33984.51
563.443	34383.86
563.642	34093.05
563.841	34510.83
564.04	33878.01
564.239	34107.38
564.438	33781.76
564.637	33638.4
564.836	34312.18
565.035	33353.73
565.234	33507.33
565.432	33392.64
565.631	33449.99
565.83	33351.68
566.029	33417.22
566.228	33462.27
566.427	33171.46
566.625	33222.66
566.824	32909.32
567.023	33187.85
567.222	33118.21
567.42	33308.68
567.619	33210.37
567.818	33103.88
568.016	32806.92
568.215	32935.95
568.414	32823.31
568.612	33101.83
568.811	32436.24
569.01	32571.41
569.208	32372.75
569.407	32671.76
569.605	32307.22
569.804	32690.19
570.002	32268.31
570.201	32208.92
570.4	32149.53
570.598	32196.63
570.797	32010.26
570.995	31905.82
571.193	31516.7
571.392	32235.54
571.59	31887.39
571.789	32065.56
571.987	31756.32
572.186	31682.59
572.384	31408.16
572.582	31672.35
572.781	31629.34
572.979	31451.17
573.177	31549.47
573.376	31424.54
573.574	31148.07
573.772	31365.15
573.971	31119.4
574.169	30957.61
574.367	31035.43
574.565	30963.75
574.763	30783.53
574.962	30824.49
575.16	30695.47
575.358	30695.47
575.556	30623.79
575.754	31084.58
575.952	30222.39
576.151	30390.32
576.349	30023.73
576.547	30347.31
576.745	29857.85
576.943	30214.19
577.141	30089.27
577.339	30171.19
577.537	30083.12
577.735	29892.66
577.933	29460.54
578.131	30173.24
578.329	29601.85
578.527	29270.08
578.725	29726.78
578.923	29571.13
579.121	29587.52
579.319	29255.75
579.516	29685.82
579.714	29497.41
579.912	29329.47
580.11	29243.46
580.308	28973.13
580.506	28995.65
580.704	28723.27
580.901	29136.96
581.099	29302.85
581.297	28856.39
581.495	29104.2
581.692	28846.15
581.89	28579.92
582.088	28850.25
582.285	28561.48
582.483	28495.95
582.681	28541
582.878	28350.54
583.076	28448.85
583.274	28213.33
583.471	28141.65
583.669	28139.6
583.866	27676.76
584.064	28198.99
584.262	27373.66
584.459	28207.19
584.657	27809.88
584.854	27904.09
585.052	27394.14
585.249	27996.24
585.447	27850.84
585.644	27344.99
585.841	27535.45
586.039	27517.02
586.236	27172.96
586.434	27338.85
586.631	26980.45
586.828	26867.81
587.026	27035.75
587.223	26798.18
587.42	26640.49
587.618	26716.26
587.815	26716.26
588.012	26890.34
588.21	26687.59
588.407	26908.77
588.604	26339.44
588.801	26490.99
588.999	26349.68
589.196	26456.17
589.393	26327.15
589.59	26316.91
589.787	26069.11
589.984	26183.79
590.182	25725.05
590.379	26054.77
590.576	25696.38
590.773	25788.53
590.97	25460.86
591.167	25763.96
591.364	25217.15
591.561	25327.74
591.758	25129.09
591.955	25211.01
592.152	25534.59
592.349	25159.81
592.546	25548.92
592.743	25221.25
592.94	24864.9
593.137	24852.61
593.334	25118.85
593.531	24690.82
593.727	24950.92
593.924	24891.52
594.121	24279.18
594.318	24696.97
594.515	24103.06
594.712	24330.38
594.908	24414.35
595.105	24414.35
595.302	24330.38
595.499	24328.33
595.696	24084.62
595.892	24062.1
596.089	23998.61
596.286	24117.39
596.482	23824.53
596.679	23873.68
596.876	23888.02
597.072	23484.57
597.269	23750.81
597.466	23609.5
597.662	23556.25
597.859	23670.93
598.055	23556.25
598.252	23218.33
598.448	23560.34
598.645	23212.19
598.841	22886.56
599.038	23226.53
599.234	23222.43
599.431	22829.22
599.627	22966.43
599.824	23077.02
600.02	22581.42
600.217	22792.36
600.413	22302.89
600.609	22315.18
600.806	22515.88
601.002	22573.22
601.198	22233.26
601.395	22245.55
601.591	22206.64
601.787	22036.66
601.984	21979.31
602.18	22302.89
602.376	22077.62
602.572	21985.46
602.769	22073.52
602.965	21680.31
603.161	21899.44
603.357	21635.25
603.553	21729.46
603.75	21633.21
603.946	21643.45
604.142	21678.26
604.338	21379.26
604.534	21567.67
604.73	21209.28
604.926	21301.43
605.122	21250.24
605.318	21416.12
605.514	20897.99
605.71	20611.27
605.906	20848.83
606.102	20818.11
606.298	21047.49
606.494	20816.07
606.69	20932.8
606.886	20926.66
607.082	20660.42
607.278	20703.43
607.474	20682.95
607.67	20889.79
607.866	20527.3
608.062	20742.34
608.257	20555.97
608.453	20494.54
608.649	20390.09
608.845	20236.49
609.041	20408.52
609.236	20199.63
609.432	20338.89
609.628	20291.79
609.824	20117.71
610.019	19962.06
610.215	20052.17
610.411	20248.78
610.606	20005.07
610.802	19904.72
610.998	19921.1
611.193	19978.45
611.389	19884.24
611.584	19949.78
611.78	19722.45
611.976	19769.55
612.171	19992.78
612.367	19779.79
612.562	19736.79
612.758	19402.97
612.953	19652.82
613.149	20064.46
613.344	19566.81
613.539	19751.12
613.735	19464.41
613.93	19751.12
614.126	19484.89
614.321	19644.63
614.517	19529.94
614.712	19159.26
614.907	19167.45
615.103	19439.83
615.298	19349.72
615.493	19429.59
615.688	19228.89
615.884	19441.88
616.079	19009.76
616.274	19337.43
616.47	19196.12
616.665	19183.84
616.86	19214.55
617.055	19134.68
617.25	19069.15
617.445	18991.33
617.641	18702.56
617.836	18919.65
618.031	18417.89
618.226	18976.99
618.421	18583.78
618.616	18450.66
618.811	18421.99
619.006	18401.51
619.201	18266.35
619.396	18278.63
619.591	18370.79
619.786	18403.56
619.981	17969.39
620.176	18245.87
620.371	18141.42
620.566	17905.9
620.761	17901.81
620.956	17959.15
621.151	17385.72
621.346	17914.09
621.541	17381.62
621.735	17647.86
621.93	17551.6
622.125	17467.64
622.32	17076.48
622.515	17178.87
622.709	17209.59
622.904	17027.32
623.099	16924.93
623.294	17185.02
623.488	16668.93
623.683	17039.61
623.878	16800
624.072	16675.07
624.267	16554.24
624.462	16695.55
624.656	16396.55
624.851	16515.33
625.046	16324.87
625.24	16232.71
625.435	16079.11
625.629	16021.77
625.824	15687.95
626.018	15708.43
626.213	15413.52
626.407	15749.39
626.602	15384.85
626.796	15409.43
626.991	15368.47
627.185	15247.64
627.38	15067.42
627.574	15347.99
627.768	14887.2
627.963	14803.23
628.157	14825.76
628.352	15063.32
628.546	14688.54
628.74	14901.53
628.935	14424.36
629.129	14766.37
629.323	14387.49
629.517	14440.74
629.712	14301.48
629.906	14469.41
630.1	14000.43
630.294	14108.97
630.489	14057.77
630.683	14125.35
630.877	13637.94
631.071	13840.68
631.265	13805.87
631.459	13615.41
631.653	13570.35
631.848	13609.26
632.042	13386.04
632.236	13398.32
632.43	13283.64
632.624	13252.92
632.818	13171
633.012	13148.47
633.206	12921.15
633.4	13201.72
633.594	12642.62
633.788	12794.17
633.982	12900.67
634.176	12851.52
634.369	12769.6
634.563	12859.71
634.757	12634.43
634.951	12570.94
635.145	12351.81
635.339	12505.41
635.533	12243.27
635.726	12198.21
635.92	12095.82
636.114	12134.73
636.308	12183.88
636.501	12317
636.695	12003.66
636.889	11809.1
637.083	11909.45
637.276	11886.92
637.47	11651.41
637.664	11747.66
637.857	11667.79
638.051	11573.58
638.244	11411.79
638.438	11501.9
638.632	11481.42
638.825	11192.66
639.019	11010.39
639.212	11223.38
639.406	11282.77
639.599	11209.04
639.793	11170.13
639.986	10848.6
640.18	10916.19
640.373	10854.75
640.567	10768.73
640.76	11014.49
640.954	10629.47
641.147	10631.52
641.34	10701.15
641.534	10522.98
641.727	10406.24
641.92	10674.53
642.114	10307.94
642.307	10283.36
642.5	10277.22
642.694	10101.09
642.887	10166.63
643.08	10187.11
643.273	10248.55
643.467	10064.23
643.66	10037.61
643.853	9931.11
644.046	9701.74
644.239	9931.11
644.432	9873.77
644.626	9656.68
644.819	9648.49
645.012	9630.06
645.205	9615.73
645.398	9754.99
645.591	9539.95
645.784	9503.09
645.977	9286
646.17	9474.42
646.363	9310.58
646.556	9402.74
646.749	9208.18
646.942	9152.88
647.135	9068.92
647.328	9027.96
647.521	9099.64
647.714	8929.66
647.907	8931.7
648.099	8954.23
648.292	8939.9
648.485	8847.74
648.678	8716.67
648.871	8796.54
649.064	8868.22
649.256	8833.4
649.449	8442.24
649.642	8630.65
649.835	8585.6
650.027	8550.78
650.22	8436.1
650.413	8526.21
650.605	8419.71
650.798	8323.46
650.991	8092.04
651.183	8335.74
651.376	8126.85
651.568	8268.16
651.761	8038.79
651.954	8028.55
652.146	8046.98
652.339	8063.36
652.531	8173.96
652.724	8075.65
652.916	7829.9
653.109	7922.06
653.301	7801.22
653.494	7696.78
653.686	7602.57
653.879	7754.12
654.071	7680.39
654.263	7614.86
654.456	7639.44
654.648	7457.17
654.84	7512.46
655.033	7379.34
655.225	7254.42
655.417	7367.06
655.61	7324.05
655.802	7160.21
655.994	7190.93
656.186	7201.17
656.379	7268.75
656.571	7313.81
656.763	7240.08
656.955	7027.09
657.148	7268.75
657.34	7096.72
657.532	6918.55
657.724	6824.34
657.916	6877.59
658.108	6865.3
658.3	6760.86
658.492	6850.97
658.684	6877.59
658.876	6762.9
659.068	6865.3
659.26	6721.95
659.452	6752.66
659.644	6713.75
659.836	6547.87
660.028	6541.72
660.22	6451.61
660.412	6603.16
660.604	6457.76
660.796	6586.78
660.988	6230.43
661.18	6302.11
661.372	6228.38
661.563	6459.81
661.755	6224.29
661.947	6295.97
662.139	6183.33
662.331	6244.77
662.522	6142.37
662.714	6246.82
662.906	6039.97
663.097	6160.8
663.289	5951.91
663.481	6068.64
663.673	5999.01
663.864	5919.14
664.056	6001.06
664.247	5913
664.439	5829.03
664.631	5833.13
664.822	6048.16
665.014	5923.24
665.205	5702.06
665.397	5816.74
665.588	5902.76
665.78	5538.22
665.971	5743.02
666.163	5638.57
666.354	5605.8
666.546	5644.71
666.737	5536.17
666.929	5472.68
667.12	5620.14
667.311	5476.78
667.503	5554.6
667.694	5423.53
667.885	5372.33
668.077	5476.78
668.268	5435.82
668.459	5419.44
668.651	5247.41
668.842	5495.21
669.033	5396.91
669.224	5157.3
669.416	5417.39
669.607	5089.71
669.798	5163.44
669.989	5321.13
670.18	5030.32
670.371	5110.19
670.563	5216.69
670.754	5095.86
670.945	5220.78
671.136	5106.1
671.327	4893.11
671.518	4940.21
671.709	5018.04
671.9	5181.87
672.091	5134.77
672.282	4923.83
672.473	4874.68
672.664	4864.44
672.855	4856.25
673.046	4843.96
673.237	4860.34
673.428	4864.44
673.619	4786.61
673.809	4839.86
674	4798.9
674.191	4772.28
674.382	4706.74
674.573	4925.88
674.764	4696.5
674.954	4665.78
675.145	4792.76
675.336	4755.9
675.527	4686.26
675.717	4704.7
675.908	4751.8
676.099	4762.04
676.289	4737.46
676.48	4516.28
676.671	4520.38
676.861	4587.96
677.052	4553.15
677.243	4557.24
677.433	4559.29
677.624	4573.63
677.814	4614.59
678.005	4628.92
678.195	4694.46
678.386	4516.28
678.576	4491.71
678.767	4432.32
678.957	4633.02
679.148	4612.54
679.338	4493.76
679.529	4442.56
679.719	4573.63
679.909	4532.67
680.1	4395.45
680.29	4448.7
680.481	4434.36
680.671	4387.26
680.861	4360.64
681.052	4518.33
681.242	4387.26
681.432	4444.6
681.622	4243.9
681.813	4280.77
682.003	4481.47
682.193	4368.83
682.383	4348.35
682.573	4342.21
682.764	4315.58
682.954	4295.1
683.144	4366.78
683.334	4428.22
683.524	4270.53
683.714	4211.14
683.904	4268.48
684.094	4213.18
684.284	4356.54
684.474	4202.94
684.664	4143.55
684.854	4284.86
685.044	4182.46
685.234	4092.35
685.424	3977.67
685.614	4051.39
685.804	3994.05
685.994	4022.72
686.184	4141.5
686.374	3975.62
686.564	4035.01
686.753	4002.24
686.943	3881.41
687.133	4030.91
687.323	4114.88
687.513	3916.23
687.702	3934.66
687.892	4061.63
688.082	3848.65
688.272	3928.52
688.461	3891.65
688.651	3987.91
688.841	3951.04
689.03	3822.02
689.22	3738.05
689.41	3643.85
689.599	3766.73
689.789	3695.05
689.979	3758.53
690.168	3723.72
690.358	3723.72
690.547	3768.77
690.737	3604.94
690.926	3598.79
691.116	3547.59
691.305	3631.56
691.495	3539.4
691.684	3631.56
691.874	3428.81
692.063	3582.41
692.252	3617.22
692.442	3604.94
692.631	3484.11
692.82	3437
693.01	3400.14
693.199	3551.69
693.388	3348.94
693.578	3418.57
693.767	3430.86
693.956	3428.81
694.146	3353.04
694.335	3275.21
694.524	3326.41
694.713	3367.37
694.902	3310.03
695.092	3371.47
695.281	3330.51
695.47	3226.06
695.659	3254.73
695.848	3369.42
696.037	3234.25
696.226	3076.56
696.415	3350.99
696.604	3299.79
696.793	3254.73
696.982	3305.93
697.171	3140.05
697.36	3275.21
697.549	3074.51
697.738	3115.47
697.927	3099.09
698.116	2998.74
698.305	3195.34
698.494	3174.86
698.683	3070.42
698.872	3181.01
699.061	3049.94
699.25	3127.76
699.438	3043.79
699.627	3197.39
699.816	3189.2
700.005	2974.16
700.193	3154.38
700.382	3127.76
700.571	3092.94
700.76	3066.32
700.948	3025.36
701.137	2953.68
701.326	3090.9
701.514	2994.64
701.703	3111.38
701.892	3160.53
702.08	3051.99
702.269	2990.55
702.457	3031.51
702.646	2998.74
702.834	3017.17
703.023	3135.95
703.212	3066.32
703.4	3064.27
703.589	2976.21
703.777	3029.46
703.965	2916.82
704.154	2974.16
704.342	2961.87
704.531	2896.34
704.719	2824.66
704.907	3035.6
705.096	2900.44
705.284	2984.4
705.472	2918.87
705.661	3025.36
705.849	3056.08
706.037	2920.92
706.226	2988.5
706.414	2931.16
706.602	2978.26
706.79	2916.82
706.979	2933.2
707.167	2828.76
707.355	2863.57
707.543	2939.35
707.731	2882
707.919	3064.27
708.107	2914.77
708.296	3023.31
708.484	2890.2
708.672	2959.83
708.86	2986.45
709.048	2927.06
709.236	2951.63
709.424	2955.73
709.612	2912.72
709.8	2965.97
709.988	2884.05
710.176	2894.29
710.364	2818.52
710.551	2935.25
710.739	2873.81
710.927	2879.96
711.115	2849.24
711.303	2910.68
711.491	2929.11
711.679	2914.77
711.866	2859.48
712.054	2996.69
712.242	2841.04
712.43	2916.82
712.617	2951.63
712.805	2808.28
712.993	2984.4
713.181	2857.43
713.368	2906.58
713.556	2922.96
713.744	2882
713.931	2941.4
714.119	2918.87
714.306	2916.82
714.494	2779.61
714.682	3039.7
714.869	2896.34
715.057	2820.56
715.244	2855.38
715.432	2888.15
715.619	2918.87
715.807	2914.77
715.994	2922.96
716.182	2777.56
716.369	2922.96
716.556	2843.09
716.744	2814.42
716.931	2922.96
717.119	3019.22
717.306	2820.56
717.493	2867.67
717.681	2945.49
717.868	2804.18
718.055	2890.2
718.242	2955.73
718.43	2935.25
718.617	2892.24
718.804	2851.28
718.991	2886.1
719.179	2965.97
719.366	2836.95
719.553	2888.15
719.74	2863.57
719.927	2925.01
720.114	2990.55
720.301	2664.92
720.488	2920.92
720.676	2839
720.863	2826.71
721.05	2836.95
721.237	2902.48
721.424	2908.63
721.611	3025.36
721.798	2726.36
721.985	2884.05
722.172	2845.14
722.358	2898.39
722.545	2916.82
722.732	2787.8
722.919	2922.96
723.106	2845.14
723.293	2898.39
723.48	2955.73
723.667	3021.27
723.853	2884.05
724.04	2869.72
724.227	2894.29
724.414	2869.72
724.6	2814.42
724.787	2832.85
724.974	2877.91
725.161	2949.59
725.347	2830.8
725.534	2943.44
725.72	2865.62
725.907	2922.96
726.094	2912.72
726.28	2841.04
726.467	2779.61
726.653	2890.2
726.84	3013.07
727.027	2947.54
727.213	2882
727.4	2810.33
727.586	2902.48
727.773	2951.63
727.959	2830.8
728.145	2912.72
728.332	2855.38
728.518	2804.18
728.705	2968.02
728.891	2896.34
729.077	2953.68
729.264	2906.58
729.45	2783.7
729.636	2847.19
729.823	2795.99
730.009	2904.53
730.195	2853.33
730.382	2787.8
730.568	2902.48
730.754	2808.28
730.94	2855.38
731.126	2939.35
731.313	3051.99
731.499	2781.65
731.685	2918.87
731.871	2947.54
732.057	2843.09
732.243	2900.44
732.429	2845.14
732.615	2822.61
732.801	2808.28
732.987	2836.95
733.173	2882
733.359	2806.23
733.545	2789.85
733.731	2769.37
733.917	2836.95
734.103	2927.06
734.289	2955.73
734.475	2859.48
734.661	2947.54
734.847	2931.16
735.033	2853.33
735.219	2847.19
735.404	2859.48
735.59	2957.78
735.776	2724.31
735.962	2795.99
736.148	2851.28
736.333	2822.61
736.519	2816.47
736.705	2853.33
736.89	2920.92
737.076	2744.79
737.262	2765.27
737.447	2781.65
737.633	2787.8
737.819	2701.78
738.004	2626.01
738.19	2990.55
738.375	2839
738.561	2873.81
738.747	2765.27
738.932	2703.83
739.118	2757.08
739.303	2740.69
739.489	2644.44
739.674	2726.36
739.859	2615.77
740.045	2795.99
740.23	2707.93
740.416	2712.02
740.601	2730.45
740.786	2757.08
740.972	2703.83
741.157	2628.06
741.342	2697.69
741.528	2732.5
741.713	2759.13
741.898	2646.49
742.084	2533.85
742.269	2734.55
742.454	2703.83
742.639	2580.95
742.824	2650.58
743.01	2628.06
743.195	2673.11
743.38	2533.85
743.565	2542.04
743.75	2550.23
743.935	2443.74
744.12	2552.28
744.305	2503.13
744.49	2511.32
744.675	2537.95
744.86	2499.03
745.045	2470.36
745.23	2533.85
745.415	2496.99
745.6	2441.69
745.785	2347.48
745.97	2453.98
746.155	2439.64
746.34	2415.07
746.525	2421.21
746.71	2337.24
746.895	2410.97
747.079	2152.93
747.264	2400.73
747.449	2370.01
747.634	2247.13
747.819	2367.96
748.003	2298.33
748.188	2265.57
748.373	2347.48
748.557	2269.66
748.742	2257.37
748.927	2111.97
749.111	2206.17
749.296	2159.07
749.481	2136.54
749.665	2093.54
749.85	2152.93
750.034	2150.88
750.219	2243.04
750.404	2109.92
750.588	2028
750.773	2044.38
750.957	2134.5
751.141	1978.85
751.326	1958.37
751.51	1978.85
751.695	2030.05
751.879	2048.48
752.064	2161.12
752.248	1984.99
752.432	1948.13
752.617	1927.65
752.801	1921.51
752.985	1948.13
753.17	1941.99
753.354	1907.17
753.538	1774.05
753.722	1833.44
753.907	1898.98
754.091	1784.29
754.275	1782.24
754.459	1855.97
754.643	1806.82
754.828	1831.4
755.012	1823.2
755.196	1624.55
755.38	1800.68
755.564	1718.76
755.748	1634.79
755.932	1683.94
756.116	1702.37
756.3	1591.78
756.484	1622.5
756.668	1683.94
756.852	1640.93
757.036	1632.74
757.22	1716.71
757.404	1645.03
757.588	1571.3
757.772	1505.77
757.956	1577.45
758.14	1610.22
758.323	1499.63
758.507	1610.22
758.691	1487.34
758.875	1497.58
759.059	1571.3
759.242	1501.67
759.426	1479.15
759.61	1462.76
759.794	1397.23
759.977	1520.1
760.161	1503.72
760.345	1452.52
760.528	1391.08
760.712	1429.99
760.895	1368.56
761.079	1419.75
761.263	1405.42
761.446	1315.31
761.63	1372.65
761.813	1456.62
761.997	1411.56
762.18	1432.04
762.364	1290.73
762.547	1335.79
762.731	1389.03
762.914	1262.06
763.098	1239.53
763.281	1311.21
763.464	1341.93
763.648	1321.45
763.831	1278.44
764.015	1253.87
764.198	1227.25
764.381	1305.07
764.564	1284.59
764.748	1272.3
764.931	1208.81
765.114	1262.06
765.297	1313.26
765.481	1165.81
765.664	1204.72
765.847	1104.37
766.03	1221.1
766.213	1153.52
766.397	1352.17
766.58	1155.57
766.763	1194.48
766.946	1190.38
767.129	1196.53
767.312	1253.87
767.495	1128.94
767.678	1092.08
767.861	1163.76
768.044	1126.89
768.227	1116.65
768.41	1141.23
768.593	1094.13
768.776	1176.05
768.959	1051.12
769.142	1081.84
769.324	1042.93
769.507	1063.41
769.69	1204.72
769.873	1065.46
770.056	1167.85
770.239	1057.26
770.421	1083.89
770.604	1135.09
770.787	1022.45
770.97	1063.41
771.152	1012.21
771.335	1098.22
771.518	1083.89
771.7	1010.16
771.883	1049.07
772.066	1026.54
772.248	1016.3
772.431	1049.07
772.613	989.68
772.796	1098.22
772.978	1083.89
773.161	1014.26
773.343	946.67
773.526	979.44
773.708	909.81
773.891	920.05
774.073	850.42
774.256	862.71
774.438	932.34
774.621	918
774.803	991.73
774.985	877.04
775.168	911.86
775.35	858.61
775.532	897.52
775.715	834.04
775.897	889.33
776.079	895.47
776.261	850.42
776.444	926.19
776.626	868.85
776.808	801.27
776.99	795.12
777.173	872.95
777.355	819.7
777.537	844.28
777.719	834.04
777.901	731.64
778.083	762.36
778.265	719.35
778.447	668.15
778.629	805.36
778.811	713.21
778.993	788.98
779.175	705.01
779.357	700.92
779.539	762.36
779.721	784.88
779.903	780.79
780.085	745.97
780.267	737.78
780.449	690.68
780.631	702.97
780.812	645.62
780.994	662.01
781.176	592.37
781.358	649.72
781.54	745.97
781.721	635.38
781.903	719.35
782.085	715.25
782.267	700.92
782.448	598.52
782.63	664.05
782.812	524.79
782.993	645.62
783.175	623.09
783.357	541.18
783.538	641.53
783.72	569.85
783.901	578.04
784.083	674.29
784.264	512.5
784.446	498.17
784.627	477.69
784.809	602.61
784.99	557.56
785.172	612.85
785.353	559.61
785.535	606.71
785.716	553.46
785.897	557.56
786.079	590.33
786.26	516.6
786.441	588.28
786.623	561.66
786.804	547.32
786.985	457.21
787.167	520.7
787.348	481.78
787.529	565.75
787.71	553.46
787.891	514.55
788.073	457.21
788.254	530.94
788.435	569.85
788.616	461.3
788.797	510.46
788.978	502.26
789.159	449.02
789.34	459.26
789.522	457.21
789.703	406.01
789.884	508.41
790.065	487.93
790.246	336.38
790.427	467.45
790.607	434.68
790.788	449.02
790.969	477.69
791.15	446.97
791.331	391.67
791.512	444.92
791.693	426.49
791.874	463.35
792.054	506.36
792.235	512.5
792.416	371.19
792.597	412.15
792.778	332.28
792.958	469.5
793.139	432.63
793.32	350.71
793.5	371.19
793.681	432.63
793.862	416.25
794.042	363
794.223	309.76
794.404	367.1
794.584	305.66
794.765	420.35
794.945	352.76
795.126	395.77
795.306	440.83
795.487	352.76
795.667	367.1
795.848	348.67
796.028	328.19
796.209	291.32
796.389	367.1
796.57	283.13
796.75	301.56
796.93	299.52
797.111	197.12
797.291	334.33
797.471	303.61
797.652	301.56
797.832	272.89
798.012	289.28
798.192	256.51
798.373	320
798.553	289.28
798.733	281.08
798.913	315.9
799.093	387.58
799.274	309.76
799.454	313.85
799.634	285.18
799.814	252.41
799.994	283.13
800.174	266.75
800.354	350.71
800.534	307.71
800.714	262.65
800.894	268.8
801.074	270.84
801.254	293.37
801.434	276.99
801.614	313.85
801.794	287.23
801.974	696.82
802.154	227.84
802.334	264.7
802.514	315.9
802.693	197.12
802.873	264.7
803.053	301.56
803.233	303.61
803.413	195.07
803.592	197.12
803.772	264.7
803.952	221.69
804.131	260.6
804.311	297.47
804.491	217.6
804.67	270.84
804.85	227.84
805.03	264.7
805.209	301.56
805.389	199.16
805.568	221.69
805.748	188.93
805.928	246.27
806.107	272.89
806.287	256.51
806.466	311.8
806.646	213.5
806.825	158.21
807.004	180.73
807.184	233.98
807.363	264.7
807.543	174.59
807.722	143.87
807.901	248.32
808.081	176.64
808.26	123.39
808.439	168.45
808.619	199.16
808.798	133.63
808.977	152.06
809.156	221.69
809.336	225.79
809.515	172.54
809.694	199.16
809.873	299.52
810.052	178.69
810.231	240.12
810.411	195.07
810.59	186.88
810.769	184.83
810.948	227.84
811.127	223.74
811.306	145.92
811.485	213.5
811.664	254.46
811.843	137.73
812.022	268.8
812.201	172.54
812.38	217.6
812.559	188.93
812.737	186.88
812.916	166.4
813.095	111.1
813.274	213.5
813.453	225.79
813.632	123.39
813.811	201.21
813.989	147.97
814.168	231.93
814.347	94.72
814.526	190.97
814.704	217.6
814.883	186.88
815.062	117.25
815.24	201.21
815.419	199.16
815.598	102.91
815.776	102.91
815.955	186.88
816.133	172.54
816.312	199.16
816.49	121.34
816.669	119.29
816.847	176.64
817.026	225.79
817.204	166.4
817.383	139.77
817.561	127.49
817.74	223.74
817.918	193.02
818.097	174.59
818.275	131.58
818.453	98.81
818.632	180.73
818.81	137.73
818.988	100.86
819.167	147.97
819.345	129.53
819.523	129.53
819.701	115.2
819.879	199.16
820.058	170.49
820.236	102.91
820.414	96.77
820.592	168.45
820.77	145.92
820.948	182.78
821.127	147.97
821.305	147.97
821.483	154.11
821.661	96.77
821.839	190.97
822.017	135.68
822.195	66.05
822.373	133.63
822.551	174.59
822.729	150.01
822.907	102.91
823.085	92.67
823.262	225.79
823.44	135.68
823.618	176.64
823.796	127.49
823.974	182.78
824.152	59.9
824.329	51.71
824.507	145.92
824.685	102.91
824.863	139.77
825.04	78.33
825.218	156.16
825.396	170.49
825.574	127.49
825.751	160.25
825.929	88.57
826.107	80.38
826.284	88.57
826.462	154.11
826.639	111.1
826.817	111.1
826.994	57.86
827.172	113.15
827.349	168.45
827.527	172.54
827.704	98.81
827.882	109.05
828.059	121.34
828.237	131.58
828.414	129.53
828.591	90.62
828.769	86.53
828.946	100.86
829.124	127.49
829.301	102.91
829.478	127.49
829.655	156.16
829.833	115.2
830.01	96.77
830.187	53.76
830.364	27.14
830.542	92.67
830.719	147.97
830.896	107.01
831.073	131.58
831.25	156.16
831.427	133.63
831.604	51.71
831.782	82.43
831.959	117.25
832.136	66.05
832.313	117.25
832.49	78.33
832.667	160.25
832.844	10.75
833.021	158.21
833.198	125.44
833.374	10.75
833.551	51.71
833.728	74.24
833.905	113.15
834.082	84.48
834.259	27.14
834.436	41.47
834.612	51.71
834.789	88.57
834.966	12.8
835.143	113.15
835.319	66.05
835.496	78.33
835.673	33.28
835.85	127.49
836.026	51.71
836.203	166.4
836.38	78.33
836.556	94.72
836.733	37.38
836.909	172.54
837.086	31.23
837.262	72.19
837.439	-32.26
837.616	74.24
837.792	41.47
837.968	90.62
838.145	29.18
838.321	27.14
838.498	51.71
838.674	78.33
838.851	68.09
839.027	59.9
839.203	57.86
839.38	135.68
839.556	37.38
839.732	74.24
839.909	100.86
840.085	41.47
840.261	37.38
840.437	37.38
840.614	2.56
840.79	31.23
840.966	45.57
841.142	147.97
841.318	37.38
841.494	113.15
841.671	57.86
841.847	70.14
842.023	18.94
842.199	35.33
842.375	39.42
842.551	61.95
842.727	55.81
842.903	29.18
843.079	51.71
843.255	86.53
843.431	51.71
843.607	64
843.783	-1.54
843.959	-22.02
844.134	-24.06
844.31	86.53
844.486	10.75
844.662	-22.02
844.838	53.76
845.013	66.05
845.189	43.52
845.365	-52.74
845.541	-9.73
845.716	76.29
845.892	14.85
846.068	68.09
846.244	25.09
846.419	76.29
846.595	27.14
846.77	8.7
846.946	23.04
847.122	10.75
847.297	53.76
847.473	100.86
847.648	10.75
847.824	41.47
847.999	-3.58
848.175	70.14
848.35	45.57
848.526	6.66
848.701	94.72
848.876	49.66
849.052	20.99
849.227	55.81
849.403	25.09
849.578	23.04
849.753	68.09
849.929	37.38
850.104	96.77
850.279	16.9
850.454	6.66
850.63	82.43
850.805	37.38
850.98	-7.68
851.155	39.42
851.33	68.09
851.505	90.62
851.681	25.09
851.856	-1.54
852.031	0.51
852.206	59.9
852.381	12.8
852.556	-26.11
852.731	43.52
852.906	96.77
853.081	100.86
853.256	45.57
853.431	18.94
853.606	4.61
853.781	92.67
853.956	-3.58
854.131	-15.87
854.305	43.52
854.48	8.7
854.655	-3.58
854.83	41.47
855.005	-40.45
855.18	20.99
855.354	18.94
855.529	49.66
855.704	-46.59
855.879	49.66
856.053	-40.45
856.228	-48.64
856.403	8.7
856.577	6.66
856.752	-48.64
856.926	6.66
857.101	-15.87
857.276	49.66
857.45	8.7
857.625	16.9
857.799	55.81
857.974	29.18
858.148	-52.74
858.323	45.57
858.497	53.76
858.672	27.14
858.846	4.61
859.02	64
859.195	119.29
859.369	35.33
859.543	51.71
859.718	88.57
859.892	27.14
860.066	-15.87
860.241	39.42
860.415	-28.16
860.589	-19.97
860.763	68.09
860.938	100.86
861.112	-15.87
861.286	-32.26
861.46	72.19
861.634	-17.92
861.808	-11.78
861.982	-17.92
862.157	12.8
862.331	72.19
862.505	74.24
862.679	-34.3
862.853	12.8
863.027	12.8
863.201	86.53
863.375	6.66
863.549	23.04
863.722	27.14
863.896	57.86
864.07	-48.64
864.244	35.33
864.418	0.51
864.592	-19.97
864.766	-50.69
864.939	29.18
865.113	20.99
865.287	43.52
865.461	37.38
865.634	47.62
865.808	35.33
865.982	2.56
866.156	72.19
866.329	12.8
866.503	20.99
866.676	70.14
866.85	-5.63
867.024	-7.68
867.197	12.8
867.371	12.8
867.544	33.28
867.718	31.23
867.891	8.7
868.065	8.7
868.238	14.85
868.412	-34.3
868.585	68.09
868.759	-50.69
868.932	-40.45
869.105	20.99
869.279	-30.21
869.452	49.66
869.625	35.33
869.799	-24.06
869.972	33.28
870.145	-32.26
870.319	43.52
870.492	16.9
870.665	43.52
870.838	-44.54
871.011	-36.35
871.185	0.51
871.358	41.47
871.531	-1.54
871.704	-32.26
871.877	57.86
872.05	10.75
872.223	-26.11
872.396	-65.02
872.569	-52.74
872.742	-30.21
872.915	-56.83
873.088	4.61
873.261	-67.07
873.434	31.23
873.607	2.56
873.78	-15.87
873.953	14.85
874.126	-13.82
874.299	-38.4
874.471	29.18
874.644	18.94
874.817	-19.97
874.99	43.52
875.163	10.75
875.335	-9.73
875.508	84.48
875.681	-7.68
875.853	-34.3
876.026	4.61
876.199	-85.5
876.371	66.05
876.544	45.57
876.717	14.85
876.889	18.94
877.062	-15.87
877.234	61.95
877.407	29.18
877.579	20.99
877.752	20.99
877.924	43.52
878.097	20.99
878.269	47.62
878.442	-22.02
878.614	35.33
878.786	20.99
878.959	-34.3
879.131	-56.83
879.303	-73.21
879.476	49.66
879.648	-44.54
879.82	-36.35
879.993	51.71
880.165	-26.11
880.337	18.94
880.509	-13.82
880.681	-5.63
880.854	61.95
881.026	-28.16
881.198	86.53
881.37	-7.68
881.542	14.85
881.714	-56.83
881.886	-13.82
882.058	33.28
882.23	57.86
882.402	-44.54
882.574	2.56
882.746	-9.73
882.918	31.23
883.09	-30.21
883.262	12.8
883.434	25.09
883.606	43.52
883.778	-11.78
883.95	-50.69
884.122	0.51
884.293	27.14
884.465	12.8
884.637	49.66
884.809	33.28
884.98	20.99
885.152	-19.97
885.324	10.75
885.496	6.66
885.667	-44.54
885.839	-11.78
886.011	76.29
886.182	-9.73
886.354	-50.69
886.525	-5.63
886.697	37.38
886.869	10.75
887.04	0.51
887.212	29.18
887.383	57.86
887.555	-3.58
887.726	-22.02
887.897	-26.11
888.069	6.66
888.24	-28.16
888.412	-24.06
888.583	-30.21
888.754	-28.16
888.926	12.8
889.097	23.04
889.268	-42.5
889.44	-26.11
889.611	-17.92
889.782	0.51
889.953	53.76
890.125	102.91
890.296	61.95
890.467	-28.16
890.638	-28.16
890.809	-22.02
890.98	-11.78
891.151	35.33
891.323	23.04
891.494	14.85
891.665	-3.58
891.836	43.52
892.007	43.52
892.178	-65.02
892.349	20.99
892.52	31.23
892.691	-36.35
892.862	0.51
893.032	-40.45
893.203	-54.78
893.374	-11.78
893.545	-17.92
893.716	43.52
893.887	47.62
894.057	-36.35
894.228	4.61
894.399	-77.31
894.57	25.09
894.74	27.14
894.911	-24.06
895.082	16.9
895.253	18.94
895.423	86.53
895.594	-1.54
895.764	-36.35
895.935	-60.93
896.106	10.75
896.276	-19.97
896.447	-5.63
896.617	6.66
896.788	-38.4
896.958	31.23
897.129	25.09
897.299	-15.87
897.47	37.38
897.64	2.56
897.81	23.04
897.981	-11.78
898.151	-11.78
898.322	49.66
898.492	47.62
898.662	12.8
898.832	-9.73
899.003	41.47
899.173	18.94
899.343	-11.78
899.513	-5.63
