Data from USB4F104151__68__12-27-45-011.txt Node

Date: Fri Mar 14 12:27:45 EDT 2025
User: louis
Spectrometer: USB4F10415
Trigger mode: 4
Integration Time (sec): 2.000000E-2
Scans to average: 1
Electric dark correction enabled: true
Nonlinearity correction enabled: false
Boxcar width: 0
XAxis mode: Wavelengths
Number of Pixels in Spectrum: 3648
>>>>>Begin Spectral Data<<<<<
178.204	-64.51
178.424	-64.51
178.644	-64.51
178.864	-109.57
179.084	-119.81
179.304	-35.84
179.524	-39.94
179.744	13.31
179.964	70.65
180.184	-21.5
180.404	35.84
180.624	-37.89
180.844	-23.55
181.064	-58.37
181.283	72.7
181.503	-29.7
181.723	54.27
181.943	-39.94
182.163	-9.22
182.383	-44.03
182.602	84.99
182.822	29.7
183.042	29.7
183.262	-29.7
183.482	15.36
183.701	25.6
183.921	-15.36
184.141	41.98
184.361	-17.41
184.58	-15.36
184.8	44.03
185.02	-41.98
185.239	56.32
185.459	29.7
185.679	23.55
185.898	13.31
186.118	17.41
186.338	9.22
186.557	99.33
186.777	23.55
186.997	48.13
187.216	56.32
187.436	29.7
187.655	31.74
187.875	-23.55
188.095	48.13
188.314	107.52
188.534	29.7
188.753	-1.02
188.973	72.7
189.192	105.47
189.412	-3.07
189.631	21.5
189.851	97.28
190.07	35.84
190.29	-46.08
190.509	48.13
190.729	11.26
190.948	119.81
191.168	84.99
191.387	62.46
191.607	78.85
191.826	66.56
192.045	70.65
192.265	29.7
192.484	15.36
192.704	15.36
192.923	9.22
193.142	70.65
193.362	105.47
193.581	-1.02
193.8	107.52
194.02	25.6
194.239	23.55
194.458	11.26
194.678	27.65
194.897	56.32
195.116	-27.65
195.335	-29.7
195.555	52.22
195.774	-15.36
195.993	41.98
196.212	60.42
196.432	29.7
196.651	5.12
196.87	-13.31
197.089	37.89
197.308	48.13
197.528	68.61
197.747	1.02
197.966	3.07
198.185	50.18
198.404	25.6
198.623	25.6
198.842	1.02
199.062	50.18
199.281	17.41
199.5	52.22
199.719	-17.41
199.938	39.94
200.157	54.27
200.376	84.99
200.595	84.99
200.814	44.03
201.033	39.94
201.252	11.26
201.471	39.94
201.69	48.13
201.909	29.7
202.128	91.13
202.347	15.36
202.566	15.36
202.785	68.61
203.004	-31.74
203.223	60.42
203.442	35.84
203.661	-19.46
203.879	37.89
204.098	54.27
204.317	-19.46
204.536	39.94
204.755	-46.08
204.974	15.36
205.193	80.89
205.411	-33.79
205.63	-17.41
205.849	23.55
206.068	-5.12
206.287	68.61
206.505	-31.74
206.724	70.65
206.943	-19.46
207.162	56.32
207.381	33.79
207.599	-3.07
207.818	-17.41
208.037	74.75
208.255	89.09
208.474	64.51
208.693	66.56
208.911	74.75
209.13	15.36
209.349	-11.26
209.567	-33.79
209.786	31.74
210.005	13.31
210.223	-1.02
210.442	105.47
210.661	58.37
210.879	9.22
211.098	23.55
211.316	23.55
211.535	76.8
211.753	33.79
211.972	21.5
212.191	7.17
212.409	15.36
212.628	-25.6
212.846	119.81
213.065	103.42
213.283	78.85
213.502	-9.22
213.72	31.74
213.938	-3.07
214.157	46.08
214.375	25.6
214.594	119.81
214.812	54.27
215.031	3.07
215.249	21.5
215.467	58.37
215.686	3.07
215.904	21.5
216.122	-29.7
216.341	17.41
216.559	-25.6
216.778	46.08
216.996	66.56
217.214	17.41
217.432	39.94
217.651	17.41
217.869	-56.32
218.087	-3.07
218.306	-48.13
218.524	13.31
218.742	33.79
218.96	66.56
219.179	74.75
219.397	58.37
219.615	87.04
219.833	35.84
220.051	7.17
220.27	29.7
220.488	54.27
220.706	80.89
220.924	7.17
221.142	19.46
221.36	27.65
221.578	46.08
221.796	52.22
222.015	-64.51
222.233	46.08
222.451	-11.26
222.669	17.41
222.887	-21.5
223.105	39.94
223.323	74.75
223.541	13.31
223.759	9.22
223.977	-29.7
224.195	74.75
224.413	60.42
224.631	64.51
224.849	13.31
225.067	64.51
225.285	15.36
225.503	-5.12
225.721	5.12
225.939	39.94
226.157	35.84
226.375	70.65
226.592	-23.55
226.81	54.27
227.028	44.03
227.246	93.18
227.464	23.55
227.682	70.65
227.9	-60.42
228.117	35.84
228.335	-5.12
228.553	48.13
228.771	-39.94
228.989	80.89
229.206	27.65
229.424	9.22
229.642	-70.65
229.86	-39.94
230.077	11.26
230.295	-33.79
230.513	25.6
230.731	80.89
230.948	60.42
231.166	93.18
231.384	29.7
231.601	48.13
231.819	-13.31
232.037	27.65
232.254	-58.37
232.472	17.41
232.689	-19.46
232.907	54.27
233.125	31.74
233.342	23.55
233.56	37.89
233.777	60.42
233.995	23.55
234.213	25.6
234.43	23.55
234.648	46.08
234.865	37.89
235.083	15.36
235.3	50.18
235.518	46.08
235.735	89.09
235.953	48.13
236.17	21.5
236.388	-5.12
236.605	35.84
236.822	35.84
237.04	-5.12
237.257	9.22
237.475	-9.22
237.692	60.42
237.909	-15.36
238.127	31.74
238.344	70.65
238.562	25.6
238.779	58.37
238.996	62.46
239.214	21.5
239.431	91.13
239.648	13.31
239.865	70.65
240.083	74.75
240.3	58.37
240.517	58.37
240.735	-48.13
240.952	52.22
241.169	-25.6
241.386	44.03
241.603	17.41
241.821	35.84
242.038	62.46
242.255	15.36
242.472	27.65
242.689	5.12
242.907	27.65
243.124	68.61
243.341	-1.02
243.558	-19.46
243.775	-17.41
243.992	93.18
244.209	31.74
244.426	7.17
244.643	23.55
244.86	48.13
245.078	-11.26
245.295	70.65
245.512	37.89
245.729	15.36
245.946	48.13
246.163	54.27
246.38	105.47
246.597	64.51
246.814	31.74
247.031	-15.36
247.248	11.26
247.464	-17.41
247.681	54.27
247.898	-9.22
248.115	19.46
248.332	54.27
248.549	84.99
248.766	64.51
248.983	-1.02
249.2	58.37
249.417	97.28
249.633	-7.17
249.85	-31.74
250.067	-35.84
250.284	3.07
250.501	-58.37
250.717	23.55
250.934	-37.89
251.151	68.61
251.368	21.5
251.585	82.94
251.801	3.07
252.018	9.22
252.235	41.98
252.451	113.66
252.668	58.37
252.885	80.89
253.102	-9.22
253.318	11.26
253.535	9.22
253.752	11.26
253.968	-21.5
254.185	-17.41
254.401	17.41
254.618	29.7
254.835	31.74
255.051	25.6
255.268	-11.26
255.484	70.65
255.701	48.13
255.917	99.33
256.134	-31.74
256.351	11.26
256.567	17.41
256.784	44.03
257	39.94
257.217	101.37
257.433	62.46
257.65	60.42
257.866	68.61
258.082	21.5
258.299	9.22
258.515	121.85
258.732	60.42
258.948	-23.55
259.165	-1.02
259.381	27.65
259.597	-5.12
259.814	29.7
260.03	27.65
260.246	-3.07
260.463	91.13
260.679	111.61
260.895	31.74
261.112	35.84
261.328	-72.7
261.544	29.7
261.761	84.99
261.977	17.41
262.193	-50.18
262.409	7.17
262.626	48.13
262.842	35.84
263.058	-35.84
263.274	3.07
263.49	31.74
263.707	111.61
263.923	37.89
264.139	74.75
264.355	-9.22
264.571	72.7
264.787	48.13
265.004	25.6
265.22	111.61
265.436	9.22
265.652	33.79
265.868	-1.02
266.084	-66.56
266.3	37.89
266.516	3.07
266.732	-33.79
266.948	-5.12
267.164	11.26
267.38	-5.12
267.596	21.5
267.812	-15.36
268.028	56.32
268.244	-13.31
268.46	11.26
268.676	31.74
268.892	7.17
269.108	-1.02
269.324	-11.26
269.54	-15.36
269.756	72.7
269.972	15.36
270.188	35.84
270.403	78.85
270.619	123.9
270.835	-23.55
271.051	21.5
271.267	62.46
271.483	23.55
271.698	-29.7
271.914	91.13
272.13	21.5
272.346	-52.22
272.562	-31.74
272.777	17.41
272.993	19.46
273.209	-5.12
273.425	21.5
273.64	89.09
273.856	1.02
274.072	35.84
274.287	72.7
274.503	19.46
274.719	23.55
274.934	33.79
275.15	-7.17
275.366	-15.36
275.581	68.61
275.797	140.29
276.012	21.5
276.228	80.89
276.444	-33.79
276.659	-7.17
276.875	50.18
277.09	-7.17
277.306	-9.22
277.521	-1.02
277.737	27.65
277.952	56.32
278.168	-9.22
278.383	21.5
278.599	-13.31
278.814	76.8
279.03	48.13
279.245	19.46
279.461	95.23
279.676	80.89
279.892	19.46
280.107	-37.89
280.322	-3.07
280.538	46.08
280.753	-1.02
280.969	-37.89
281.184	80.89
281.399	7.17
281.615	74.75
281.83	27.65
282.045	35.84
282.26	64.51
282.476	-29.7
282.691	-13.31
282.906	-11.26
283.122	-15.36
283.337	60.42
283.552	44.03
283.767	11.26
283.983	97.28
284.198	68.61
284.413	-11.26
284.628	-29.7
284.843	27.65
285.058	29.7
285.274	25.6
285.489	29.7
285.704	-13.31
285.919	33.79
286.134	23.55
286.349	97.28
286.564	21.5
286.779	103.42
286.995	-66.56
287.21	70.65
287.425	9.22
287.64	-1.02
287.855	80.89
288.07	60.42
288.285	72.7
288.5	29.7
288.715	31.74
288.93	11.26
289.145	74.75
289.36	97.28
289.575	3.07
289.79	52.22
290.004	19.46
290.219	68.61
290.434	56.32
290.649	-15.36
290.864	82.94
291.079	-5.12
291.294	9.22
291.509	11.26
291.724	48.13
291.938	39.94
292.153	13.31
292.368	11.26
292.583	-7.17
292.798	70.65
293.012	64.51
293.227	56.32
293.442	-62.46
293.657	19.46
293.871	58.37
294.086	89.09
294.301	39.94
294.516	78.85
294.73	46.08
294.945	9.22
295.16	-19.46
295.374	11.26
295.589	-1.02
295.804	56.32
296.018	-74.75
296.233	46.08
296.447	3.07
296.662	33.79
296.877	23.55
297.091	35.84
297.306	37.89
297.52	97.28
297.735	87.04
297.949	52.22
298.164	37.89
298.378	58.37
298.593	-7.17
298.807	70.65
299.022	54.27
299.236	111.61
299.451	31.74
299.665	-27.65
299.88	91.13
300.094	68.61
300.309	29.7
300.523	-27.65
300.737	7.17
300.952	78.85
301.166	-21.5
301.381	87.04
301.595	-9.22
301.809	-3.07
302.024	13.31
302.238	29.7
302.452	60.42
302.667	17.41
302.881	87.04
303.095	54.27
303.309	23.55
303.524	93.18
303.738	-7.17
303.952	101.37
304.166	7.17
304.381	15.36
304.595	62.46
304.809	25.6
305.023	-33.79
305.237	13.31
305.452	54.27
305.666	35.84
305.88	5.12
306.094	78.85
306.308	97.28
306.522	48.13
306.736	62.46
306.95	123.9
307.164	-3.07
307.379	39.94
307.593	78.85
307.807	103.42
308.021	11.26
308.235	54.27
308.449	25.6
308.663	52.22
308.877	41.98
309.091	60.42
309.305	62.46
309.519	33.79
309.733	27.65
309.947	82.94
310.161	31.74
310.374	-25.6
310.588	11.26
310.802	58.37
311.016	29.7
311.23	7.17
311.444	1.02
311.658	82.94
311.872	89.09
312.085	64.51
312.299	84.99
312.513	46.08
312.727	138.24
312.941	56.32
313.154	62.46
313.368	56.32
313.582	31.74
313.796	72.7
314.009	39.94
314.223	-3.07
314.437	56.32
314.651	91.13
314.864	44.03
315.078	50.18
315.292	25.6
315.505	58.37
315.719	91.13
315.933	99.33
316.146	39.94
316.36	31.74
316.573	23.55
316.787	46.08
317.001	21.5
317.214	64.51
317.428	35.84
317.641	54.27
317.855	-33.79
318.068	41.98
318.282	19.46
318.495	93.18
318.709	136.19
318.922	19.46
319.136	103.42
319.349	93.18
319.563	60.42
319.776	99.33
319.99	3.07
320.203	78.85
320.417	7.17
320.63	-17.41
320.843	60.42
321.057	37.89
321.27	9.22
321.483	31.74
321.697	31.74
321.91	23.55
322.124	70.65
322.337	-1.02
322.55	80.89
322.763	44.03
322.977	15.36
323.19	-19.46
323.403	-19.46
323.617	1.02
323.83	105.47
324.043	-1.02
324.256	5.12
324.469	17.41
324.683	27.65
324.896	62.46
325.109	64.51
325.322	-23.55
325.535	25.6
325.748	66.56
325.962	21.5
326.175	17.41
326.388	119.81
326.601	84.99
326.814	23.55
327.027	58.37
327.24	99.33
327.453	31.74
327.666	44.03
327.879	-37.89
328.092	29.7
328.305	58.37
328.518	31.74
328.731	101.37
328.944	123.9
329.157	11.26
329.37	37.89
329.583	60.42
329.796	95.23
330.009	56.32
330.222	84.99
330.435	80.89
330.648	115.71
330.861	72.7
331.073	33.79
331.286	41.98
331.499	66.56
331.712	60.42
331.925	-5.12
332.138	21.5
332.35	-25.6
332.563	-39.94
332.776	54.27
332.989	23.55
333.202	9.22
333.414	-29.7
333.627	76.8
333.84	80.89
334.053	70.65
334.265	-9.22
334.478	50.18
334.691	91.13
334.903	52.22
335.116	68.61
335.329	50.18
335.541	21.5
335.754	109.57
335.966	5.12
336.179	23.55
336.392	21.5
336.604	58.37
336.817	-1.02
337.029	27.65
337.242	25.6
337.454	35.84
337.667	-23.55
337.88	72.7
338.092	48.13
338.305	-25.6
338.517	48.13
338.729	70.65
338.942	52.22
339.154	46.08
339.367	21.5
339.579	107.52
339.792	82.94
340.004	70.65
340.217	3.07
340.429	70.65
340.641	72.7
340.854	52.22
341.066	80.89
341.278	48.13
341.491	35.84
341.703	95.23
341.915	11.26
342.128	74.75
342.34	-13.31
342.552	84.99
342.764	78.85
342.977	21.5
343.189	35.84
343.401	60.42
343.613	64.51
343.826	78.85
344.038	29.7
344.25	68.61
344.462	1.02
344.674	-33.79
344.886	35.84
345.099	89.09
345.311	23.55
345.523	23.55
345.735	17.41
345.947	97.28
346.159	103.42
346.371	52.22
346.583	58.37
346.795	64.51
347.007	44.03
347.219	52.22
347.431	62.46
347.643	41.98
347.855	23.55
348.067	68.61
348.279	87.04
348.491	33.79
348.703	50.18
348.915	132.09
349.127	91.13
349.339	-15.36
349.551	1.02
349.763	50.18
349.975	50.18
350.187	1.02
350.399	46.08
350.61	19.46
350.822	9.22
351.034	72.7
351.246	113.66
351.458	91.13
351.669	66.56
351.881	37.89
352.093	82.94
352.305	37.89
352.517	9.22
352.728	142.33
352.94	60.42
353.152	44.03
353.363	46.08
353.575	21.5
353.787	154.62
353.999	78.85
354.21	87.04
354.422	103.42
354.633	9.22
354.845	60.42
355.057	19.46
355.268	19.46
355.48	54.27
355.692	64.51
355.903	78.85
356.115	-13.31
356.326	35.84
356.538	58.37
356.749	52.22
356.961	19.46
357.172	-5.12
357.384	35.84
357.595	134.14
357.807	44.03
358.018	7.17
358.23	56.32
358.441	76.8
358.653	64.51
358.864	-33.79
359.075	29.7
359.287	50.18
359.498	74.75
359.709	113.66
359.921	31.74
360.132	70.65
360.344	11.26
360.555	-9.22
360.766	93.18
360.977	115.71
361.189	95.23
361.4	89.09
361.611	97.28
361.823	68.61
362.034	130.05
362.245	-27.65
362.456	50.18
362.667	103.42
362.879	33.79
363.09	39.94
363.301	23.55
363.512	13.31
363.723	17.41
363.935	50.18
364.146	44.03
364.357	11.26
364.568	31.74
364.779	35.84
364.99	31.74
365.201	7.17
365.412	50.18
365.623	1.02
365.834	89.09
366.045	95.23
366.256	72.7
366.467	91.13
366.678	7.17
366.889	1.02
367.1	37.89
367.311	103.42
367.522	35.84
367.733	35.84
367.944	97.28
368.155	56.32
368.366	33.79
368.577	130.05
368.788	3.07
368.999	46.08
369.209	15.36
369.42	70.65
369.631	103.42
369.842	-64.51
370.053	1.02
370.264	60.42
370.474	44.03
370.685	-9.22
370.896	19.46
371.107	117.76
371.317	17.41
371.528	46.08
371.739	54.27
371.95	15.36
372.16	1.02
372.371	25.6
372.582	-15.36
372.792	5.12
373.003	46.08
373.214	-3.07
373.424	56.32
373.635	68.61
373.846	68.61
374.056	58.37
374.267	148.48
374.477	52.22
374.688	9.22
374.898	27.65
375.109	68.61
375.319	27.65
375.53	119.81
375.74	23.55
375.951	76.8
376.161	35.84
376.372	23.55
376.582	54.27
376.793	23.55
377.003	87.04
377.214	21.5
377.424	-21.5
377.635	87.04
377.845	54.27
378.055	68.61
378.266	50.18
378.476	31.74
378.686	48.13
378.897	136.19
379.107	46.08
379.317	80.89
379.528	60.42
379.738	70.65
379.948	11.26
380.158	93.18
380.369	107.52
380.579	27.65
380.789	109.57
380.999	105.47
381.21	158.72
381.42	134.14
381.63	78.85
381.84	144.38
382.05	105.47
382.261	52.22
382.471	54.27
382.681	60.42
382.891	91.13
383.101	-9.22
383.311	15.36
383.521	115.71
383.731	33.79
383.941	105.47
384.151	52.22
384.361	125.95
384.571	33.79
384.781	91.13
384.991	168.96
385.201	134.14
385.411	54.27
385.621	78.85
385.831	13.31
386.041	9.22
386.251	48.13
386.461	84.99
386.671	62.46
386.881	64.51
387.091	72.7
387.301	105.47
387.511	121.85
387.72	58.37
387.93	52.22
388.14	-7.17
388.35	105.47
388.56	89.09
388.769	101.37
388.979	107.52
389.189	39.94
389.399	-5.12
389.609	89.09
389.818	78.85
390.028	80.89
390.238	87.04
390.447	52.22
390.657	166.91
390.867	60.42
391.076	50.18
391.286	154.62
391.496	76.8
391.705	89.09
391.915	115.71
392.125	93.18
392.334	103.42
392.544	54.27
392.753	33.79
392.963	41.98
393.172	74.75
393.382	60.42
393.591	99.33
393.801	60.42
394.01	101.37
394.22	130.05
394.429	50.18
394.639	48.13
394.848	76.8
395.058	58.37
395.267	58.37
395.477	148.48
395.686	76.8
395.895	142.33
396.105	156.67
396.314	97.28
396.524	70.65
396.733	99.33
396.942	80.89
397.152	150.53
397.361	95.23
397.57	87.04
397.78	107.52
397.989	44.03
398.198	140.29
398.407	46.08
398.617	105.47
398.826	97.28
399.035	99.33
399.244	117.76
399.453	117.76
399.663	70.65
399.872	115.71
400.081	113.66
400.29	128
400.499	115.71
400.708	138.24
400.917	91.13
401.127	60.42
401.336	134.14
401.545	91.13
401.754	160.77
401.963	142.33
402.172	99.33
402.381	74.75
402.59	119.81
402.799	132.09
403.008	187.39
403.217	128
403.426	160.77
403.635	46.08
403.844	154.62
404.053	183.29
404.262	191.49
404.471	177.15
404.68	189.44
404.888	134.14
405.097	158.72
405.306	197.63
405.515	195.58
405.724	181.25
405.933	191.49
406.142	140.29
406.35	220.16
406.559	193.53
406.768	162.81
406.977	314.36
407.185	234.49
407.394	205.82
407.603	220.16
407.812	228.35
408.02	259.07
408.229	152.57
408.438	330.75
408.646	193.53
408.855	214.01
409.064	281.6
409.272	293.88
409.481	291.84
409.69	314.36
409.898	277.5
410.107	316.41
410.315	431.1
410.524	302.08
410.733	394.23
410.941	379.9
411.15	318.46
411.358	445.43
411.567	480.25
411.775	402.43
411.984	357.37
412.192	517.11
412.401	453.63
412.609	457.72
412.818	500.73
413.026	570.36
413.234	527.35
413.443	592.89
413.651	562.17
413.86	558.07
414.068	629.75
414.276	664.57
414.485	605.17
414.693	703.48
414.901	744.44
415.11	783.35
415.318	773.11
415.526	787.44
415.734	801.78
415.943	850.93
416.151	844.79
416.359	902.13
416.567	852.98
416.776	986.1
416.984	1031.15
417.192	1035.25
417.4	1014.77
417.608	1076.21
417.817	1135.6
418.025	1121.26
418.233	1270.76
418.441	1289.2
418.649	1319.92
418.857	1274.86
419.065	1383.4
419.273	1377.26
419.481	1391.59
419.689	1588.2
419.897	1680.36
420.105	1600.49
420.313	1713.13
420.521	1706.98
420.729	1684.45
420.937	1815.52
421.145	1852.39
421.353	2153.44
421.561	2067.42
421.769	2130.91
421.977	2145.25
422.185	2120.67
422.393	2352.09
422.601	2491.35
422.809	2593.75
423.017	2411.48
423.224	2526.17
423.432	2808.79
423.64	2733.01
423.848	3036.11
424.056	2821.08
424.263	3101.65
424.471	3173.33
424.679	3177.42
424.887	3410.89
425.094	3361.74
425.302	3445.71
425.51	3509.19
425.718	3705.8
425.925	3806.15
426.133	3834.82
426.341	4158.4
426.548	4250.56
426.756	4252.61
426.964	4418.49
427.171	4742.07
427.379	4651.96
427.586	4823.99
427.794	4883.38
428.001	5170.1
428.209	5440.43
428.417	5417.9
428.624	5491.63
428.832	5680.04
429.039	5608.36
429.247	5632.94
429.454	6116.26
429.662	6478.75
429.869	6163.36
430.076	6603.68
430.284	6353.82
430.491	6577.05
430.699	7218.07
430.906	7035.8
431.114	7326.61
431.321	7572.36
431.528	7711.63
431.736	8078.21
431.943	8401.79
432.15	8229.76
432.358	8344.45
432.565	8694.65
432.772	8739.71
432.979	9286.51
433.187	9212.79
433.394	9339.76
433.601	9976.68
433.808	9964.39
434.016	10046.31
434.223	10414.95
434.43	11088.73
434.637	10900.31
434.844	11479.89
435.052	11899.72
435.259	11936.59
435.466	11932.49
435.673	11678.54
435.88	12260.16
436.087	13058.87
436.294	13103.93
436.501	12782.4
436.708	12921.66
436.915	13601.58
437.122	14148.39
437.329	14041.9
437.537	14719.78
437.743	14824.22
437.95	14730.02
438.157	15307.54
438.364	15899.41
438.571	16134.92
438.778	16069.39
438.985	17576.69
439.192	16898.81
439.399	17351.42
439.606	17152.76
439.813	18017.01
440.02	19178.2
440.227	18696.93
440.433	18326.25
440.64	19139.29
440.847	19018.46
441.054	19772.11
441.261	20945.6
441.467	20961.98
441.674	21201.6
441.881	21641.91
442.088	21748.4
442.294	21361.34
442.501	22354.6
442.708	22545.06
442.914	23403.16
443.121	24285.84
443.328	23970.45
443.534	25576.06
443.741	24859.27
443.948	24242.83
444.154	26378.86
444.361	25997.94
444.568	26264.18
444.774	26378.86
444.981	26468.97
445.187	27189.86
445.394	28351.06
445.6	28398.16
445.807	30962.22
446.013	29633.08
446.22	30204.47
446.426	31470.11
446.633	31695.39
446.839	32756.24
447.046	31068.71
447.252	33413.63
447.459	33120.77
447.665	33239.56
447.871	34585.07
448.078	36114.9
448.284	34470.39
448.491	35275.24
448.697	36366.81
448.903	37140.94
449.11	37478.85
449.316	36901.32
449.522	37616.07
449.728	38328.76
449.935	38625.71
450.141	38760.88
450.347	39723.43
450.553	38291.9
450.76	38906.29
450.966	40276.38
451.172	39485.86
451.378	41025.93
451.584	40178.07
451.791	41638.28
451.997	40853.9
452.203	41542.02
452.409	41537.93
452.615	41595.27
452.821	39940.51
453.027	39518.63
453.233	41679.24
453.44	40073.63
453.646	40513.94
453.852	40747.41
454.058	41394.57
454.264	40016.29
454.47	40972.69
454.676	39917.98
454.882	41611.65
455.088	37859.77
455.294	38298.04
455.5	39125.42
455.705	39625.12
455.911	37939.65
456.117	36981.2
456.323	36692.43
456.529	34679.28
456.735	36387.28
456.941	35545.57
457.147	34978.28
457.352	33931.77
457.558	33120.77
457.764	33530.37
457.97	32920.07
458.176	32193.04
458.381	32170.52
458.587	30556.72
458.793	30687.79
458.999	28994.12
459.204	31078.95
459.41	30255.67
459.616	28359.25
459.821	28367.44
460.027	28025.43
460.233	27703.9
460.438	26497.64
460.644	26307.18
460.85	25571.96
461.055	25105.02
461.261	25102.98
461.466	22987.43
461.672	22201.01
461.878	24111.76
462.083	22377.13
462.289	21973.68
462.494	21668.53
462.7	20824.77
462.905	20318.92
463.111	20792
463.316	20855.49
463.522	20474.57
463.727	20783.81
463.932	20763.33
464.138	20413.13
464.343	20632.26
464.549	19710.68
464.754	20570.82
464.959	20378.31
465.165	20032.21
465.37	19364.57
465.575	18838.24
465.781	19536.6
465.986	19772.11
466.191	18854.62
466.397	18553.57
466.602	17634.03
466.807	18305.77
467.012	18324.2
467.218	18047.72
467.423	17971.95
467.628	18250.47
467.833	18909.92
468.038	18000.62
468.244	17990.38
468.449	18293.48
468.654	17900.27
468.859	17683.19
469.064	17566.45
469.269	17183.48
469.474	17132.28
469.679	17576.69
469.885	16986.88
470.09	17179.39
470.295	16978.68
470.5	16407.3
470.705	16806.66
470.91	16349.96
471.115	16149.26
471.32	16374.53
471.525	16466.69
471.73	15975.18
471.935	15862.54
472.139	15524.63
472.344	15602.45
472.549	15399.7
472.754	15223.58
472.959	15067.93
473.164	14727.97
473.369	14646.05
473.574	15086.36
473.778	14832.41
473.983	14600.99
474.188	14467.88
474.393	14048.04
474.598	14152.49
474.802	13833
475.007	13810.48
475.212	13751.09
475.417	13392.69
475.621	13486.9
475.826	13396.79
476.031	13036.35
476.235	12999.48
476.44	13171.51
476.645	12598.08
476.849	12753.73
477.054	12731.2
477.259	12747.58
477.463	12505.92
477.668	12057.42
477.872	12438.34
478.077	12211.01
478.282	11826
478.486	12000.07
478.691	11731.79
478.895	11699.02
479.1	11664.21
479.304	11522.9
479.509	11250.52
479.713	11533.14
479.918	11307.86
480.122	11053.91
480.326	11178.84
480.531	11240.28
480.735	11162.45
480.94	11121.49
481.144	11363.15
481.348	10894.17
481.553	10879.83
481.757	10693.47
481.961	10826.59
482.166	11037.53
482.37	10935.13
482.574	10560.35
482.778	10939.23
482.983	10957.66
483.187	11070.3
483.391	10724.19
483.595	10722.14
483.8	10523.49
484.004	10834.78
484.208	10900.31
484.412	10679.13
484.616	10695.52
484.821	10765.15
485.025	10425.18
485.229	10935.13
485.433	10791.77
485.637	10951.51
485.841	10421.09
486.045	10638.17
486.249	10679.13
486.453	10703.71
486.657	10802.01
486.861	10896.22
487.065	10492.77
487.269	10879.83
487.473	10539.87
487.677	10971.99
487.881	11119.45
488.085	10777.44
488.289	10976.09
488.493	10820.44
488.697	10959.7
488.901	10861.4
489.105	10744.67
489.309	11027.29
489.512	10900.31
489.716	11033.43
489.92	10892.12
490.124	10881.88
490.328	11232.08
490.531	10982.23
490.735	11172.69
490.939	11047.77
491.143	11062.1
491.346	11019.1
491.55	11330.39
491.754	11150.17
491.958	11440.98
492.161	11219.8
492.365	11490.13
492.569	11469.65
492.772	11324.24
492.976	11418.45
493.18	11533.14
493.383	11737.93
493.587	11778.89
493.79	12151.62
493.994	11588.43
494.197	11944.78
494.401	11903.82
494.605	11955.02
494.808	12204.87
495.012	12155.72
495.215	12344.13
495.419	12397.38
495.622	12374.85
495.825	12483.39
496.029	12485.44
496.232	12772.16
496.436	12606.27
496.639	13144.89
496.843	13165.37
497.046	13230.9
497.249	13396.79
497.453	13429.56
497.656	13652.78
497.859	13708.08
498.063	13615.92
498.266	14201.64
498.469	13964.07
498.673	14138.15
498.876	14338.85
499.079	14418.72
499.282	14474.02
499.485	14746.4
499.689	14863.13
499.892	15033.11
500.095	15141.66
500.298	15469.33
500.501	15518.48
500.705	15772.43
500.908	15809.29
501.111	16245.51
501.314	16395.01
501.517	16610.05
501.72	16839.42
501.923	16491.27
502.126	16925.44
502.329	17287.93
502.532	17298.17
502.735	17492.73
502.938	17992.43
503.141	17984.24
503.344	18012.91
503.547	18260.71
503.75	18305.77
503.953	18885.34
504.156	18832.1
504.359	18971.36
504.562	19329.75
504.765	19575.51
504.968	19585.75
505.17	19774.16
505.373	19665.62
505.576	20431.56
505.779	20243.15
505.982	20550.34
506.185	21203.64
506.387	21191.36
506.59	21086.91
506.793	21723.83
506.996	21471.93
507.198	22043.31
507.401	22256.3
507.604	22629.03
507.807	23055.01
508.009	22950.56
508.212	23159.45
508.415	23390.88
508.617	23595.67
508.82	23917.2
509.022	23870.1
509.225	24375.95
509.428	24662.66
509.63	24664.71
509.833	24920.71
510.035	25567.87
510.238	25162.37
510.44	25821.81
510.643	25963.12
510.845	26151.54
511.048	26317.42
511.25	26829.41
511.453	26942.05
511.655	27572.83
511.858	27546.2
512.06	27867.73
512.262	28045.91
512.465	27839.06
512.667	28660.3
512.87	28656.2
513.072	28691.02
513.274	29510.21
513.477	29553.21
513.679	29864.5
513.881	30292.53
514.084	30353.97
514.286	30677.55
514.488	30788.14
514.69	31506.98
514.893	31318.56
515.095	31724.06
515.297	32147.99
515.499	32516.62
515.701	32776.72
515.904	32655.89
516.106	32961.03
516.308	33450.5
516.51	33978.87
516.712	33872.38
516.914	34224.63
517.116	34718.19
517.318	34607.6
517.52	34849.26
517.722	35097.06
517.925	35678.69
518.127	36108.76
518.329	35932.64
518.531	35944.92
518.733	36909.52
518.935	37007.82
519.136	36676.05
519.338	37677.51
519.54	37784
519.742	38029.76
519.944	38404.53
520.146	38822.32
520.348	38844.85
520.55	39002.54
520.752	39152.04
520.954	39766.43
521.155	39858.59
521.357	40573.33
521.559	40837.52
521.761	41515.4
521.963	41367.94
522.164	41337.23
522.366	41425.29
522.568	41922.94
522.77	42164.6
522.971	43051.38
523.173	42125.69
523.375	42895.73
523.576	42908.02
523.778	42731.89
523.98	43766.12
524.181	43673.96
524.383	43567.46
524.584	44282.2
524.786	44261.72
524.988	43919.71
525.189	45201.74
525.391	44863.83
525.592	45302.09
525.794	45373.77
525.995	45533.51
526.197	45461.83
526.398	45414.73
526.6	46274.88
526.801	45887.81
527.003	46319.93
527.204	46281.02
527.406	46954.8
527.607	46707
527.808	47151.41
528.01	46451
528.211	46594.36
528.412	47524.14
528.614	47640.87
528.815	47653.16
529.016	47950.12
529.218	47180.08
529.419	47601.96
529.62	47806.76
529.822	47935.78
530.023	48021.8
530.224	48369.95
530.425	48328.99
530.626	47282.48
530.828	47706.41
531.029	49070.36
531.23	48367.9
531.431	48173.34
531.632	48343.33
531.833	48410.91
532.035	48503.07
532.236	48644.38
532.437	48867.61
532.638	48654.62
532.839	48490.78
533.04	49107.22
533.241	48550.17
533.442	49404.17
533.643	49248.53
533.844	48941.33
534.045	48951.57
534.246	48607.51
534.447	49381.65
534.648	48861.46
534.849	49565.96
535.05	48544.03
535.251	49285.39
535.451	49056.02
535.652	49297.68
535.853	48972.05
536.054	49314.06
536.255	49137.94
536.456	49099.03
536.657	49860.87
536.857	49084.69
537.058	48927
537.259	49172.75
537.46	49479.95
537.66	49043.73
537.861	49086.74
538.062	49092.88
538.263	49287.44
538.463	48840.98
538.664	48838.93
538.865	49301.78
539.065	49899.78
539.266	48939.29
539.466	49119.51
539.667	48834.84
539.868	49500.43
540.068	49174.8
540.269	48902.42
540.469	49207.57
540.67	48539.93
540.87	49461.52
541.071	49234.19
541.271	49043.73
541.472	49004.82
541.672	48742.68
541.873	48863.51
542.073	48601.37
542.274	49133.84
542.474	48744.73
542.675	48914.71
542.875	49373.45
543.075	48802.07
543.276	48582.94
543.476	49266.96
543.676	48894.23
543.877	48910.61
544.077	49193.23
544.277	49025.3
544.478	48820.5
544.678	49115.41
544.878	48945.43
545.078	49236.24
545.279	48265.5
545.479	48855.32
545.679	49123.6
545.879	49369.36
546.079	48795.93
546.28	48595.23
546.48	48443.68
546.68	49008.92
546.88	48787.74
547.08	48705.82
547.28	48705.82
547.48	48679.19
547.68	49056.02
547.88	48711.96
548.081	49340.69
548.281	48804.12
548.481	48677.15
548.681	48886.04
548.881	48648.47
549.081	48732.44
549.28	48658.71
549.48	48988.44
549.68	48464.16
549.88	49316.11
550.08	48447.77
550.28	48920.85
550.48	48867.61
550.68	49418.51
550.88	48795.93
551.08	48957.72
551.279	48918.81
551.479	48800.02
551.679	48664.86
551.879	48687.39
552.079	48951.57
552.278	48789.78
552.478	48525.6
552.678	48441.63
552.878	48828.69
553.077	48458.01
553.277	48064.8
553.477	49037.59
553.676	48527.64
553.876	48916.76
554.076	48527.64
554.275	48509.21
554.475	47960.36
554.674	48312.61
554.874	48511.26
555.074	47841.57
555.273	48773.4
555.473	48328.99
555.672	48245.02
555.872	48415.01
556.071	48550.17
556.271	48099.62
556.47	47739.18
556.67	47919.4
556.869	47995.17
557.068	48118.05
557.268	47657.26
557.467	48152.87
557.667	47837.48
557.866	48187.68
558.065	47675.69
558.265	47554.86
558.464	47044.91
558.663	47821.09
558.863	47190.32
559.062	48208.16
559.261	47278.38
559.461	48052.51
559.66	47210.8
559.859	47419.69
560.058	47354.16
560.258	47190.32
560.457	47061.3
560.656	47511.85
560.855	47087.92
561.054	47313.2
561.253	46721.34
561.453	47243.57
561.652	47141.17
561.851	47462.7
562.05	46928.18
562.249	46928.18
562.448	47319.34
562.647	46860.6
562.846	46858.55
563.045	46901.56
563.244	46336.32
563.443	47061.3
563.642	46215.49
563.841	46610.74
564.04	46405.95
564.239	46637.37
564.438	46043.46
564.637	46195.01
564.836	46068.03
565.035	45928.77
565.234	46027.07
565.432	45941.06
565.631	46045.51
565.83	45766.98
566.029	45711.69
566.228	45281.61
566.427	45435.21
566.625	45244.75
566.824	45285.71
567.023	45066.58
567.222	44798.29
567.42	45103.44
567.619	45195.6
567.818	45207.89
568.016	45277.52
568.215	45406.54
568.414	44630.36
568.612	45177.17
568.811	44736.85
569.01	44812.63
569.208	44212.57
569.407	44616.02
569.605	44237.15
569.804	44904.79
570.002	44099.94
570.201	44564.82
570.4	44224.86
570.598	43764.07
570.797	43813.22
570.995	43862.37
571.193	43653.48
571.392	43983.2
571.59	43577.7
571.789	43669.86
571.987	43530.6
572.186	43170.16
572.384	42940.78
572.582	43233.64
572.781	43008.37
572.979	42742.13
573.177	42797.43
573.376	43172.21
573.574	42504.57
573.772	42590.58
573.971	42762.61
574.169	42529.14
574.367	42361.21
574.565	42029.44
574.763	42598.77
574.962	42332.54
575.16	42164.6
575.358	42379.64
575.556	41830.79
575.754	42238.33
575.952	41632.13
576.151	42144.12
576.349	41216.4
576.547	41234.83
576.745	41525.64
576.943	41419.14
577.141	41132.43
577.339	41369.99
577.537	41273.74
577.735	41226.63
577.933	40892.82
578.131	41193.87
578.329	41048.46
578.527	40827.28
578.725	40806.8
578.923	40835.47
579.121	40468.89
579.319	40284.57
579.516	40380.82
579.714	40663.44
579.912	40026.53
580.11	40001.95
580.308	40401.3
580.506	39985.57
580.704	39303.59
580.901	40059.29
581.099	39897.5
581.297	39197.1
581.495	39575.97
581.692	40049.05
581.89	39473.57
582.088	39686.56
582.285	39223.72
582.483	39221.67
582.681	39285.16
582.878	39145.9
583.076	38719.92
583.274	39078.32
583.471	38398.39
583.669	38527.41
583.866	38330.81
584.064	38701.49
584.262	38257.08
584.459	38490.55
584.657	38060.48
584.854	38468.02
585.052	37749.18
585.249	38044.09
585.447	37798.34
585.644	37308.87
585.841	37468.61
586.039	37861.82
586.236	37398.98
586.434	36932.04
586.631	37190.09
586.828	37091.79
587.026	37159.37
587.223	36973
587.42	36891.09
587.618	36981.2
587.815	36557.27
588.012	36004.31
588.21	36176.34
588.407	36704.72
588.604	36293.08
588.801	36049.37
588.999	36012.51
589.196	36067.8
589.393	35992.03
589.59	36094.43
589.787	36028.89
589.984	35535.33
590.182	35285.48
590.379	35832.29
590.576	35213.8
590.773	35719.65
590.97	34810.35
591.167	35494.37
591.364	34636.27
591.561	35121.64
591.758	34789.87
591.955	34791.92
592.152	34882.03
592.349	34841.07
592.546	34879.98
592.743	34658.8
592.94	34025.98
593.137	34591.22
593.334	34384.37
593.531	33364.48
593.727	34126.33
593.924	34193.91
594.121	33698.3
594.318	33747.45
594.515	33407.49
594.712	33810.94
594.908	33534.46
595.105	33653.25
595.302	33178.12
595.499	32823.82
595.696	33370.63
595.892	32670.22
596.089	33206.79
596.286	32920.07
596.482	33038.86
596.679	32868.87
596.876	32707.08
597.072	32684.56
597.269	32279.06
597.466	32043.54
597.662	32334.35
597.859	32272.92
598.055	32082.45
598.252	31865.37
598.448	32064.02
598.645	31719.96
598.841	31441.44
599.038	31650.33
599.234	31695.39
599.431	31650.33
599.627	31181.35
599.824	31425.06
600.02	31478.3
600.217	31375.91
600.413	30870.06
600.609	31021.61
600.806	30931.5
601.002	30689.84
601.198	30757.42
601.395	30407.22
601.591	30556.72
601.787	30497.33
601.984	30376.5
602.18	30929.45
602.376	30165.56
602.572	30206.52
602.769	29794.87
602.965	30024.25
603.161	29987.38
603.357	29749.82
603.553	29336.13
603.75	29778.49
603.946	29192.77
604.142	29391.42
604.338	29463.1
604.534	29616.7
604.73	29096.52
604.926	28963.4
605.122	29094.47
605.318	29133.38
605.514	29053.51
605.71	28750.41
605.906	28940.87
606.102	28611.15
606.298	28889.67
606.494	28422.73
606.69	28623.44
606.886	28543.56
607.082	28082.77
607.278	28703.31
607.474	28105.3
607.67	28482.13
607.866	27968.09
608.062	28027.48
608.257	28222.03
608.453	28004.95
608.649	27863.64
608.845	27796.06
609.041	27712.09
609.236	27705.95
609.432	27923.03
609.628	27613.79
609.824	27482.72
610.019	27423.33
610.215	27540.06
610.411	27503.2
610.606	27152.99
610.802	27646.55
610.998	27669.08
611.193	27359.84
611.389	27251.3
611.584	26929.77
611.78	27224.67
611.976	27212.38
612.171	27191.91
612.367	26813.03
612.562	26933.86
612.758	26491.5
612.953	26579.56
613.149	27034.21
613.344	26419.82
613.539	26518.12
613.735	26620.52
613.93	26679.91
614.126	26655.34
614.321	26677.86
614.517	26491.5
614.712	26348.14
614.907	26458.73
615.103	26290.8
615.298	26106.48
615.493	26657.39
615.688	26129.01
615.884	26729.06
616.079	25723.51
616.274	26110.58
616.47	26139.25
616.665	25866.87
616.86	26090.1
617.055	26098.29
617.25	25737.85
617.445	25662.07
617.641	25539.19
617.836	25639.54
618.031	25229.95
618.226	25883.25
618.421	25004.67
618.616	25842.29
618.811	24973.95
619.006	25397.88
619.201	24937.09
619.396	25258.62
619.591	24789.64
619.786	25084.55
619.981	24552.07
620.176	25021.06
620.371	24396.43
620.566	24345.23
620.761	24398.48
620.956	24822.41
621.151	24423.05
621.346	24253.07
621.541	23876.24
621.735	24185.49
621.93	23847.57
622.125	23870.1
622.32	23378.59
622.515	23581.34
622.709	23194.27
622.904	23456.41
623.099	23270.04
623.294	23157.41
623.488	23106.21
623.683	22940.32
623.878	22561.45
624.072	22610.6
624.267	22563.5
624.462	22231.72
624.656	22248.11
624.851	22252.2
625.046	21955.25
625.24	21932.72
625.435	21910.19
625.629	21768.88
625.824	21699.25
626.018	21572.28
626.213	20908.74
626.407	21301.95
626.602	20802.24
626.796	21195.45
626.991	21107.39
627.185	20683.46
627.38	20738.76
627.574	20712.13
627.768	20640.45
627.963	20177.61
628.157	20107.98
628.352	20091.6
628.546	19987.15
628.74	20380.36
628.935	19630.8
629.129	19753.68
629.323	19677.91
629.517	19593.94
629.712	19579.61
629.906	19270.36
630.1	18819.81
630.294	19165.92
630.489	19192.54
630.683	18885.34
630.877	18670.31
631.071	18770.66
631.265	18584.29
631.459	18297.58
631.653	18428.65
631.848	18647.78
632.042	18219.75
632.236	18557.67
632.43	18100.97
632.624	17961.71
632.818	17822.45
633.012	17763.06
633.206	17609.46
633.4	17818.35
633.594	17482.49
633.788	17435.38
633.982	17576.69
634.176	17246.97
634.369	17068.8
634.563	17275.64
634.757	17083.13
634.951	17042.17
635.145	16878.33
635.339	17033.98
635.533	16605.95
635.726	16761.6
635.92	16505.6
636.114	16556.8
636.308	16425.73
636.501	16440.07
636.695	16259.85
636.889	16184.07
637.083	15981.32
637.276	15874.83
637.47	15833.87
637.664	15649.55
637.857	16001.8
638.051	15694.61
638.244	15526.68
638.438	15561.49
638.632	15233.82
638.825	15330.07
639.019	15485.72
639.212	15311.64
639.406	15164.18
639.599	15014.68
639.793	15106.84
639.986	14861.09
640.18	14983.96
640.373	14992.16
640.567	14469.92
640.76	14672.67
640.954	14527.27
641.147	14269.22
641.34	14480.16
641.534	14426.92
641.727	14211.88
641.92	14267.17
642.114	14258.98
642.307	14015.27
642.5	14013.23
642.694	13648.69
642.887	13611.82
643.08	13570.86
643.273	13622.06
643.467	13450.03
643.66	13562.67
643.853	13550.39
644.046	13540.15
644.239	13278.01
644.432	13335.35
644.626	13259.57
644.819	13040.44
645.012	13212.47
645.205	12841.79
645.398	12999.48
645.591	12735.29
645.784	12931.9
645.977	12620.61
646.17	12641.09
646.363	12579.65
646.556	12626.75
646.749	12454.72
646.942	12462.91
647.135	12362.56
647.328	12327.75
647.521	12409.67
647.714	12067.66
647.907	12358.47
648.099	12053.32
648.292	11883.34
648.485	11848.52
648.678	11926.35
648.871	11926.35
649.064	11637.58
649.256	11936.59
649.449	11537.23
649.642	11488.08
649.835	11588.43
650.027	11426.64
650.22	11457.36
650.413	11203.41
650.605	11322.2
650.798	11021.14
650.991	11266.9
651.183	11115.35
651.376	11195.22
651.568	10908.51
651.761	10869.59
651.954	10871.64
652.146	10834.78
652.339	10773.34
652.531	10730.33
652.724	10759
652.916	10617.69
653.109	10406.75
653.301	10341.22
653.494	10339.17
653.686	10330.98
653.879	10298.21
654.071	10230.63
654.263	10226.53
654.456	10234.72
654.648	10236.77
654.84	9982.82
655.033	9876.33
655.225	9853.8
655.417	9878.38
655.61	9880.43
655.802	9755.5
655.994	9704.3
656.186	9814.89
656.379	9626.48
656.571	9792.36
656.763	9497.46
656.955	9456.5
657.148	9442.16
657.34	9483.12
657.532	9532.27
657.724	9167.73
657.916	9323.38
658.108	9223.03
658.3	9083.77
658.492	9257.84
658.684	9057.14
658.876	9245.55
659.068	9063.29
659.26	8960.89
659.452	8946.55
659.644	8805.24
659.836	8854.39
660.028	8811.39
660.22	8684.41
660.412	8606.59
660.604	8620.92
660.796	8622.97
660.988	8452.99
661.18	8614.78
661.372	8557.44
661.563	8381.31
661.755	8225.67
661.947	8477.57
662.139	8360.83
662.331	8252.29
662.522	8254.34
662.714	8139.65
662.906	8217.47
663.097	8166.28
663.289	7969.67
663.481	8065.92
663.673	8000.39
663.864	7875.46
664.056	7883.66
664.247	8008.58
664.439	7771.02
664.631	7654.28
664.822	7793.55
665.014	7750.54
665.205	7547.79
665.397	7685
665.588	7773.07
665.78	7279.5
665.971	7558.03
666.163	7642
666.354	7451.53
666.546	7386
666.737	7336.85
666.929	7357.33
667.12	7248.79
667.311	7261.07
667.503	7207.83
667.694	7347.09
667.885	7046.04
668.077	7287.7
668.268	7074.71
668.459	7019.41
668.651	7021.46
668.842	7003.03
669.033	6865.82
669.224	7160.72
669.416	6892.44
669.607	6851.48
669.798	6677.4
669.989	6747.03
670.18	6871.96
670.371	6888.34
670.563	6767.51
670.754	6644.63
670.945	6445.98
671.136	6847.38
671.327	6564.76
671.518	6646.68
671.709	6558.62
671.9	6622.11
672.091	6599.58
672.282	6525.85
672.473	6456.22
672.664	6642.59
672.855	6405.02
673.046	6431.65
673.237	6536.09
673.428	6433.69
673.619	6288.29
673.809	6224.8
674	6216.61
674.191	6226.85
674.382	6312.86
674.573	6292.38
674.764	6155.17
674.954	6155.17
675.145	5895.08
675.336	6153.12
675.527	6110.11
675.717	6120.35
675.908	6108.07
676.099	6142.88
676.289	6005.67
676.48	6110.11
676.671	5929.89
676.861	6056.87
677.052	6056.87
677.243	5970.85
677.433	5866.41
677.624	5870.5
677.814	5753.77
678.005	5821.35
678.195	5764.01
678.386	5727.14
678.576	5852.07
678.767	5729.19
678.957	5751.72
679.148	5837.73
679.338	5729.19
679.529	5804.97
679.719	5596.07
679.909	5626.79
680.1	5632.94
680.29	5688.23
680.481	5604.27
680.671	5505.96
680.861	5710.76
681.052	5626.79
681.242	5454.76
681.432	5587.88
681.622	5495.72
681.813	5610.41
682.003	5567.4
682.193	5583.79
682.383	5563.31
682.573	5610.41
682.764	5460.91
682.954	5591.98
683.144	5356.46
683.334	5329.84
683.524	5350.32
683.714	5557.16
683.904	5252.02
684.094	5481.39
684.284	5309.36
684.474	5331.89
684.664	5223.34
684.854	5401.52
685.044	5299.12
685.234	5151.67
685.424	5243.82
685.614	5254.06
685.804	5266.35
685.994	5008.31
686.184	5151.67
686.374	5047.22
686.564	5071.79
686.753	5008.31
686.943	5075.89
687.133	5157.81
687.323	4928.44
687.513	4950.96
687.702	5014.45
687.892	4785.08
688.082	5020.6
688.272	4869.05
688.461	4914.1
688.651	4936.63
688.841	4877.24
689.03	4686.78
689.22	4760.5
689.41	4737.98
689.599	4795.32
689.789	4840.37
689.979	4658.1
690.168	4670.39
690.358	4678.58
690.547	4729.78
690.737	4729.78
690.926	4651.96
691.116	4551.61
691.305	4615.1
691.495	4545.47
691.684	4539.32
691.874	4387.77
692.063	4629.43
692.252	4430.78
692.442	4398.01
692.631	4445.12
692.82	4475.84
693.01	4375.49
693.199	4355.01
693.388	4203.46
693.578	4422.59
693.767	4293.57
693.956	4436.92
694.146	4303.81
694.335	4250.56
694.524	4082.63
694.713	4248.51
694.902	4262.85
695.092	4225.98
695.281	4277.18
695.47	4164.54
695.659	4285.37
695.848	4148.16
696.037	4117.44
696.226	3951.56
696.415	4068.29
696.604	4215.74
696.793	3920.84
696.982	4062.15
697.171	4131.78
697.36	4056
697.549	4041.67
697.738	3896.26
697.927	3965.89
698.116	3990.47
698.305	3847.11
698.494	3951.56
698.683	4008.9
698.872	4039.62
699.061	3969.99
699.25	4047.81
699.438	3890.12
699.627	3967.94
699.816	4012.99
700.005	3865.54
700.193	3693.51
700.382	3920.84
700.571	3826.63
700.76	3865.54
700.948	3892.16
701.137	3906.5
701.326	3863.49
701.514	3836.87
701.703	3838.92
701.892	3716.04
702.08	3877.83
702.269	3818.44
702.457	3654.6
702.646	3779.53
702.834	3675.08
703.023	3826.63
703.212	3707.85
703.4	3705.8
703.589	3834.82
703.777	3867.59
703.965	3722.18
704.154	3791.81
704.342	3695.56
704.531	3689.42
704.719	3646.41
704.907	3795.91
705.096	3666.89
705.284	3666.89
705.472	3785.67
705.661	3736.52
705.849	3685.32
706.037	3681.22
706.226	3654.6
706.414	3697.61
706.602	3621.83
706.79	3795.91
706.979	3666.89
707.167	3584.97
707.355	3599.31
707.543	3664.84
707.731	3705.8
707.919	3554.25
708.107	3562.44
708.296	3541.96
708.484	3613.64
708.672	3554.25
708.86	3654.6
709.048	3754.95
709.236	3619.78
709.424	3601.35
709.612	3675.08
709.8	3673.03
709.988	3576.78
710.176	3486.67
710.364	3607.5
710.551	3683.27
710.739	3539.91
710.927	3560.39
711.115	3609.54
711.303	3511.24
711.491	3603.4
711.679	3537.87
711.866	3558.35
712.054	3582.92
712.242	3511.24
712.43	3521.48
712.617	3539.91
712.805	3425.23
712.993	3513.29
713.181	3501
713.368	3550.15
713.556	3593.16
713.744	3421.13
713.931	3554.25
714.119	3535.82
714.306	3498.95
714.494	3593.16
714.682	3417.04
714.869	3353.55
715.057	3601.35
715.244	3474.38
715.432	3470.28
715.619	3414.99
715.807	3507.15
715.994	3521.48
716.182	3402.7
716.369	3406.8
716.556	3472.33
716.744	3443.66
716.931	3482.57
717.119	3539.91
717.306	3441.61
717.493	3390.41
717.681	3388.36
717.868	3513.29
718.055	3476.43
718.242	3400.65
718.43	3441.61
718.617	3398.6
718.804	3316.69
718.991	3396.56
719.179	3345.36
719.366	3513.29
719.553	3423.18
719.74	3464.14
719.927	3331.02
720.114	3486.67
720.301	3431.37
720.488	3269.58
720.676	3517.39
720.863	3333.07
721.05	3382.22
721.237	3478.47
721.424	3369.93
721.611	3251.15
721.798	3331.02
721.985	3257.29
722.172	3251.15
722.358	3263.44
722.545	3484.62
722.732	3298.25
722.919	3464.14
723.106	3214.29
723.293	3298.25
723.48	3316.69
723.667	3320.78
723.853	3429.32
724.04	3388.36
724.227	3302.35
724.414	3097.55
724.6	3345.36
724.787	3335.12
724.974	3394.51
725.161	3324.88
725.347	3388.36
725.534	3212.24
725.72	3398.6
725.907	3347.4
726.094	3365.84
726.28	3183.57
726.467	3167.18
726.653	3281.87
726.84	3197.9
727.027	3318.73
727.213	3161.04
727.4	3234.77
727.586	3193.81
727.773	3300.3
727.959	3257.29
728.145	3195.86
728.332	3228.62
728.518	3300.3
728.705	3290.06
728.891	3202
729.077	3126.22
729.264	3208.14
729.45	3171.28
729.636	3441.61
729.823	3185.62
730.009	3240.91
730.195	3161.04
730.382	3263.44
730.568	3197.9
730.754	3138.51
730.94	3187.66
731.126	3249.1
731.313	3167.18
731.499	3171.28
731.685	3267.53
731.871	3214.29
732.057	3384.27
732.243	3240.91
732.429	3173.33
732.615	3111.89
732.801	3089.36
732.987	3128.27
733.173	3242.96
733.359	3136.46
733.545	3025.87
733.731	3099.6
733.917	3146.7
734.103	3273.68
734.289	3060.69
734.475	3040.21
734.661	3126.22
734.847	3103.7
735.033	3122.13
735.219	3099.6
735.404	3077.07
735.59	3187.66
735.776	3070.93
735.962	3152.85
736.148	3032.02
736.333	3032.02
736.519	2986.96
736.705	3066.83
736.89	3023.83
737.076	3181.52
737.262	3032.02
737.447	2989.01
737.633	3089.36
737.819	3062.74
738.004	3040.21
738.19	3083.22
738.375	3103.7
738.561	3029.97
738.747	3058.64
738.932	3060.69
739.118	2925.52
739.303	2946
739.489	2935.76
739.674	2837.46
739.859	2999.25
740.045	3132.37
740.23	2933.72
740.416	2847.7
740.601	2972.63
740.786	2984.91
740.972	2956.24
741.157	2880.47
741.342	2841.56
741.528	2900.95
741.713	2950.1
741.898	2778.07
742.084	2790.36
742.269	2837.46
742.454	2905.04
742.639	2739.16
742.824	2878.42
743.01	2882.52
743.195	2878.42
743.38	2829.27
743.565	2837.46
743.75	2628.57
743.935	2702.29
744.12	2790.36
744.305	2773.97
744.49	2690.01
744.675	2814.93
744.86	2661.34
745.045	2651.1
745.23	2583.51
745.415	2606.04
745.6	2618.33
745.785	2614.23
745.97	2700.25
746.155	2567.13
746.34	2520.03
746.525	2552.79
746.71	2749.4
746.895	2472.92
747.079	2460.63
747.264	2603.99
747.449	2534.36
747.634	2520.03
747.819	2565.08
748.003	2511.83
748.188	2431.96
748.373	2413.53
748.557	2399.2
748.742	2339.8
748.927	2399.2
749.111	2284.51
749.296	2364.38
749.481	2356.19
749.665	2249.69
749.85	2139.1
750.034	2276.32
750.219	2298.84
750.404	2292.7
750.588	2274.27
750.773	2261.98
750.957	2173.92
751.141	2206.69
751.326	2124.77
751.51	2110.43
751.695	2145.25
751.879	2216.93
752.064	2165.73
752.248	2139.1
752.432	2048.99
752.617	2048.99
752.801	2065.38
752.985	2065.38
753.17	2034.66
753.354	1999.84
753.538	2020.32
753.722	1942.5
753.907	1975.27
754.091	2030.56
754.275	1942.5
754.459	1879.01
754.643	2001.89
754.828	1989.6
755.012	1975.27
755.196	1948.64
755.38	1901.54
755.564	1784.8
755.748	1862.63
755.932	1799.14
756.116	1887.2
756.3	1846.24
756.484	1790.95
756.668	1831.91
756.852	1700.84
757.036	1735.65
757.22	1735.65
757.404	1709.03
757.588	1729.51
757.772	1756.13
757.956	1752.04
758.14	1727.46
758.323	1602.54
758.507	1709.03
758.691	1563.62
758.875	1686.5
759.059	1678.31
759.242	1754.09
759.426	1625.06
759.61	1678.31
759.794	1655.78
759.977	1596.39
760.161	1524.71
760.345	1631.21
760.528	1635.3
760.712	1561.58
760.895	1416.17
761.079	1528.81
761.263	1588.2
761.446	1463.27
761.63	1553.38
761.813	1504.23
761.997	1588.2
762.18	1420.27
762.364	1438.7
762.547	1422.31
762.731	1512.42
762.914	1371.12
763.098	1539.05
763.281	1369.07
763.464	1397.74
763.648	1405.93
763.831	1407.98
764.015	1360.88
764.198	1424.36
764.381	1375.21
764.564	1379.31
764.748	1350.64
764.931	1293.29
765.114	1274.86
765.297	1301.48
765.481	1299.44
765.664	1338.35
765.847	1319.92
766.03	1389.55
766.213	1328.11
766.397	1369.07
766.58	1168.37
766.763	1377.26
766.946	1295.34
767.129	1240.05
767.312	1278.96
767.495	1278.96
767.678	1293.29
767.861	1213.42
768.044	1238
768.227	1254.38
768.41	1238
768.593	1223.66
768.776	1240.05
768.959	1194.99
769.142	1231.85
769.324	1129.45
769.507	1258.48
769.69	1313.77
769.873	1197.04
770.056	1287.15
770.239	1151.98
770.421	1203.18
770.604	1174.51
770.787	1119.21
770.97	1194.99
771.152	1086.45
771.335	1092.59
771.518	1090.54
771.7	1113.07
771.883	1190.89
772.066	1100.78
772.248	1068.02
772.431	1106.93
772.613	1111.02
772.796	1041.39
772.978	1025.01
773.161	1143.79
773.343	1045.49
773.526	1082.35
773.708	1002.48
773.891	961.52
774.073	1086.45
774.256	971.76
774.438	1059.82
774.621	1041.39
774.803	1041.39
774.985	928.75
775.168	977.91
775.35	1041.39
775.532	1039.34
775.715	992.24
775.897	1022.96
776.079	1018.86
776.261	982
776.444	998.38
776.626	930.8
776.808	906.23
776.99	975.86
777.173	943.09
777.355	893.94
777.537	965.62
777.719	951.28
777.901	842.74
778.083	900.08
778.265	830.45
778.447	904.18
778.629	879.6
778.811	887.79
778.993	951.28
779.175	834.55
779.357	867.31
779.539	793.59
779.721	764.92
779.903	820.21
780.085	730.1
780.267	746.48
780.449	812.02
780.631	754.68
780.812	779.25
780.994	783.35
781.176	814.07
781.358	652.28
781.54	769.01
781.721	775.16
781.903	691.19
782.085	685.05
782.267	803.83
782.448	656.37
782.63	707.57
782.812	642.04
782.993	642.04
783.175	726
783.357	695.29
783.538	691.19
783.72	674.81
783.901	697.33
784.083	715.77
784.264	617.46
784.446	691.19
784.627	705.53
784.809	590.84
784.99	658.42
785.172	635.89
785.353	652.28
785.535	680.95
785.716	642.04
785.897	670.71
786.079	603.13
786.26	637.94
786.441	629.75
786.623	527.35
786.804	498.68
786.985	531.45
787.167	627.7
787.348	617.46
787.529	545.78
787.71	535.54
787.891	553.98
788.073	580.6
788.254	642.04
788.435	549.88
788.616	529.4
788.797	494.58
788.978	478.2
789.159	467.96
789.34	594.93
789.522	504.82
789.703	502.78
789.884	533.5
790.065	504.82
790.246	570.36
790.427	549.88
790.607	470.01
790.788	482.3
790.969	484.34
791.15	494.58
791.331	537.59
791.512	381.95
791.693	480.25
791.874	480.25
792.054	490.49
792.235	472.06
792.416	369.66
792.597	521.21
792.778	537.59
792.958	470.01
793.139	437.24
793.32	455.67
793.5	453.63
793.681	437.24
793.862	435.19
794.042	457.72
794.223	422.91
794.404	353.27
794.584	330.75
794.765	373.75
794.945	492.54
795.126	412.67
795.306	422.91
795.487	412.67
795.667	367.61
795.848	439.29
796.028	394.23
796.209	396.28
796.389	386.04
796.57	355.32
796.75	420.86
796.93	332.79
797.111	293.88
797.291	369.66
797.471	379.9
797.652	365.56
797.832	347.13
798.012	361.47
798.192	332.79
798.373	357.37
798.553	330.75
798.733	316.41
798.913	293.88
799.093	347.13
799.274	328.7
799.454	427
799.634	304.12
799.814	410.62
799.994	291.84
800.174	322.56
800.354	347.13
800.534	293.88
800.714	379.9
800.894	267.26
801.074	300.03
801.254	279.55
801.434	304.12
801.614	277.5
801.794	295.93
801.974	787.44
802.154	302.08
802.334	322.56
802.514	291.84
802.693	248.83
802.873	254.97
803.053	369.66
803.233	302.08
803.413	263.16
803.592	218.11
803.772	281.6
803.952	349.18
804.131	236.54
804.311	214.01
804.491	310.27
804.67	297.98
804.85	275.45
805.03	238.59
805.209	269.31
805.389	383.99
805.568	214.01
805.748	224.25
805.928	261.12
806.107	263.16
806.287	193.53
806.466	273.4
806.646	261.12
806.825	283.64
807.004	220.16
807.184	281.6
807.363	248.83
807.543	244.73
807.722	234.49
807.901	250.88
808.081	318.46
808.26	228.35
808.439	201.72
808.619	261.12
808.798	297.98
808.977	214.01
809.156	211.96
809.336	191.49
809.515	236.54
809.694	254.97
809.873	265.21
810.052	164.86
810.231	228.35
810.411	201.72
810.59	250.88
810.769	211.96
810.948	226.3
811.127	177.15
811.306	220.16
811.485	195.58
811.664	293.88
811.843	222.2
812.022	287.74
812.201	230.4
812.38	285.69
812.559	134.14
812.737	197.63
812.916	195.58
813.095	222.2
813.274	214.01
813.453	228.35
813.632	228.35
813.811	295.93
813.989	171.01
814.168	166.91
814.347	193.53
814.526	199.68
814.704	218.11
814.883	242.68
815.062	146.43
815.24	263.16
815.419	156.67
815.598	183.29
815.776	211.96
815.955	197.63
816.133	125.95
816.312	240.64
816.49	179.2
816.669	242.68
816.847	132.09
817.026	166.91
817.204	138.24
817.383	207.87
817.561	173.05
817.74	117.76
817.918	158.72
818.097	171.01
818.275	216.06
818.453	164.86
818.632	150.53
818.81	224.25
818.988	228.35
819.167	119.81
819.345	257.02
819.523	177.15
819.701	166.91
819.879	117.76
820.058	162.81
820.236	207.87
820.414	164.86
820.592	87.04
820.77	89.09
820.948	193.53
821.127	211.96
821.305	164.86
821.483	117.76
821.661	154.62
821.839	273.4
822.017	158.72
822.195	181.25
822.373	230.4
822.551	158.72
822.729	117.76
822.907	160.77
823.085	197.63
823.262	168.96
823.44	201.72
823.618	132.09
823.796	132.09
823.974	136.19
824.152	144.38
824.329	158.72
824.507	199.68
824.685	138.24
824.863	99.33
825.04	119.81
825.218	119.81
825.396	125.95
825.574	154.62
825.751	130.05
825.929	154.62
826.107	128
826.284	113.66
826.462	66.56
826.639	128
826.817	117.76
826.994	140.29
827.172	109.57
827.349	154.62
827.527	162.81
827.704	82.94
827.882	140.29
828.059	117.76
828.237	105.47
828.414	146.43
828.591	41.98
828.769	185.34
828.946	93.18
829.124	173.05
829.301	74.75
829.478	76.8
829.655	185.34
829.833	134.14
830.01	95.23
830.187	166.91
830.364	119.81
830.542	158.72
830.719	138.24
830.896	107.52
831.073	134.14
831.25	148.48
831.427	95.23
831.604	138.24
831.782	125.95
831.959	62.46
832.136	68.61
832.313	123.9
832.49	-7.17
832.667	101.37
832.844	171.01
833.021	177.15
833.198	119.81
833.374	37.89
833.551	91.13
833.728	89.09
833.905	99.33
834.082	52.22
834.259	111.61
834.436	146.43
834.612	56.32
834.789	125.95
834.966	111.61
835.143	189.44
835.319	70.65
835.496	64.51
835.673	68.61
835.85	128
836.026	74.75
836.203	95.23
836.38	76.8
836.556	115.71
836.733	54.27
836.909	107.52
837.086	101.37
837.262	109.57
837.439	74.75
837.616	101.37
837.792	-3.07
837.968	82.94
838.145	62.46
838.321	105.47
838.498	130.05
838.674	82.94
838.851	58.37
839.027	35.84
839.203	117.76
839.38	125.95
839.556	78.85
839.732	74.75
839.909	19.46
840.085	99.33
840.261	82.94
840.437	89.09
840.614	87.04
840.79	89.09
840.966	46.08
841.142	91.13
841.318	52.22
841.494	97.28
841.671	13.31
841.847	138.24
842.023	27.65
842.199	150.53
842.375	136.19
842.551	54.27
842.727	74.75
842.903	109.57
843.079	21.5
843.255	209.92
843.431	62.46
843.607	80.89
843.783	7.17
843.959	101.37
844.134	78.85
844.31	121.85
844.486	91.13
844.662	89.09
844.838	82.94
845.013	74.75
845.189	27.65
845.365	95.23
845.541	44.03
845.716	74.75
845.892	109.57
846.068	72.7
846.244	27.65
846.419	103.42
846.595	44.03
846.77	5.12
846.946	107.52
847.122	-3.07
847.297	113.66
847.473	84.99
847.648	23.55
847.824	72.7
847.999	78.85
848.175	119.81
848.35	136.19
848.526	123.9
848.701	60.42
848.876	121.85
849.052	44.03
849.227	50.18
849.403	11.26
849.578	107.52
849.753	62.46
849.929	93.18
850.104	-23.55
850.279	68.61
850.454	84.99
850.63	84.99
850.805	25.6
850.98	39.94
851.155	68.61
851.33	13.31
851.505	84.99
851.681	128
851.856	-5.12
852.031	111.61
852.206	107.52
852.381	74.75
852.556	50.18
852.731	72.7
852.906	25.6
853.081	33.79
853.256	80.89
853.431	72.7
853.606	103.42
853.781	99.33
853.956	52.22
854.131	74.75
854.305	123.9
854.48	70.65
854.655	52.22
854.83	29.7
855.005	-37.89
855.18	7.17
855.354	-7.17
855.529	-17.41
855.704	-1.02
855.879	27.65
856.053	101.37
856.228	64.51
856.403	50.18
856.577	80.89
856.752	19.46
856.926	48.13
857.101	48.13
857.276	72.7
857.45	27.65
857.625	1.02
857.799	17.41
857.974	105.47
858.148	9.22
858.323	35.84
858.497	-13.31
858.672	56.32
858.846	29.7
859.02	21.5
859.195	-9.22
859.369	21.5
859.543	-15.36
859.718	23.55
859.892	39.94
860.066	27.65
860.241	48.13
860.415	5.12
860.589	50.18
860.763	41.98
860.938	58.37
861.112	9.22
861.286	27.65
861.46	1.02
861.634	87.04
861.808	56.32
861.982	48.13
862.157	48.13
862.331	33.79
862.505	13.31
862.679	-1.02
862.853	3.07
863.027	-15.36
863.201	80.89
863.375	48.13
863.549	66.56
863.722	31.74
863.896	25.6
864.07	56.32
864.244	-5.12
864.418	27.65
864.592	56.32
864.766	48.13
864.939	64.51
865.113	48.13
865.287	-17.41
865.461	33.79
865.634	25.6
865.808	29.7
865.982	113.66
866.156	21.5
866.329	-21.5
866.503	46.08
866.676	-7.17
866.85	91.13
867.024	35.84
867.197	-19.46
867.371	9.22
867.544	39.94
867.718	-9.22
867.891	27.65
868.065	52.22
868.238	15.36
868.412	46.08
868.585	-29.7
868.759	27.65
868.932	-7.17
869.105	5.12
869.279	-35.84
869.452	46.08
869.625	-11.26
869.799	29.7
869.972	23.55
870.145	-46.08
870.319	78.85
870.492	11.26
870.665	-23.55
870.838	50.18
871.011	-7.17
871.185	-1.02
871.358	15.36
871.531	17.41
871.704	58.37
871.877	31.74
872.05	-15.36
872.223	7.17
872.396	15.36
872.569	44.03
872.742	68.61
872.915	-1.02
873.088	13.31
873.261	29.7
873.434	35.84
873.607	74.75
873.78	29.7
873.953	11.26
874.126	44.03
874.299	-25.6
874.471	19.46
874.644	-27.65
874.817	-1.02
874.99	115.71
875.163	25.6
875.335	54.27
875.508	7.17
875.681	76.8
875.853	-29.7
876.026	15.36
876.199	-39.94
876.371	62.46
876.544	56.32
876.717	-35.84
876.889	68.61
877.062	107.52
877.234	-13.31
877.407	-64.51
877.579	7.17
877.752	50.18
877.924	21.5
878.097	101.37
878.269	19.46
878.442	31.74
878.614	33.79
878.786	1.02
878.959	-35.84
879.131	60.42
879.303	64.51
879.476	25.6
879.648	3.07
879.82	35.84
879.993	9.22
880.165	19.46
880.337	-52.22
880.509	54.27
880.681	3.07
880.854	33.79
881.026	80.89
881.198	93.18
881.37	31.74
881.542	-7.17
881.714	19.46
881.886	39.94
882.058	3.07
882.23	29.7
882.402	-37.89
882.574	21.5
882.746	52.22
882.918	23.55
883.09	56.32
883.262	-7.17
883.434	-13.31
883.606	-54.27
883.778	-1.02
883.95	17.41
884.122	-9.22
884.293	1.02
884.465	25.6
884.637	-5.12
884.809	17.41
884.98	15.36
885.152	-23.55
885.324	95.23
885.496	21.5
885.667	78.85
885.839	-5.12
886.011	35.84
886.182	-9.22
886.354	41.98
886.525	-5.12
886.697	46.08
886.869	-7.17
887.04	27.65
887.212	-3.07
887.383	130.05
887.555	-37.89
887.726	66.56
887.897	25.6
888.069	15.36
888.24	78.85
888.412	-13.31
888.583	17.41
888.754	-15.36
888.926	19.46
889.097	-11.26
889.268	9.22
889.44	19.46
889.611	-39.94
889.782	35.84
889.953	-15.36
890.125	121.85
890.296	1.02
890.467	5.12
890.638	19.46
890.809	9.22
890.98	-54.27
891.151	-11.26
891.323	-25.6
891.494	27.65
891.665	-33.79
891.836	-5.12
892.007	29.7
892.178	46.08
892.349	1.02
892.52	1.02
892.691	46.08
892.862	-1.02
893.032	-3.07
893.203	17.41
893.374	-41.98
893.545	3.07
893.716	3.07
893.887	21.5
894.057	-13.31
894.228	7.17
894.399	66.56
894.57	44.03
894.74	37.89
894.911	27.65
895.082	25.6
895.253	5.12
895.423	56.32
895.594	97.28
895.764	52.22
895.935	-21.5
896.106	7.17
896.276	11.26
896.447	46.08
896.617	-66.56
896.788	-50.18
896.958	-3.07
897.129	60.42
897.299	1.02
897.47	25.6
897.64	44.03
897.81	1.02
897.981	-66.56
898.151	-37.89
898.322	37.89
898.492	13.31
898.662	9.22
898.832	-33.79
899.003	44.03
899.173	87.04
899.343	3.07
899.513	-41.98
