Data from USB4F104151__42__12-27-24-454.txt Node

Date: Fri Mar 14 12:27:24 EDT 2025
User: louis
Spectrometer: USB4F10415
Trigger mode: 4
Integration Time (sec): 2.000000E-2
Scans to average: 1
Electric dark correction enabled: true
Nonlinearity correction enabled: false
Boxcar width: 0
XAxis mode: Wavelengths
Number of Pixels in Spectrum: 3648
>>>>>Begin Spectral Data<<<<<
178.204	-8.53
178.424	-8.53
178.644	-8.53
178.864	-49.49
179.084	-59.73
179.304	3.75
179.524	22.19
179.744	-18.77
179.964	59.05
180.184	-33.11
180.404	18.09
180.624	-22.87
180.844	9.9
181.064	-22.87
181.283	1.71
181.503	-29.01
181.723	11.95
181.943	36.52
182.163	81.58
182.383	50.86
182.602	116.39
182.822	95.91
183.042	36.52
183.262	122.54
183.482	-4.44
183.701	-82.26
183.921	24.23
184.141	13.99
184.361	75.43
184.58	77.48
184.8	42.67
185.02	34.47
185.239	20.14
185.459	-39.25
185.679	63.15
185.898	-35.16
186.118	32.43
186.338	9.9
186.557	118.44
186.777	9.9
186.997	57
187.216	-16.73
187.436	18.09
187.655	59.05
187.875	7.85
188.095	65.19
188.314	18.09
188.534	83.63
188.753	28.33
188.973	20.14
189.192	77.48
189.412	-2.39
189.631	26.28
189.851	36.52
190.07	50.86
190.29	50.86
190.509	85.67
190.729	5.8
190.948	87.72
191.168	177.83
191.387	48.81
191.607	36.52
191.826	93.87
192.045	52.91
192.265	46.76
192.484	22.19
192.704	36.52
192.923	44.71
193.142	34.47
193.362	28.33
193.581	52.91
193.8	97.96
194.02	71.34
194.239	22.19
194.458	67.24
194.678	-35.16
194.897	61.1
195.116	34.47
195.335	77.48
195.555	24.23
195.774	24.23
195.993	26.28
196.212	46.76
196.432	85.67
196.651	65.19
196.87	24.23
197.089	57
197.308	-4.44
197.528	30.38
197.747	36.52
197.966	81.58
198.185	116.39
198.404	26.28
198.623	-45.4
198.842	46.76
199.062	69.29
199.281	97.96
199.5	13.99
199.719	75.43
199.938	48.81
200.157	-2.39
200.376	102.06
200.595	13.99
200.814	50.86
201.033	26.28
201.252	108.2
201.471	57
201.69	30.38
201.909	89.77
202.128	36.52
202.347	18.09
202.566	50.86
202.785	112.3
203.004	77.48
203.223	169.64
203.442	42.67
203.661	24.23
203.879	61.1
204.098	79.53
204.317	-24.92
204.536	7.85
204.755	75.43
204.974	118.44
205.193	-20.82
205.411	116.39
205.63	34.47
205.849	46.76
206.068	-10.58
206.287	28.33
206.505	26.28
206.724	97.96
206.943	-0.34
207.162	44.71
207.381	34.47
207.599	106.15
207.818	36.52
208.037	-22.87
208.255	-51.54
208.474	50.86
208.693	1.71
208.911	22.19
209.13	16.04
209.349	102.06
209.567	20.14
209.786	20.14
210.005	36.52
210.223	24.23
210.442	20.14
210.661	65.19
210.879	65.19
211.098	32.43
211.316	-20.82
211.535	63.15
211.753	28.33
211.972	42.67
212.191	38.57
212.409	3.75
212.628	67.24
212.846	85.67
213.065	24.23
213.283	89.77
213.502	32.43
213.72	65.19
213.938	65.19
214.157	18.09
214.375	-14.68
214.594	30.38
214.812	-12.63
215.031	54.95
215.249	5.8
215.467	-24.92
215.686	93.87
215.904	-0.34
216.122	30.38
216.341	77.48
216.559	83.63
216.778	11.95
216.996	93.87
217.214	5.8
217.432	67.24
217.651	28.33
217.869	28.33
218.087	22.19
218.306	65.19
218.524	48.81
218.742	75.43
218.96	79.53
219.179	81.58
219.397	57
219.615	30.38
219.833	-8.53
220.051	-57.68
220.27	85.67
220.488	40.62
220.706	18.09
220.924	30.38
221.142	59.05
221.36	52.91
221.578	126.63
221.796	69.29
222.015	54.95
222.233	42.67
222.451	73.39
222.669	-22.87
222.887	-6.49
223.105	-2.39
223.323	81.58
223.541	36.52
223.759	126.63
223.977	75.43
224.195	-0.34
224.413	106.15
224.631	126.63
224.849	44.71
225.067	11.95
225.285	65.19
225.503	79.53
225.721	-18.77
225.939	-2.39
226.157	65.19
226.375	149.16
226.592	7.85
226.81	38.57
227.028	52.91
227.246	52.91
227.464	71.34
227.682	106.15
227.9	81.58
228.117	83.63
228.335	16.04
228.553	7.85
228.771	30.38
228.989	20.14
229.206	112.3
229.424	-10.58
229.642	5.8
229.86	-43.35
230.077	100.01
230.295	9.9
230.513	65.19
230.731	102.06
230.948	67.24
231.166	32.43
231.384	-18.77
231.601	22.19
231.819	67.24
232.037	30.38
232.254	30.38
232.472	69.29
232.689	3.75
232.907	32.43
233.125	-8.53
233.342	24.23
233.56	91.82
233.777	24.23
233.995	59.05
234.213	79.53
234.43	67.24
234.648	61.1
234.865	30.38
235.083	73.39
235.3	-2.39
235.518	-53.59
235.735	11.95
235.953	116.39
236.17	87.72
236.388	-16.73
236.605	9.9
236.822	34.47
237.04	1.71
237.257	24.23
237.475	-2.39
237.692	63.15
237.909	136.87
238.127	77.48
238.344	-45.4
238.562	-10.58
238.779	22.19
238.996	38.57
239.214	46.76
239.431	54.95
239.648	5.8
239.865	65.19
240.083	16.04
240.3	71.34
240.517	-16.73
240.735	34.47
240.952	108.2
241.169	40.62
241.386	102.06
241.603	16.04
241.821	63.15
242.038	100.01
242.255	73.39
242.472	38.57
242.689	89.77
242.907	36.52
243.124	73.39
243.341	-18.77
243.558	-18.77
243.775	87.72
243.992	32.43
244.209	-10.58
244.426	57
244.643	59.05
244.86	-45.4
245.078	24.23
245.295	26.28
245.512	102.06
245.729	-90.45
245.946	1.71
246.163	30.38
246.38	-10.58
246.597	-26.96
246.814	110.25
247.031	18.09
247.248	44.71
247.464	32.43
247.681	52.91
247.898	24.23
248.115	22.19
248.332	93.87
248.549	54.95
248.766	40.62
248.983	95.91
249.2	30.38
249.417	57
249.633	57
249.85	42.67
250.067	108.2
250.284	91.82
250.501	32.43
250.717	48.81
250.934	-22.87
251.151	5.8
251.368	28.33
251.585	30.38
251.801	36.52
252.018	-4.44
252.235	26.28
252.451	-20.82
252.668	38.57
252.885	28.33
253.102	30.38
253.318	36.52
253.535	11.95
253.752	7.85
253.968	34.47
254.185	38.57
254.401	52.91
254.618	28.33
254.835	46.76
255.051	69.29
255.268	-0.34
255.484	65.19
255.701	65.19
255.917	67.24
256.134	-10.58
256.351	65.19
256.567	13.99
256.784	16.04
257	-8.53
257.217	13.99
257.433	42.67
257.65	124.58
257.866	63.15
258.082	9.9
258.299	57
258.515	18.09
258.732	13.99
258.948	57
259.165	38.57
259.381	-4.44
259.597	9.9
259.814	22.19
260.03	18.09
260.246	81.58
260.463	128.68
260.679	65.19
260.895	61.1
261.112	40.62
261.328	57
261.544	34.47
261.761	5.8
261.977	-26.96
262.193	48.81
262.409	30.38
262.626	122.54
262.842	18.09
263.058	77.48
263.274	36.52
263.49	-0.34
263.707	36.52
263.923	100.01
264.139	-12.63
264.355	46.76
264.571	44.71
264.787	93.87
265.004	38.57
265.22	9.9
265.436	7.85
265.652	59.05
265.868	77.48
266.084	16.04
266.3	42.67
266.516	42.67
266.732	136.87
266.948	46.76
267.164	16.04
267.38	57
267.596	20.14
267.812	104.11
268.028	26.28
268.244	54.95
268.46	42.67
268.676	46.76
268.892	83.63
269.108	85.67
269.324	-35.16
269.54	13.99
269.756	102.06
269.972	42.67
270.188	52.91
270.403	40.62
270.619	28.33
270.835	42.67
271.051	177.83
271.267	34.47
271.483	54.95
271.698	95.91
271.914	46.76
272.13	-18.77
272.346	81.58
272.562	28.33
272.777	128.68
272.993	91.82
273.209	40.62
273.425	77.48
273.64	-16.73
273.856	54.95
274.072	30.38
274.287	32.43
274.503	7.85
274.719	42.67
274.934	18.09
275.15	52.91
275.366	57
275.581	48.81
275.797	44.71
276.012	-31.06
276.228	77.48
276.444	100.01
276.659	38.57
276.875	13.99
277.09	28.33
277.306	157.35
277.521	116.39
277.737	28.33
277.952	5.8
278.168	61.1
278.383	-10.58
278.599	40.62
278.814	44.71
279.03	1.71
279.245	36.52
279.461	63.15
279.676	-10.58
279.892	-4.44
280.107	7.85
280.322	42.67
280.538	44.71
280.753	69.29
280.969	71.34
281.184	30.38
281.399	71.34
281.615	69.29
281.83	52.91
282.045	50.86
282.26	18.09
282.476	67.24
282.691	93.87
282.906	-2.39
283.122	46.76
283.337	57
283.552	93.87
283.767	11.95
283.983	1.71
284.198	65.19
284.413	61.1
284.628	36.52
284.843	93.87
285.058	106.15
285.274	5.8
285.489	22.19
285.704	28.33
285.919	-4.44
286.134	3.75
286.349	-37.2
286.564	7.85
286.779	67.24
286.995	63.15
287.21	11.95
287.425	120.49
287.64	38.57
287.855	1.71
288.07	71.34
288.285	26.28
288.5	9.9
288.715	48.81
288.93	81.58
289.145	-29.01
289.36	114.34
289.575	61.1
289.79	69.29
290.004	42.67
290.219	65.19
290.434	34.47
290.649	16.04
290.864	50.86
291.079	67.24
291.294	11.95
291.509	-14.68
291.724	-6.49
291.938	20.14
292.153	38.57
292.368	46.76
292.583	-0.34
292.798	67.24
293.012	77.48
293.227	42.67
293.442	75.43
293.657	40.62
293.871	91.82
294.086	-10.58
294.301	81.58
294.516	7.85
294.73	79.53
294.945	46.76
295.16	-18.77
295.374	79.53
295.589	59.05
295.804	81.58
296.018	77.48
296.233	30.38
296.447	100.01
296.662	-12.63
296.877	44.71
297.091	69.29
297.306	22.19
297.52	1.71
297.735	114.34
297.949	-20.82
298.164	112.3
298.378	26.28
298.593	44.71
298.807	108.2
299.022	69.29
299.236	34.47
299.451	89.77
299.665	75.43
299.88	28.33
300.094	40.62
300.309	54.95
300.523	11.95
300.737	38.57
300.952	73.39
301.166	50.86
301.381	32.43
301.595	-10.58
301.809	36.52
302.024	40.62
302.238	30.38
302.452	83.63
302.667	-55.64
302.881	-29.01
303.095	34.47
303.309	71.34
303.524	42.67
303.738	36.52
303.952	79.53
304.166	48.81
304.381	24.23
304.595	69.29
304.809	-72.02
305.023	57
305.237	40.62
305.452	91.82
305.666	59.05
305.88	85.67
306.094	42.67
306.308	79.53
306.522	38.57
306.736	38.57
306.95	69.29
307.164	-0.34
307.379	67.24
307.593	85.67
307.807	54.95
308.021	126.63
308.235	73.39
308.449	81.58
308.663	42.67
308.877	40.62
309.091	93.87
309.305	46.76
309.519	-12.63
309.733	97.96
309.947	-24.92
310.161	81.58
310.374	59.05
310.588	71.34
310.802	59.05
311.016	26.28
311.23	38.57
311.444	57
311.658	16.04
311.872	89.77
312.085	46.76
312.299	52.91
312.513	61.1
312.727	57
312.941	52.91
313.154	18.09
313.368	11.95
313.582	32.43
313.796	87.72
314.009	-8.53
314.223	118.44
314.437	89.77
314.651	38.57
314.864	63.15
315.078	32.43
315.292	-14.68
315.505	-29.01
315.719	26.28
315.933	-2.39
316.146	59.05
316.36	30.38
316.573	42.67
316.787	83.63
317.001	7.85
317.214	114.34
317.428	26.28
317.641	57
317.855	46.76
318.068	-10.58
318.282	46.76
318.495	-18.77
318.709	46.76
318.922	81.58
319.136	24.23
319.349	48.81
319.563	40.62
319.776	59.05
319.99	-6.49
320.203	110.25
320.417	104.11
320.63	100.01
320.843	118.44
321.057	79.53
321.27	81.58
321.483	22.19
321.697	63.15
321.91	81.58
322.124	63.15
322.337	11.95
322.55	63.15
322.763	18.09
322.977	44.71
323.19	75.43
323.403	30.38
323.617	65.19
323.83	40.62
324.043	77.48
324.256	52.91
324.469	114.34
324.683	95.91
324.896	36.52
325.109	124.58
325.322	46.76
325.535	52.91
325.748	71.34
325.962	-20.82
326.175	-10.58
326.388	22.19
326.601	73.39
326.814	75.43
327.027	-22.87
327.24	77.48
327.453	-2.39
327.666	-6.49
327.879	81.58
328.092	106.15
328.305	83.63
328.518	-20.82
328.731	20.14
328.944	28.33
329.157	73.39
329.37	48.81
329.583	91.82
329.796	57
330.009	13.99
330.222	75.43
330.435	67.24
330.648	61.1
330.861	-6.49
331.073	65.19
331.286	63.15
331.499	38.57
331.712	50.86
331.925	108.2
332.138	65.19
332.35	81.58
332.563	-8.53
332.776	114.34
332.989	13.99
333.202	59.05
333.414	34.47
333.627	50.86
333.84	-2.39
334.053	1.71
334.265	22.19
334.478	52.91
334.691	38.57
334.903	67.24
335.116	22.19
335.329	22.19
335.541	65.19
335.754	52.91
335.966	22.19
336.179	48.81
336.392	42.67
336.604	81.58
336.817	67.24
337.029	122.54
337.242	40.62
337.454	57
337.667	110.25
337.88	38.57
338.092	50.86
338.305	73.39
338.517	38.57
338.729	30.38
338.942	87.72
339.154	48.81
339.367	-63.83
339.579	38.57
339.792	20.14
340.004	36.52
340.217	-31.06
340.429	85.67
340.641	24.23
340.854	38.57
341.066	18.09
341.278	50.86
341.491	65.19
341.703	87.72
341.915	20.14
342.128	-2.39
342.34	65.19
342.552	102.06
342.764	36.52
342.977	81.58
343.189	106.15
343.401	13.99
343.613	-20.82
343.826	81.58
344.038	13.99
344.25	134.82
344.462	-14.68
344.674	136.87
344.886	91.82
345.099	57
345.311	18.09
345.523	11.95
345.735	77.48
345.947	67.24
346.159	34.47
346.371	63.15
346.583	87.72
346.795	61.1
347.007	40.62
347.219	61.1
347.431	130.73
347.643	38.57
347.855	54.95
348.067	75.43
348.279	136.87
348.491	81.58
348.703	120.49
348.915	48.81
349.127	73.39
349.339	61.1
349.551	52.91
349.763	120.49
349.975	57
350.187	83.63
350.399	50.86
350.61	-20.82
350.822	57
351.034	93.87
351.246	-12.63
351.458	38.57
351.669	102.06
351.881	151.21
352.093	36.52
352.305	85.67
352.517	83.63
352.728	93.87
352.94	67.24
353.152	16.04
353.363	16.04
353.575	89.77
353.787	59.05
353.999	63.15
354.21	67.24
354.422	93.87
354.633	73.39
354.845	63.15
355.057	22.19
355.268	20.14
355.48	71.34
355.692	52.91
355.903	95.91
356.115	20.14
356.326	54.95
356.538	50.86
356.749	122.54
356.961	108.2
357.172	38.57
357.384	38.57
357.595	46.76
357.807	40.62
358.018	32.43
358.23	-14.68
358.441	83.63
358.653	65.19
358.864	106.15
359.075	97.96
359.287	30.38
359.498	28.33
359.709	38.57
359.921	71.34
360.132	75.43
360.344	7.85
360.555	59.05
360.766	57
360.977	34.47
361.189	50.86
361.4	50.86
361.611	106.15
361.823	124.58
362.034	67.24
362.245	32.43
362.456	32.43
362.667	59.05
362.879	89.77
363.09	75.43
363.301	79.53
363.512	7.85
363.723	97.96
363.935	38.57
364.146	130.73
364.357	32.43
364.568	93.87
364.779	24.23
364.99	79.53
365.201	18.09
365.412	28.33
365.623	24.23
365.834	104.11
366.045	73.39
366.256	106.15
366.467	171.69
366.678	71.34
366.889	93.87
367.1	40.62
367.311	30.38
367.522	81.58
367.733	24.23
367.944	79.53
368.155	32.43
368.366	108.2
368.577	42.67
368.788	91.82
368.999	24.23
369.209	22.19
369.42	102.06
369.631	159.4
369.842	44.71
370.053	108.2
370.264	69.29
370.474	61.1
370.685	57
370.896	16.04
371.107	71.34
371.317	69.29
371.528	40.62
371.739	20.14
371.95	95.91
372.16	153.26
372.371	-10.58
372.582	-6.49
372.792	18.09
373.003	52.91
373.214	63.15
373.424	122.54
373.635	22.19
373.846	122.54
374.056	24.23
374.267	112.3
374.477	130.73
374.688	91.82
374.898	24.23
375.109	13.99
375.319	50.86
375.53	9.9
375.74	73.39
375.951	93.87
376.161	73.39
376.372	28.33
376.582	75.43
376.793	-6.49
377.003	46.76
377.214	38.57
377.424	42.67
377.635	71.34
377.845	81.58
378.055	87.72
378.266	32.43
378.476	65.19
378.686	54.95
378.897	32.43
379.107	83.63
379.317	114.34
379.528	7.85
379.738	38.57
379.948	38.57
380.158	89.77
380.369	34.47
380.579	13.99
380.789	59.05
380.999	79.53
381.21	26.28
381.42	140.97
381.63	52.91
381.84	32.43
382.05	44.71
382.261	65.19
382.471	147.11
382.681	7.85
382.891	52.91
383.101	40.62
383.311	18.09
383.521	52.91
383.731	122.54
383.941	48.81
384.151	50.86
384.361	79.53
384.571	-35.16
384.781	63.15
384.991	-6.49
385.201	75.43
385.411	83.63
385.621	87.72
385.831	18.09
386.041	34.47
386.251	95.91
386.461	89.77
386.671	108.2
386.881	118.44
387.091	34.47
387.301	138.92
387.511	87.72
387.72	120.49
387.93	63.15
388.14	7.85
388.35	130.73
388.56	75.43
388.769	97.96
388.979	108.2
389.189	16.04
389.399	69.29
389.609	91.82
389.818	112.3
390.028	106.15
390.238	79.53
390.447	32.43
390.657	61.1
390.867	81.58
391.076	71.34
391.286	59.05
391.496	85.67
391.705	75.43
391.915	65.19
392.125	140.97
392.334	132.78
392.544	112.3
392.753	157.35
392.963	24.23
393.172	13.99
393.382	54.95
393.591	110.25
393.801	87.72
394.01	93.87
394.22	89.77
394.429	85.67
394.639	93.87
394.848	42.67
395.058	145.06
395.267	13.99
395.477	104.11
395.686	122.54
395.895	100.01
396.105	143.02
396.314	130.73
396.524	93.87
396.733	126.63
396.942	73.39
397.152	57
397.361	126.63
397.57	89.77
397.78	81.58
397.989	97.96
398.198	108.2
398.407	57
398.617	57
398.826	67.24
399.035	79.53
399.244	167.59
399.453	85.67
399.663	59.05
399.872	79.53
400.081	91.82
400.29	126.63
400.499	143.02
400.708	77.48
400.917	147.11
401.127	147.11
401.336	79.53
401.545	224.94
401.754	149.16
401.963	104.11
402.172	79.53
402.381	106.15
402.59	151.21
402.799	147.11
403.008	147.11
403.217	165.54
403.426	122.54
403.635	112.3
403.844	165.54
404.053	124.58
404.262	102.06
404.471	206.5
404.68	75.43
404.888	130.73
405.097	188.07
405.306	179.88
405.515	134.82
405.724	155.3
405.933	169.64
406.142	143.02
406.35	198.31
406.559	102.06
406.768	196.26
406.977	231.08
407.185	198.31
407.394	186.02
407.603	167.59
407.812	190.12
408.02	202.41
408.229	169.64
408.438	237.22
408.646	212.65
408.855	229.03
409.064	257.7
409.272	188.07
409.481	343.72
409.69	202.41
409.898	296.61
410.107	335.53
410.315	321.19
410.524	304.81
410.733	378.53
410.941	280.23
411.15	345.77
411.358	388.77
411.567	370.34
411.775	331.43
411.984	368.29
412.192	435.88
412.401	417.44
412.609	446.12
412.818	423.59
413.026	403.11
413.234	548.51
413.443	511.65
413.651	521.89
413.86	521.89
414.068	556.71
414.276	593.57
414.485	568.99
414.693	552.61
414.901	554.66
415.11	704.16
415.318	618.15
415.526	640.67
415.734	747.17
415.943	663.2
416.151	761.5
416.359	738.98
416.567	784.03
416.776	777.89
416.984	933.53
417.192	870.05
417.4	945.82
417.608	896.67
417.817	943.77
418.025	1003.16
418.233	1136.28
418.441	1109.66
418.649	1035.93
418.857	1177.24
419.065	1123.99
419.273	1226.39
419.481	1265.3
419.689	1341.08
419.897	1459.86
420.105	1425.04
420.313	1394.33
420.521	1461.91
420.729	1572.5
420.937	1592.98
421.145	1490.58
421.353	1631.89
421.561	1773.2
421.769	1797.78
421.977	1855.12
422.185	1918.61
422.393	1943.18
422.601	2129.55
422.809	2045.58
423.017	2111.11
423.224	2141.83
423.432	2256.52
423.64	2326.15
423.848	2557.57
424.056	2502.28
424.263	2543.24
424.471	2524.8
424.679	2762.37
424.887	2737.79
425.094	2983.55
425.302	2997.88
425.51	2997.88
425.718	3253.88
425.925	3147.39
426.133	3155.58
426.341	3374.71
426.548	3448.44
426.756	3538.55
426.964	3683.95
427.171	3692.15
427.379	3999.34
427.586	4054.64
427.794	4130.41
428.001	4339.3
428.209	4480.61
428.417	4388.46
428.624	4716.13
428.832	4836.96
429.039	4705.89
429.247	4783.71
429.454	5262.94
429.662	5508.69
429.869	5189.21
430.076	5619.28
430.284	5420.63
430.491	5662.29
430.699	5989.97
430.906	5965.39
431.114	5916.24
431.321	6258.25
431.528	6424.14
431.736	6520.39
431.943	7237.18
432.15	6895.17
432.358	6903.36
432.565	7448.12
432.772	7341.63
432.979	7607.86
433.187	7855.67
433.394	7996.98
433.601	8355.37
433.808	8347.18
434.016	8295.98
434.223	8762.92
434.43	9209.37
434.637	9100.83
434.844	9670.17
435.052	9838.1
435.259	9778.71
435.466	9881.11
435.673	9750.04
435.88	10378.76
436.087	10946.05
436.294	10984.96
436.501	10671.62
436.708	10917.38
436.915	11361.79
437.122	11765.24
437.329	11941.36
437.537	12090.87
437.743	12609
437.95	12256.75
438.157	13012.45
438.364	13227.49
438.571	13317.6
438.778	13264.35
438.985	14593.48
439.192	14065.11
439.399	14511.57
439.606	14374.35
439.813	14923.21
440.02	15760.83
440.227	15693.24
440.433	15412.67
440.64	16020.92
440.847	15889.85
441.054	16434.61
441.261	17450.4
441.467	17190.31
441.674	17450.4
441.881	18220.44
442.088	18132.37
442.294	18148.76
442.501	18509.2
442.708	18834.83
442.914	19342.72
443.121	20331.89
443.328	19684.73
443.534	21257.57
443.741	20780.4
443.948	20465.01
444.154	21785.95
444.361	21706.08
444.568	21728.61
444.774	21777.76
444.981	22396.24
445.187	22902.09
445.394	23762.24
445.6	23471.43
445.807	25781.54
446.013	24730.93
446.22	25054.51
446.426	26125.6
446.633	26273.05
446.839	27079.95
447.046	26352.92
447.252	27649.28
447.459	27385.1
447.665	27567.37
447.871	28523.77
448.078	30022.88
448.284	28394.75
448.491	29056.24
448.697	30295.26
448.903	30848.21
449.11	31151.31
449.316	30790.87
449.522	30940.37
449.728	32115.9
449.935	32490.68
450.141	32394.43
450.347	33127.6
450.553	31646.92
450.76	32050.37
450.966	33406.12
451.172	32720.06
451.378	33791.14
451.584	33191.09
451.791	34098.34
451.997	34026.66
452.203	34659.48
452.409	34663.58
452.615	34761.88
452.821	33141.94
453.027	32732.34
453.233	34503.84
453.44	33066.16
453.646	33643.69
453.852	34061.47
454.058	34102.43
454.264	33143.98
454.47	33842.34
454.676	32912.56
454.882	34413.73
455.088	31345.87
455.294	31943.88
455.5	32316.61
455.705	32437.44
455.911	31231.18
456.117	30981.33
456.323	30610.65
456.529	28591.35
456.735	29906.15
456.941	29277.42
457.147	28669.17
457.352	27870.47
457.558	27575.56
457.764	27692.29
457.97	27041.04
458.176	26416.41
458.381	26508.57
458.587	25249.07
458.793	24988.97
458.999	23786.82
459.204	25335.08
459.41	24935.73
459.616	23334.21
459.821	23129.42
460.027	23035.21
460.233	22429.01
460.438	21869.92
460.644	22080.86
460.85	20964.71
461.055	20649.33
461.261	20538.74
461.466	18984.33
461.672	18318.74
461.878	19608.96
462.083	18376.08
462.289	18087.32
462.494	17872.28
462.7	17218.98
462.905	16575.92
463.111	17128.87
463.316	17280.42
463.522	16919.98
463.727	17139.11
463.932	17001.9
464.138	16526.77
464.343	16690.6
464.549	16221.62
464.754	16844.2
464.959	16623.02
465.165	16688.56
465.37	16022.97
465.575	15603.13
465.781	16025.01
465.986	16188.85
466.191	15564.22
466.397	15416.77
466.602	14382.54
466.807	15099.33
467.012	15005.13
467.218	15117.76
467.423	14833.1
467.628	14941.64
467.833	15551.93
468.038	15089.09
468.244	14472.65
468.449	15085
468.654	14732.75
468.859	14570.96
469.064	14380.5
469.269	13891.03
469.474	14151.12
469.679	14237.14
469.885	13913.56
470.09	13929.94
470.295	13977.05
470.5	13508.06
470.705	13704.67
470.91	13317.6
471.115	13444.57
471.32	13749.72
471.525	13233.63
471.73	12914.15
471.935	12932.58
472.139	12883.43
472.344	12557.8
472.549	12709.35
472.754	12750.31
472.959	12340.72
473.164	12076.53
473.369	11755
473.574	12432.88
473.778	12432.88
473.983	12213.74
474.188	11881.97
474.393	11529.72
474.598	11435.52
474.802	11326.97
475.007	11148.8
475.212	11380.22
475.417	10939.91
475.621	10866.18
475.826	11046.4
476.031	10857.99
476.235	10710.54
476.44	10855.94
476.645	10685.96
476.849	10614.28
477.054	10468.87
477.259	10305.04
477.463	10446.35
477.668	10036.75
477.872	10225.17
478.077	10057.23
478.282	9702.93
478.486	9580.06
478.691	9518.62
478.895	9612.82
479.1	9461.27
479.304	9401.88
479.509	9367.07
479.713	9426.46
479.918	9192.99
480.122	8939.04
480.326	9076.26
480.531	9299.48
480.735	9143.84
480.94	9061.92
481.144	9188.89
481.348	8867.36
481.553	8814.12
481.757	8850.98
481.961	8830.5
482.166	9074.21
482.37	8963.62
482.574	8930.85
482.778	8791.59
482.983	9197.09
483.187	8810.02
483.391	8975.91
483.595	8709.67
483.8	8775.2
484.004	8871.46
484.208	8926.75
484.412	8797.73
484.616	8861.22
484.821	8691.24
485.025	8627.75
485.229	8799.78
485.433	8760.87
485.637	8820.26
485.841	8543.78
486.045	8865.32
486.249	8568.36
486.453	8728.1
486.657	8961.57
486.861	8746.53
487.065	8687.14
487.269	8826.4
487.473	8664.61
487.677	8842.79
487.881	9018.91
488.085	8896.03
488.289	8867.36
488.493	8767.01
488.697	8977.95
488.901	8850.98
489.105	8941.09
489.309	8900.13
489.512	8844.84
489.716	8955.43
489.92	9072.16
490.124	8855.08
490.328	9070.11
490.531	8994.34
490.735	9084.45
490.939	8953.38
491.143	9057.82
491.346	9020.96
491.55	9135.65
491.754	9139.74
491.958	9391.64
492.161	9141.79
492.365	9418.27
492.569	9395.74
492.772	9346.59
492.976	9322.01
493.18	9455.13
493.383	9514.52
493.587	9561.62
493.79	9670.17
493.994	9606.68
494.197	9653.78
494.401	9848.34
494.605	9586.2
494.808	9993.75
495.012	9946.64
495.215	9770.52
495.419	10022.42
495.622	10171.92
495.825	10223.12
496.029	10376.72
496.232	10382.86
496.436	10497.55
496.639	10767.88
496.843	10612.23
497.046	10843.65
497.249	11040.26
497.453	10946.05
497.656	11111.94
497.859	11070.98
498.063	11281.92
498.266	11460.09
498.469	11447.8
498.673	11548.15
498.876	11750.9
499.079	11638.27
499.282	11845.11
499.485	12084.72
499.689	12056.05
499.892	12344.81
500.095	12209.65
500.298	12516.84
500.501	12387.82
500.705	12865
500.908	13096.42
501.111	13032.93
501.314	13170.15
501.517	13546.97
501.72	13688.28
501.923	13407.71
502.126	13845.98
502.329	14114.26
502.532	14282.19
502.735	14155.22
502.938	14486.99
503.141	14417.36
503.344	14558.67
503.547	14568.91
503.75	14929.35
503.953	15201.73
504.156	15381.95
504.359	15500.73
504.562	15629.76
504.765	15691.2
504.968	16031.16
505.17	16115.12
505.373	16371.12
505.576	16526.77
505.779	16582.06
505.982	16661.93
506.185	16995.75
506.387	17087.91
506.59	17325.47
506.793	17806.75
506.996	17503.65
507.198	17956.25
507.401	17587.61
507.604	18412.95
507.807	18730.38
508.009	18812.3
508.212	18810.25
508.415	18992.52
508.617	19250.56
508.82	19436.93
509.022	19266.95
509.225	19711.36
509.428	19893.63
509.63	20262.26
509.833	20209.01
510.035	20870.51
510.238	20477.3
510.44	20653.42
510.643	21276.01
510.845	21464.42
511.048	21372.26
511.25	21601.63
511.453	21693.79
511.655	22363.48
511.858	22082.91
512.06	22517.08
512.262	22750.54
512.465	22650.19
512.667	23098.7
512.87	23377.22
513.072	23266.63
513.274	23698.75
513.477	23881.02
513.679	24149.31
513.881	24554.8
514.084	24612.15
514.286	24632.63
514.488	24732.98
514.69	25412.9
514.893	25525.54
515.095	25638.18
515.297	25691.43
515.499	25959.71
515.701	26340.63
515.904	26453.27
516.106	26615.06
516.308	26637.59
516.51	27294.99
516.712	27127.05
516.914	27436.3
517.116	27843.84
517.318	28235
517.52	27946.24
517.722	28611.83
517.925	28579.06
518.127	29054.19
518.329	29175.02
518.531	29074.67
518.733	29297.9
518.935	30192.86
519.136	29625.57
519.338	30268.64
519.54	30426.33
519.742	30311.64
519.944	30758.1
520.146	31229.13
520.348	31483.08
520.55	31642.82
520.752	31429.84
520.954	32437.44
521.155	32031.94
521.357	32664.76
521.559	32230.59
521.761	32869.56
521.963	32908.47
522.164	33072.31
522.366	33146.03
522.568	33494.19
522.77	33627.31
522.971	34317.47
523.173	33961.12
523.375	34284.7
523.576	34258.08
523.778	34469.02
523.98	34862.23
524.181	35261.58
524.383	34806.94
524.584	35415.18
524.786	35730.57
524.988	35388.56
525.189	35810.44
525.391	36119.68
525.592	36418.69
525.794	36377.73
525.995	36287.62
526.197	36555.9
526.398	36355.2
526.6	36707.45
526.801	37086.32
527.003	37399.66
527.204	37039.22
527.406	37870.7
527.607	37248.11
527.808	37825.64
528.01	37033.08
528.211	37762.15
528.412	38206.56
528.614	37727.34
528.815	37751.91
529.016	38542.43
529.218	38173.8
529.419	38173.8
529.62	38218.85
529.822	37934.18
530.023	38286.43
530.224	38421.6
530.425	38511.71
530.626	38155.36
530.828	38458.46
531.029	39158.87
531.23	38341.73
531.431	38708.32
531.632	38771.8
531.833	38761.56
532.035	38861.91
532.236	39523.41
532.437	39218.26
532.638	38943.83
532.839	39283.8
533.04	39418.96
533.241	38997.08
533.442	39601.23
533.643	39689.29
533.844	39291.99
534.045	39165.01
534.246	39099.48
534.447	39433.3
534.648	39101.53
534.849	39545.94
535.05	39187.54
535.251	39625.81
535.451	39128.15
535.652	39500.88
535.853	39238.74
536.054	39447.63
536.255	39486.54
536.456	39019.61
536.657	39488.59
536.857	39117.91
537.058	39451.73
537.259	39695.44
537.46	39453.78
537.66	39177.3
537.861	39353.43
538.062	39533.65
538.263	39623.76
538.463	39228.5
538.664	39382.1
538.865	39574.61
539.065	39842.89
539.266	39201.88
539.466	39607.37
539.667	38888.54
539.868	39627.85
540.068	39261.27
540.269	39412.82
540.469	39578.7
540.67	39083.09
540.87	39517.26
541.071	39332.95
541.271	39513.17
541.472	39711.82
541.672	39416.91
541.873	39365.71
542.073	39056.47
542.274	39660.62
542.474	38943.83
542.675	39113.81
542.875	39619.66
543.075	39199.83
543.276	38812.76
543.476	39679.05
543.676	38880.35
543.877	39212.12
544.077	39343.19
544.277	38982.74
544.478	39083.09
544.678	39525.46
544.878	39091.29
545.078	39138.39
545.279	38892.63
545.479	39081.05
545.679	39427.15
545.879	39152.73
546.079	39339.09
546.28	39351.38
546.48	38909.02
546.68	38816.86
546.88	39394.39
547.08	39124.05
547.28	38771.8
547.48	38612.06
547.68	39341.14
547.88	38661.21
548.081	38743.13
548.281	39005.27
548.481	38761.56
548.681	39609.42
548.881	39279.7
549.081	38997.08
549.28	38849.63
549.48	39226.45
549.68	38954.07
549.88	39326.8
550.08	38732.89
550.28	38962.26
550.48	38802.52
550.68	39269.46
550.88	38886.49
551.08	38917.21
551.279	39091.29
551.479	38644.83
551.679	38995.03
551.879	38638.69
552.079	39119.96
552.278	38280.29
552.478	38988.89
552.678	38634.59
552.878	38839.39
553.077	38661.21
553.277	38569.05
553.477	38855.77
553.676	38192.23
553.876	38949.98
554.076	38874.2
554.275	38665.31
554.475	37940.33
554.674	38421.6
554.874	38458.46
555.074	37985.38
555.273	38659.16
555.473	38685.79
555.672	38394.98
555.872	38349.92
556.071	38763.61
556.271	38767.71
556.47	38192.23
556.67	38288.48
556.869	38304.87
557.068	38542.43
557.268	38540.38
557.467	38679.64
557.667	38095.97
557.866	38345.83
558.065	38247.52
558.265	38161.51
558.464	38149.22
558.663	38077.54
558.863	37479.53
559.062	38458.46
559.261	37651.56
559.461	38343.78
559.66	37829.74
559.859	38005.86
560.058	37975.14
560.258	37770.35
560.457	37495.92
560.656	37942.38
560.855	38100.07
561.054	37596.27
561.253	37504.11
561.453	37248.11
561.652	37776.49
561.851	37475.44
562.05	37221.49
562.249	36998.26
562.448	37676.14
562.647	37207.15
562.846	37244.02
563.045	37297.27
563.244	36672.64
563.443	37368.94
563.642	36580.48
563.841	37106.8
564.04	36459.65
564.239	37158
564.438	36883.58
564.637	37145.72
564.836	36906.1
565.035	36291.71
565.234	36584.57
565.432	36643.96
565.631	36158.59
565.83	36179.07
566.029	36361.34
566.228	36269.19
566.427	36242.56
566.625	36019.33
566.824	35908.74
567.023	36140.16
567.222	35568.78
567.42	35949.7
567.619	35961.99
567.818	35994.76
568.016	35581.07
568.215	35812.49
568.414	35730.57
568.612	36123.78
568.811	35587.21
569.01	35689.61
569.208	35255.44
569.407	35558.54
569.605	35402.89
569.804	35304.59
570.002	34882.71
570.201	34884.76
570.4	35161.23
570.598	35044.5
570.797	35001.49
570.995	34886.81
571.193	34657.43
571.392	34897.05
571.59	34450.59
571.789	34720.92
571.987	34489.5
572.186	34356.38
572.384	34288.8
572.582	34454.68
572.781	34552.99
572.979	33881.25
573.177	34020.52
573.376	34249.89
573.574	33690.79
573.772	33967.27
573.971	33903.78
574.169	34000.04
574.367	33623.21
574.565	33813.67
574.763	33647.79
574.962	33588.39
575.16	33109.17
575.358	33461.42
575.556	33270.96
575.754	33430.7
575.952	33340.59
576.151	33492.14
576.349	32957.62
576.547	33172.66
576.745	32963.76
576.943	32894.13
577.141	32933.04
577.339	33178.8
577.537	32867.51
577.735	32627.9
577.933	32472.25
578.131	32300.22
578.329	31931.59
578.527	32392.38
578.725	32246.97
578.923	32459.96
579.121	32138.43
579.319	32076.99
579.516	32492.73
579.714	31798.47
579.912	31882.44
580.11	31532.23
580.308	31880.39
580.506	31603.91
580.704	31466.7
580.901	31708.36
581.099	31562.95
581.297	31454.41
581.495	31257.81
581.692	31204.56
581.89	31464.65
582.088	31231.18
582.285	31061.2
582.483	31521.99
582.681	30897.36
582.878	30807.25
583.076	30381.28
583.274	31108.3
583.471	30731.48
583.669	30612.7
583.866	30250.21
584.064	30469.34
584.262	30088.42
584.459	30295.26
584.657	30080.22
584.854	30207.2
585.052	30049.5
585.249	30188.77
585.447	30524.63
585.644	29392.11
585.841	29922.53
586.039	29795.56
586.236	29330.67
586.434	29324.52
586.631	29570.28
586.828	29553.9
587.026	29646.05
587.223	29461.74
587.42	29138.16
587.618	29226.22
587.815	28794.1
588.012	28955.89
588.21	28902.64
588.407	29029.62
588.604	28726.52
588.801	28708.08
588.999	28769.52
589.196	28837.11
589.393	28538.1
589.59	28288.25
589.787	28441.85
589.984	28359.93
590.182	28298.49
590.379	28271.87
590.576	28112.13
590.773	27780.35
590.97	28146.94
591.167	28095.74
591.364	27512.07
591.561	27686.15
591.758	27368.71
591.955	27622.66
592.152	27739.4
592.349	27436.3
592.546	27178.25
592.743	27403.53
592.94	26942.74
593.137	27135.24
593.334	27378.95
593.531	26948.88
593.727	27284.75
593.924	27229.45
594.121	26768.66
594.318	26819.86
594.515	26557.72
594.712	27065.61
594.908	26662.16
595.105	26647.83
595.302	26266.91
595.499	26483.99
595.696	25857.31
595.892	26066.2
596.089	26400.02
596.286	26127.64
596.482	26184.99
596.679	26072.35
596.876	26283.29
597.072	25685.28
597.269	25910.56
597.466	25509.16
597.662	25478.44
597.859	25398.57
598.055	25433.38
598.252	25193.77
598.448	25400.62
598.645	25093.42
598.841	25103.66
599.038	25079.08
599.234	24835.38
599.431	24775.98
599.627	24671.54
599.824	24902.96
600.02	24775.98
600.217	24544.56
600.413	24290.62
600.609	24442.17
600.806	24311.1
601.002	24708.4
601.198	24325.43
601.395	24329.53
601.591	24130.87
601.787	24143.16
601.984	24157.5
602.18	24210.75
602.376	23827.78
602.572	23807.3
602.769	23749.95
602.965	23477.57
603.161	23883.07
603.357	23461.19
603.553	23864.64
603.75	23573.83
603.946	23522.63
604.142	23127.37
604.338	23037.26
604.534	23387.46
604.73	22859.09
604.926	23104.84
605.122	23055.69
605.318	22816.08
605.514	22871.37
605.71	22748.5
605.906	22836.56
606.102	22824.27
606.298	22472.02
606.494	22656.34
606.69	22383.96
606.886	22482.26
607.082	22267.22
607.278	22527.31
607.474	22158.68
607.67	22414.68
607.866	22152.54
608.062	22439.25
608.257	22291.8
608.453	22449.49
608.649	22332.76
608.845	21917.02
609.041	21945.69
609.236	22216.02
609.432	21970.27
609.628	21785.95
609.824	21843.29
610.019	21630.3
610.215	22043.99
610.411	21673.31
610.606	21491.04
610.802	21734.75
610.998	21757.28
611.193	21761.37
611.389	21634.4
611.584	21568.87
611.78	21063.02
611.976	21591.39
612.171	21499.23
612.367	21806.43
612.562	21486.95
612.758	21077.35
612.953	21069.16
613.149	21390.69
613.344	20958.57
613.539	21417.32
613.735	21093.74
613.93	21120.36
614.126	20936.04
614.321	20977
614.517	21353.83
614.712	21026.15
614.907	21132.65
615.103	21001.58
615.298	20868.46
615.493	20866.41
615.688	20534.64
615.884	20972.91
616.079	20530.55
616.274	20729.2
616.47	20446.58
616.665	20401.52
616.86	20290.93
617.055	20340.08
617.25	20524.4
617.445	20647.28
617.641	20358.52
617.836	20469.11
618.031	20327.8
618.226	20534.64
618.421	20184.44
618.616	20209.01
618.811	19557.76
619.006	20008.31
619.201	19572.1
619.396	19678.59
619.591	19707.26
619.786	19953.02
619.981	19443.07
620.176	19549.57
620.371	19305.86
620.566	19357.06
620.761	19314.05
620.956	19574.14
621.151	19180.93
621.346	19234.18
621.541	18924.94
621.735	18902.41
621.93	18703.76
622.125	19031.43
622.32	18369.94
622.515	18789.77
622.709	18632.08
622.904	18238.87
623.099	18546.06
623.294	18607.5
623.488	18185.62
623.683	18210.2
623.878	17794.46
624.072	18212.24
624.267	17870.23
624.462	17739.16
624.656	17759.64
624.851	17737.12
625.046	17386.91
625.24	17366.43
625.435	17331.62
625.629	17180.07
625.824	17094.05
626.018	17049
626.213	16936.36
626.407	16942.5
626.602	16485.81
626.796	16647.6
626.991	16645.55
627.185	16344.5
627.38	16123.32
627.574	16539.05
627.768	16045.49
627.963	16205.24
628.157	16063.93
628.352	15822.27
628.546	15840.7
628.74	16057.78
628.935	15705.53
629.129	15744.44
629.323	15545.79
629.517	15416.77
629.712	15316.42
629.906	15097.28
630.1	15291.84
630.294	15295.94
630.489	15085
630.683	15154.63
630.877	14755.27
631.071	14767.56
631.265	15037.89
631.459	14566.86
631.653	14609.87
631.848	14591.44
632.042	14644.68
632.236	14509.52
632.43	14427.6
632.624	14341.58
632.818	13972.95
633.012	14065.11
633.206	13940.18
633.4	13993.43
633.594	13827.54
633.788	14058.96
633.982	13706.71
634.176	13680.09
634.369	13809.11
634.563	13571.55
634.757	13456.86
634.951	13514.2
635.145	13557.21
635.339	13266.4
635.533	13055.46
635.726	13254.11
635.92	12965.35
636.114	13186.53
636.308	12957.16
636.501	13241.82
636.695	13008.36
636.889	12801.51
637.083	12951.01
637.276	12537.32
637.47	12584.43
637.664	12576.23
637.857	12492.27
638.051	12707.3
638.244	12217.84
638.438	12393.97
638.632	12209.65
638.825	12305.9
639.019	12051.95
639.212	12084.72
639.406	12123.63
639.599	12080.63
639.793	11881.97
639.986	11673.08
640.18	11701.75
640.373	11636.22
640.567	11650.55
640.76	11263.49
640.954	11535.87
641.147	11539.96
641.34	11343.36
641.534	11431.42
641.727	11339.26
641.92	11300.35
642.114	11185.66
642.307	11056.64
642.5	11019.78
642.694	11042.31
642.887	10786.31
643.08	11156.99
643.273	10860.04
643.467	10653.19
643.66	10825.22
643.853	10790.41
644.046	10749.45
644.239	10733.06
644.432	10444.3
644.626	10511.88
644.819	10364.43
645.012	10384.91
645.205	10583.56
645.398	10346
645.591	10286.61
645.784	10210.83
645.977	10018.32
646.17	10272.27
646.363	9991.7
646.556	9813.52
646.749	10116.62
646.942	9834
647.135	9756.18
647.328	9827.86
647.521	9715.22
647.714	9416.22
647.907	9444.89
648.099	9715.22
648.292	9606.68
648.485	9563.67
648.678	9268.77
648.871	9289.24
649.064	9332.25
649.256	9342.49
649.449	9297.44
649.642	8932.9
649.835	9264.67
650.027	9233.95
650.22	9121.31
650.413	8980
650.605	8971.81
650.798	9004.58
650.991	8875.56
651.183	8986.15
651.376	8601.13
651.568	8818.21
651.761	8537.64
651.954	8633.89
652.146	8584.74
652.339	8658.47
652.531	8531.5
652.724	8613.42
652.916	8236.59
653.109	8398.38
653.301	8375.85
653.494	8412.71
653.686	8185.39
653.879	8310.32
654.071	8191.53
654.263	8078.9
654.456	8134.19
654.648	8152.62
654.84	7892.53
655.033	8128.05
655.225	7923.25
655.417	7906.87
655.61	7951.92
655.802	7913.01
655.994	7843.38
656.186	7974.45
656.379	7595.57
656.571	7704.12
656.763	7460.41
656.955	7736.88
657.148	7794.23
657.34	7401.02
657.532	7366.2
657.724	7482.94
657.916	7382.59
658.108	7306.81
658.3	7214.65
658.492	7331.39
658.684	7128.64
658.876	7081.53
659.068	7237.18
659.26	7032.38
659.452	7163.45
659.644	7016
659.836	7028.29
660.028	7112.25
660.22	6962.75
660.412	6913.6
660.604	6790.72
660.796	6833.73
660.988	6829.63
661.18	6772.29
661.372	6549.06
661.563	6938.18
661.755	6600.26
661.947	6600.26
662.139	6559.3
662.331	6434.38
662.522	6540.87
662.714	6710.85
662.906	6393.42
663.097	6547.01
663.289	6170.19
663.481	6399.56
663.673	6452.81
663.864	6426.18
664.056	6336.07
664.247	6286.92
664.439	6217.29
664.631	6170.19
664.822	6241.87
665.014	6131.28
665.205	6080.08
665.397	6018.64
665.588	6157.9
665.78	6104.65
665.971	6080.08
666.163	5965.39
666.354	5932.62
666.546	5895.76
666.737	5838.42
666.929	5992.02
667.12	5910.1
667.311	5826.13
667.503	5703.25
667.694	5731.92
667.885	5758.55
668.077	5705.3
668.268	5697.11
668.459	5617.24
668.651	5592.66
668.842	5572.18
669.033	5477.98
669.224	5666.39
669.416	5617.24
669.607	5553.75
669.798	5477.98
669.989	5467.74
670.18	5508.69
670.371	5432.92
670.563	5320.28
670.754	5498.45
670.945	5461.59
671.136	5504.6
671.327	5213.79
671.518	5228.12
671.709	5275.23
671.9	5449.3
672.091	5322.33
672.282	5305.95
672.473	5072.48
672.664	5097.05
672.855	5068.38
673.046	5189.21
673.237	5236.31
673.428	5097.05
673.619	5213.79
673.809	5086.81
674	5115.48
674.191	4906.59
674.382	4918.88
674.573	5006.94
674.764	4974.17
674.954	4970.08
675.145	4882.02
675.336	5095
675.527	4931.17
675.717	4812.39
675.908	4693.6
676.099	4677.22
676.289	4865.63
676.48	4822.63
676.671	4791.91
676.861	4861.54
677.052	4765.28
677.243	4640.36
677.433	4836.96
677.624	4796
677.814	4679.27
678.005	4537.96
678.195	4529.77
678.386	4660.84
678.576	4716.13
678.767	4644.45
678.957	4650.6
679.148	4781.67
679.338	4617.83
679.529	4548.2
679.719	4509.29
679.909	4490.85
680.1	4466.28
680.29	4560.49
680.481	4585.06
680.671	4515.43
680.861	4472.42
681.052	4392.55
681.242	4394.6
681.432	4443.75
681.622	4396.65
681.813	4388.46
682.003	4417.13
682.193	4460.13
682.383	4349.54
682.573	4456.04
682.764	4343.4
682.954	4413.03
683.144	4406.89
683.334	4257.39
683.524	4214.38
683.714	4281.96
683.904	4169.32
684.094	4329.06
684.284	4271.72
684.474	4206.19
684.664	4081.26
684.854	4281.96
685.044	4306.54
685.234	4034.16
685.424	4056.68
685.614	4197.99
685.804	4167.28
685.994	4103.79
686.184	4103.79
686.374	4107.88
686.564	4206.19
686.753	4109.93
686.943	4068.97
687.133	3995.25
687.323	3987.05
687.513	3978.86
687.702	3960.43
687.892	4007.53
688.082	4028.01
688.272	3974.77
688.461	3882.61
688.651	3847.79
688.841	3753.59
689.03	3917.42
689.22	3810.93
689.41	3812.98
689.599	3749.49
689.789	3749.49
689.979	3645.04
690.168	3704.43
690.358	3759.73
690.547	3655.28
690.737	3657.33
690.926	3612.28
691.116	3395.19
691.305	3645.04
691.495	3503.73
691.684	3559.03
691.874	3532.4
692.063	3483.25
692.252	3536.5
692.442	3546.74
692.631	3509.88
692.82	3554.93
693.01	3393.14
693.199	3479.16
693.388	3440.25
693.578	3479.16
693.767	3307.13
693.956	3434.1
694.146	3296.89
694.335	3370.62
694.524	3358.33
694.713	3382.9
694.902	3247.74
695.092	3145.34
695.281	3153.53
695.47	3266.17
695.659	3131
695.848	3229.31
696.037	3292.79
696.226	3217.02
696.415	3214.97
696.604	3303.03
696.793	3239.55
696.982	3319.42
697.171	3341.94
697.36	3210.87
697.549	3192.44
697.738	3135.1
697.927	3153.53
698.116	3147.39
698.305	3096.19
698.494	3165.82
698.683	2954.88
698.872	3057.28
699.061	3026.56
699.25	3088
699.438	2956.93
699.627	2963.07
699.816	3151.48
700.005	2977.41
700.193	3014.27
700.382	3155.58
700.571	3001.98
700.76	3169.91
700.948	2967.17
701.137	3010.17
701.326	2999.93
701.514	2881.15
701.703	2979.45
701.892	2956.93
702.08	3038.84
702.269	3034.75
702.457	2999.93
702.646	3016.32
702.834	2989.69
703.023	2911.87
703.212	2883.2
703.4	2969.21
703.589	2905.73
703.777	3053.18
703.965	2913.92
704.154	2889.34
704.342	2901.63
704.531	2850.43
704.719	2758.27
704.907	2932.35
705.096	2911.87
705.284	2803.33
705.472	2784.9
705.661	2930.3
705.849	2965.12
706.037	2903.68
706.226	2866.81
706.414	2725.51
706.602	2803.33
706.79	2854.53
706.979	2944.64
707.167	2848.38
707.355	2809.47
707.543	2774.66
707.731	2834.05
707.919	2788.99
708.107	2770.56
708.296	2852.48
708.484	2877.05
708.672	2778.75
708.86	2858.62
709.048	2662.02
709.236	2805.38
709.424	2782.85
709.612	2807.42
709.8	2793.09
709.988	2782.85
710.176	2909.82
710.364	2754.18
710.551	2852.48
710.739	2733.7
710.927	2768.51
711.115	2700.93
711.303	2797.18
711.491	2788.99
711.679	2676.35
711.866	2823.81
712.054	2817.66
712.242	2752.13
712.43	2760.32
712.617	2791.04
712.805	2756.22
712.993	2770.56
713.181	2723.46
713.368	2707.07
713.556	2807.42
713.744	2768.51
713.931	2879.1
714.119	2770.56
714.306	2748.03
714.494	2690.69
714.682	2672.26
714.869	2729.6
715.057	2760.32
715.244	2821.76
715.432	2797.18
715.619	2780.8
715.807	2778.75
715.994	2760.32
716.182	2696.83
716.369	2805.38
716.556	2719.36
716.744	2668.16
716.931	2752.13
717.119	2737.79
717.306	2707.07
717.493	2723.46
717.681	2752.13
717.868	2860.67
718.055	2811.52
718.242	2737.79
718.43	2840.19
718.617	2823.81
718.804	2825.86
718.991	2842.24
719.179	2803.33
719.366	2723.46
719.553	2739.84
719.74	2813.57
719.927	2664.07
720.114	2774.66
720.301	2731.65
720.488	2715.27
720.676	2639.49
720.863	2709.12
721.05	2707.07
721.237	2756.22
721.424	2815.62
721.611	2788.99
721.798	2756.22
721.985	2741.89
722.172	2713.22
722.358	2858.62
722.545	2678.4
722.732	2619.01
722.919	2664.07
723.106	2698.88
723.293	2651.78
723.48	2674.31
723.667	2737.79
723.853	2684.55
724.04	2723.46
724.227	2647.68
724.414	2741.89
724.6	2682.5
724.787	2664.07
724.974	2752.13
725.161	2776.7
725.347	2758.27
725.534	2692.74
725.72	2809.47
725.907	2678.4
726.094	2745.98
726.28	2725.51
726.467	2647.68
726.653	2578.05
726.84	2645.63
727.027	2754.18
727.213	2576
727.4	2729.6
727.586	2723.46
727.773	2733.7
727.959	2643.59
728.145	2602.63
728.332	2600.58
728.518	2795.14
728.705	2694.79
728.891	2633.35
729.077	2659.97
729.264	2711.17
729.45	2604.67
729.636	2713.22
729.823	2782.85
730.009	2788.99
730.195	2621.06
730.382	2723.46
730.568	2578.05
730.754	2774.66
730.94	2795.14
731.126	2696.83
731.313	2670.21
731.499	2686.59
731.685	2672.26
731.871	2672.26
732.057	2707.07
732.243	2612.87
732.429	2604.67
732.615	2760.32
732.801	2711.17
732.987	2596.48
733.173	2705.03
733.359	2707.07
733.545	2711.17
733.731	2657.92
733.917	2619.01
734.103	2641.54
734.289	2729.6
734.475	2563.72
734.661	2756.22
734.847	2598.53
735.033	2657.92
735.219	2635.39
735.404	2600.58
735.59	2535.04
735.776	2588.29
735.962	2565.76
736.148	2639.49
736.333	2637.44
736.519	2733.7
736.705	2545.28
736.89	2576
737.076	2680.45
737.262	2539.14
737.447	2545.28
737.633	2578.05
737.819	2555.52
738.004	2512.52
738.19	2682.5
738.375	2553.48
738.561	2582.15
738.747	2567.81
738.932	2535.04
739.118	2569.86
739.303	2594.44
739.489	2619.01
739.674	2457.22
739.859	2463.37
740.045	2584.2
740.23	2561.67
740.416	2277
740.601	2494.08
740.786	2387.59
740.972	2500.23
741.157	2401.93
741.342	2375.3
741.528	2401.93
741.713	2395.78
741.898	2455.17
742.084	2426.5
742.269	2410.12
742.454	2408.07
742.639	2463.37
742.824	2326.15
743.01	2461.32
743.195	2383.49
743.38	2406.02
743.565	2446.98
743.75	2291.34
743.935	2336.39
744.12	2342.53
744.305	2311.82
744.49	2401.93
744.675	2326.15
744.86	2379.4
745.045	2283.14
745.23	2287.24
745.415	2320.01
745.6	2385.54
745.785	2176.65
745.97	2211.46
746.155	2266.76
746.34	2160.27
746.525	2057.87
746.71	2309.77
746.895	2176.65
747.079	2145.93
747.264	2201.23
747.449	2172.55
747.634	2152.07
747.819	2141.83
748.003	2012.81
748.188	2141.83
748.373	2057.87
748.557	2107.02
748.742	2070.16
748.927	2088.59
749.111	1978
749.296	2037.39
749.481	2076.3
749.665	1996.43
749.85	1885.84
750.034	1957.52
750.219	2070.16
750.404	1930.89
750.588	1975.95
750.773	1863.31
750.957	1943.18
751.141	2012.81
751.326	1869.45
751.51	1838.73
751.695	1867.41
751.879	1922.7
752.064	1771.15
752.248	1785.49
752.432	1865.36
752.617	1816.21
752.801	1840.78
752.985	1687.18
753.17	1726.1
753.354	1760.91
753.538	1820.3
753.722	1635.99
753.907	1664.66
754.091	1742.48
754.275	1662.61
754.459	1635.99
754.643	1650.32
754.828	1640.08
755.012	1631.89
755.196	1607.31
755.38	1599.12
755.564	1685.14
755.748	1617.55
755.932	1603.22
756.116	1605.27
756.3	1547.92
756.484	1492.63
756.668	1490.58
756.852	1521.3
757.036	1418.9
757.22	1486.48
757.404	1441.43
757.588	1461.91
757.772	1539.73
757.956	1423
758.14	1457.81
758.323	1451.67
758.507	1476.24
758.691	1453.72
758.875	1449.62
759.059	1437.33
759.242	1427.09
759.426	1351.32
759.61	1390.23
759.794	1433.24
759.977	1224.34
760.161	1423
760.345	1472.15
760.528	1371.8
760.712	1308.31
760.895	1324.69
761.079	1353.37
761.263	1281.69
761.446	1287.83
761.63	1271.45
761.813	1347.22
761.997	1271.45
762.18	1328.79
762.364	1263.26
762.547	1244.82
762.731	1212.06
762.914	1214.1
763.098	1201.82
763.281	1175.19
763.464	1236.63
763.648	1353.37
763.831	1191.58
764.015	1271.45
764.198	1232.54
764.381	1193.62
764.564	1187.48
764.748	1144.47
764.931	1185.43
765.114	1132.19
765.297	1224.34
765.481	1148.57
765.664	1242.78
765.847	1142.43
766.03	1220.25
766.213	1021.6
766.397	1117.85
766.58	1101.47
766.763	1181.34
766.946	1083.03
767.129	1201.82
767.312	1035.93
767.495	1187.48
767.678	1132.19
767.861	1087.13
768.044	1091.23
768.227	1046.17
768.41	1048.22
768.593	1089.18
768.776	1023.64
768.959	1087.13
769.142	1130.14
769.324	1011.36
769.507	1003.16
769.69	972.44
769.873	999.07
770.056	1001.12
770.239	1085.08
770.421	1089.18
770.604	1076.89
770.787	958.11
770.97	1007.26
771.152	1062.55
771.335	861.85
771.518	992.92
771.7	1095.32
771.883	1025.69
772.066	970.4
772.248	941.72
772.431	988.83
772.613	939.68
772.796	906.91
772.978	933.53
773.161	917.15
773.343	927.39
773.526	898.72
773.708	806.56
773.891	904.86
774.073	943.77
774.256	947.87
774.438	951.96
774.621	902.81
774.803	886.43
774.985	872.09
775.168	784.03
775.35	814.75
775.532	798.37
775.715	931.48
775.897	923.29
776.079	870.05
776.261	790.17
776.444	771.74
776.626	947.87
776.808	802.46
776.99	667.3
777.173	775.84
777.355	843.42
777.537	790.17
777.719	810.65
777.901	722.59
778.083	802.46
778.265	786.08
778.447	749.22
778.629	712.35
778.811	700.06
778.993	769.69
779.175	720.54
779.357	738.98
779.539	718.5
779.721	638.62
779.903	726.69
780.085	706.21
780.267	685.73
780.449	628.39
780.631	589.47
780.812	702.11
780.994	708.26
781.176	702.11
781.358	741.02
781.54	663.2
781.721	593.57
781.903	673.44
782.085	614.05
782.267	673.44
782.448	571.04
782.63	577.19
782.812	554.66
782.993	622.24
783.175	603.81
783.357	566.95
783.538	499.36
783.72	607.91
783.901	655.01
784.083	616.1
784.264	568.99
784.446	544.42
784.627	577.19
784.809	583.33
784.99	564.9
785.172	601.76
785.353	525.99
785.535	530.08
785.716	597.67
785.897	528.03
786.079	605.86
786.26	485.03
786.441	564.9
786.623	468.64
786.804	460.45
786.985	470.69
787.167	497.32
787.348	456.36
787.529	466.6
787.71	493.22
787.891	509.6
788.073	530.08
788.254	476.84
788.435	480.93
788.616	517.79
788.797	478.88
788.978	456.36
789.159	450.21
789.34	497.32
789.522	417.44
789.703	558.75
789.884	460.45
790.065	437.92
790.246	403.11
790.427	437.92
790.607	466.6
790.788	495.27
790.969	394.92
791.15	442.02
791.331	427.68
791.512	421.54
791.693	454.31
791.874	415.4
792.054	489.12
792.235	478.88
792.416	425.64
792.597	409.25
792.778	325.29
792.958	411.3
793.139	372.39
793.32	323.24
793.5	376.48
793.681	409.25
793.862	388.77
794.042	276.13
794.223	364.2
794.404	509.6
794.584	392.87
794.765	323.24
794.945	392.87
795.126	341.67
795.306	351.91
795.487	448.16
795.667	376.48
795.848	296.61
796.028	294.57
796.209	382.63
796.389	358.05
796.57	335.53
796.75	292.52
796.93	321.19
797.111	349.86
797.291	337.57
797.471	435.88
797.652	290.47
797.832	323.24
798.012	360.1
798.192	362.15
798.373	284.33
798.553	255.65
798.733	353.96
798.913	308.9
799.093	282.28
799.274	253.61
799.454	294.57
799.634	327.33
799.814	319.14
799.994	308.9
800.174	269.99
800.354	317.09
800.534	265.89
800.714	302.76
800.894	265.89
801.074	323.24
801.254	216.74
801.434	249.51
801.614	300.71
801.794	296.61
801.974	646.82
802.154	276.13
802.334	292.52
802.514	294.57
802.693	269.99
802.873	214.7
803.053	208.55
803.233	269.99
803.413	267.94
803.592	222.89
803.772	290.47
803.952	288.42
804.131	241.32
804.311	290.47
804.491	233.13
804.67	208.55
804.85	247.46
805.03	235.18
805.209	272.04
805.389	296.61
805.568	255.65
805.748	249.51
805.928	247.46
806.107	226.98
806.287	294.57
806.466	304.81
806.646	298.66
806.825	229.03
807.004	200.36
807.184	200.36
807.363	325.29
807.543	216.74
807.722	243.37
807.901	259.75
808.081	229.03
808.26	216.74
808.439	286.37
808.619	208.55
808.798	253.61
808.977	186.02
809.156	255.65
809.336	165.54
809.515	286.37
809.694	224.94
809.873	208.55
810.052	194.22
810.231	251.56
810.411	194.22
810.59	239.27
810.769	200.36
810.948	186.02
811.127	216.74
811.306	241.32
811.485	165.54
811.664	169.64
811.843	157.35
812.022	231.08
812.201	165.54
812.38	147.11
812.559	177.83
812.737	208.55
812.916	149.16
813.095	173.74
813.274	298.66
813.453	173.74
813.632	200.36
813.811	190.12
813.989	165.54
814.168	210.6
814.347	153.26
814.526	104.11
814.704	200.36
814.883	257.7
815.062	220.84
815.24	104.11
815.419	200.36
815.598	161.45
815.776	118.44
815.955	206.5
816.133	120.49
816.312	143.02
816.49	155.3
816.669	165.54
816.847	206.5
817.026	143.02
817.204	214.7
817.383	118.44
817.561	120.49
817.74	214.7
817.918	202.41
818.097	229.03
818.275	167.59
818.453	186.02
818.632	130.73
818.81	122.54
818.988	67.24
819.167	104.11
819.345	128.68
819.523	214.7
819.701	149.16
819.879	210.6
820.058	171.69
820.236	124.58
820.414	143.02
820.592	143.02
820.77	183.98
820.948	163.5
821.127	100.01
821.305	128.68
821.483	155.3
821.661	138.92
821.839	120.49
822.017	112.3
822.195	124.58
822.373	165.54
822.551	132.78
822.729	169.64
822.907	108.2
823.085	186.02
823.262	175.78
823.44	143.02
823.618	200.36
823.796	116.39
823.974	149.16
824.152	157.35
824.329	126.63
824.507	95.91
824.685	75.43
824.863	181.93
825.04	77.48
825.218	114.34
825.396	91.82
825.574	77.48
825.751	128.68
825.929	136.87
826.107	83.63
826.284	151.21
826.462	116.39
826.639	120.49
826.817	67.24
826.994	110.25
827.172	71.34
827.349	132.78
827.527	132.78
827.704	110.25
827.882	120.49
828.059	140.97
828.237	73.39
828.414	108.2
828.591	67.24
828.769	95.91
828.946	97.96
829.124	81.58
829.301	104.11
829.478	87.72
829.655	153.26
829.833	118.44
830.01	114.34
830.187	97.96
830.364	38.57
830.542	145.06
830.719	108.2
830.896	153.26
831.073	169.64
831.25	149.16
831.427	89.77
831.604	95.91
831.782	128.68
831.959	147.11
832.136	42.67
832.313	100.01
832.49	77.48
832.667	163.5
832.844	196.26
833.021	145.06
833.198	89.77
833.374	132.78
833.551	93.87
833.728	87.72
833.905	104.11
834.082	54.95
834.259	71.34
834.436	95.91
834.612	147.11
834.789	155.3
834.966	65.19
835.143	77.48
835.319	75.43
835.496	87.72
835.673	54.95
835.85	81.58
836.026	188.07
836.203	83.63
836.38	97.96
836.556	32.43
836.733	118.44
836.909	122.54
837.086	24.23
837.262	69.29
837.439	59.05
837.616	71.34
837.792	93.87
837.968	130.73
838.145	50.86
838.321	151.21
838.498	118.44
838.674	69.29
838.851	79.53
839.027	79.53
839.203	59.05
839.38	32.43
839.556	110.25
839.732	112.3
839.909	71.34
840.085	95.91
840.261	42.67
840.437	93.87
840.614	26.28
840.79	95.91
840.966	20.14
841.142	130.73
841.318	34.47
841.494	108.2
841.671	16.04
841.847	36.52
842.023	110.25
842.199	140.97
842.375	34.47
842.551	30.38
842.727	24.23
842.903	91.82
843.079	112.3
843.255	114.34
843.431	16.04
843.607	149.16
843.783	-8.53
843.959	34.47
844.134	-22.87
844.31	102.06
844.486	44.71
844.662	5.8
844.838	140.97
845.013	104.11
845.189	5.8
845.365	13.99
845.541	26.28
845.716	54.95
845.892	79.53
846.068	114.34
846.244	116.39
846.419	44.71
846.595	83.63
846.77	108.2
846.946	-20.82
847.122	87.72
847.297	97.96
847.473	100.01
847.648	-0.34
847.824	73.39
847.999	24.23
848.175	1.71
848.35	54.95
848.526	65.19
848.701	67.24
848.876	87.72
849.052	85.67
849.227	134.82
849.403	61.1
849.578	28.33
849.753	28.33
849.929	59.05
850.104	65.19
850.279	89.77
850.454	63.15
850.63	26.28
850.805	57
850.98	91.82
851.155	13.99
851.33	87.72
851.505	102.06
851.681	93.87
851.856	79.53
852.031	65.19
852.206	67.24
852.381	48.81
852.556	-10.58
852.731	83.63
852.906	151.21
853.081	38.57
853.256	20.14
853.431	79.53
853.606	89.77
853.781	79.53
853.956	42.67
854.131	50.86
854.305	59.05
854.48	9.9
854.655	13.99
854.83	20.14
855.005	136.87
855.18	24.23
855.354	18.09
855.529	61.1
855.704	-12.63
855.879	114.34
856.053	1.71
856.228	61.1
856.403	57
856.577	57
856.752	67.24
856.926	13.99
857.101	50.86
857.276	110.25
857.45	85.67
857.625	114.34
857.799	59.05
857.974	61.1
858.148	-29.01
858.323	69.29
858.497	126.63
858.672	38.57
858.846	81.58
859.02	79.53
859.195	91.82
859.369	3.75
859.543	50.86
859.718	18.09
859.892	104.11
860.066	59.05
860.241	77.48
860.415	5.8
860.589	24.23
860.763	20.14
860.938	-4.44
861.112	50.86
861.286	28.33
861.46	44.71
861.634	42.67
861.808	61.1
861.982	-12.63
862.157	34.47
862.331	36.52
862.505	-33.11
862.679	13.99
862.853	26.28
863.027	18.09
863.201	128.68
863.375	18.09
863.549	22.19
863.722	22.19
863.896	57
864.07	40.62
864.244	32.43
864.418	28.33
864.592	-0.34
864.766	91.82
864.939	-14.68
865.113	50.86
865.287	77.48
865.461	-2.39
865.634	122.54
865.808	5.8
865.982	32.43
866.156	40.62
866.329	34.47
866.503	38.57
866.676	9.9
866.85	38.57
867.024	73.39
867.197	85.67
867.371	46.76
867.544	11.95
867.718	-0.34
867.891	32.43
868.065	-8.53
868.238	-16.73
868.412	61.1
868.585	26.28
868.759	-0.34
868.932	3.75
869.105	-18.77
869.279	69.29
869.452	104.11
869.625	50.86
869.799	81.58
869.972	3.75
870.145	3.75
870.319	81.58
870.492	-31.06
870.665	40.62
870.838	-102.74
871.011	71.34
871.185	34.47
871.358	-33.11
871.531	81.58
871.704	54.95
871.877	71.34
872.05	50.86
872.223	-20.82
872.396	9.9
872.569	24.23
872.742	-37.2
872.915	81.58
873.088	13.99
873.261	48.81
873.434	63.15
873.607	5.8
873.78	13.99
873.953	52.91
874.126	-14.68
874.299	44.71
874.471	38.57
874.644	40.62
874.817	20.14
874.99	1.71
875.163	54.95
875.335	-8.53
875.508	28.33
875.681	30.38
875.853	28.33
876.026	83.63
876.199	13.99
876.371	52.91
876.544	52.91
876.717	-8.53
876.889	40.62
877.062	26.28
877.234	30.38
877.407	26.28
877.579	77.48
877.752	1.71
877.924	32.43
878.097	40.62
878.269	9.9
878.442	75.43
878.614	69.29
878.786	36.52
878.959	13.99
879.131	3.75
879.303	32.43
879.476	3.75
879.648	-18.77
879.82	85.67
879.993	32.43
880.165	-29.01
880.337	-18.77
880.509	-33.11
880.681	36.52
880.854	32.43
881.026	30.38
881.198	32.43
881.37	-14.68
881.542	63.15
881.714	-2.39
881.886	-65.88
882.058	34.47
882.23	26.28
882.402	106.15
882.574	7.85
882.746	-14.68
882.918	75.43
883.09	65.19
883.262	36.52
883.434	81.58
883.606	-26.96
883.778	61.1
883.95	89.77
884.122	59.05
884.293	57
884.465	40.62
884.637	16.04
884.809	5.8
884.98	1.71
885.152	34.47
885.324	65.19
885.496	11.95
885.667	65.19
885.839	36.52
886.011	-2.39
886.182	-33.11
886.354	3.75
886.525	61.1
886.697	44.71
886.869	-72.02
887.04	20.14
887.212	100.01
887.383	102.06
887.555	24.23
887.726	40.62
887.897	-29.01
888.069	13.99
888.24	18.09
888.412	5.8
888.583	13.99
888.754	-14.68
888.926	63.15
889.097	-39.25
889.268	-4.44
889.44	73.39
889.611	-24.92
889.782	13.99
889.953	40.62
890.125	50.86
890.296	-2.39
890.467	-18.77
890.638	-12.63
890.809	24.23
890.98	42.67
891.151	24.23
891.323	13.99
891.494	59.05
891.665	32.43
891.836	71.34
892.007	-55.64
892.178	71.34
892.349	-8.53
892.52	-29.01
892.691	34.47
892.862	79.53
893.032	38.57
893.203	54.95
893.374	5.8
893.545	16.04
893.716	9.9
893.887	-2.39
894.057	77.48
894.228	40.62
894.399	-8.53
894.57	44.71
894.74	22.19
894.911	22.19
895.082	-51.54
895.253	57
895.423	-2.39
895.594	77.48
895.764	36.52
895.935	24.23
896.106	22.19
896.276	-14.68
896.447	26.28
896.617	93.87
896.788	-45.4
896.958	59.05
897.129	11.95
897.299	42.67
897.47	67.24
897.64	116.39
897.81	18.09
897.981	50.86
898.151	38.57
898.322	-12.63
898.492	-8.53
898.662	-4.44
898.832	-59.73
899.003	50.86
899.173	30.38
899.343	-2.39
899.513	32.43
