Data from USB4F104151__0__12-26-50-755.txt Node

Date: Fri Mar 14 12:26:50 EDT 2025
User: louis
Spectrometer: USB4F10415
Trigger mode: 4
Integration Time (sec): 2.000000E-2
Scans to average: 1
Electric dark correction enabled: true
Nonlinearity correction enabled: false
Boxcar width: 0
XAxis mode: Wavelengths
Number of Pixels in Spectrum: 3648
>>>>>Begin Spectral Data<<<<<
178.204	-25.26
178.424	-25.26
178.644	-25.26
178.864	-6.83
179.084	-19.11
179.304	-12.97
179.524	-39.59
179.744	44.37
179.964	89.43
180.184	-4.78
180.404	27.99
180.624	-39.59
180.844	44.37
181.064	-27.31
181.283	-82.6
181.503	-33.45
181.723	34.13
181.943	5.46
182.163	17.75
182.383	-6.83
182.602	40.28
182.822	19.8
183.042	-4.78
183.262	11.61
183.482	-2.73
183.701	68.95
183.921	-2.73
184.141	-12.97
184.361	107.86
184.58	30.04
184.8	25.94
185.02	-33.45
185.239	75.09
185.459	-6.83
185.679	21.84
185.898	-35.5
186.118	34.13
186.338	-58.03
186.557	19.8
186.777	23.89
186.997	-0.68
187.216	66.9
187.436	15.7
187.655	32.08
187.875	-4.78
188.095	60.76
188.314	-6.83
188.534	83.28
188.753	-15.02
188.973	17.75
189.192	23.89
189.412	118.1
189.631	30.04
189.851	-2.73
190.07	109.91
190.29	-25.26
190.509	58.71
190.729	9.56
190.948	46.42
191.168	173.39
191.387	64.85
191.607	44.37
191.826	77.14
192.045	68.95
192.265	-0.68
192.484	3.41
192.704	-15.02
192.923	-15.02
193.142	50.52
193.362	13.65
193.581	93.52
193.8	23.89
194.02	-0.68
194.239	34.13
194.458	27.99
194.678	-29.35
194.897	87.38
195.116	-58.03
195.335	1.37
195.555	114
195.774	27.99
195.993	-53.93
196.212	-17.07
196.432	-39.59
196.651	83.28
196.87	50.52
197.089	32.08
197.308	36.18
197.528	73.04
197.747	34.13
197.966	52.56
198.185	54.61
198.404	13.65
198.623	19.8
198.842	34.13
199.062	75.09
199.281	-25.26
199.5	21.84
199.719	40.28
199.938	46.42
200.157	36.18
200.376	77.14
200.595	105.81
200.814	17.75
201.033	30.04
201.252	9.56
201.471	62.8
201.69	116.05
201.909	-6.83
202.128	21.84
202.347	75.09
202.566	66.9
202.785	-12.97
203.004	-96.94
203.223	58.71
203.442	68.95
203.661	17.75
203.879	-19.11
204.098	48.47
204.317	-39.59
204.536	68.95
204.755	9.56
204.974	17.75
205.193	32.08
205.411	91.48
205.63	34.13
205.849	40.28
206.068	13.65
206.287	30.04
206.505	111.96
206.724	25.94
206.943	-23.21
207.162	13.65
207.381	52.56
207.599	13.65
207.818	21.84
208.037	44.37
208.255	25.94
208.474	-45.74
208.693	42.32
208.911	7.51
209.13	19.8
209.349	48.47
209.567	40.28
209.786	-6.83
210.005	15.7
210.223	-8.87
210.442	7.51
210.661	36.18
210.879	-0.68
211.098	50.52
211.316	87.38
211.535	105.81
211.753	-15.02
211.972	44.37
212.191	-33.45
212.409	60.76
212.628	40.28
212.846	38.23
213.065	46.42
213.283	25.94
213.502	23.89
213.72	50.52
213.938	13.65
214.157	52.56
214.375	44.37
214.594	-10.92
214.812	13.65
215.031	48.47
215.249	15.7
215.467	105.81
215.686	81.24
215.904	58.71
216.122	-0.68
216.341	77.14
216.559	-29.35
216.778	44.37
216.996	-0.68
217.214	34.13
217.432	7.51
217.651	36.18
217.869	-6.83
218.087	34.13
218.306	27.99
218.524	15.7
218.742	42.32
218.96	60.76
219.179	15.7
219.397	1.37
219.615	64.85
219.833	25.94
220.051	-21.16
220.27	38.23
220.488	91.48
220.706	15.7
220.924	44.37
221.142	5.46
221.36	25.94
221.578	19.8
221.796	17.75
222.015	46.42
222.233	42.32
222.451	50.52
222.669	-0.68
222.887	-29.35
223.105	11.61
223.323	-2.73
223.541	-6.83
223.759	68.95
223.977	15.7
224.195	85.33
224.413	58.71
224.631	25.94
224.849	11.61
225.067	42.32
225.285	32.08
225.503	-19.11
225.721	42.32
225.939	66.9
226.157	91.48
226.375	42.32
226.592	79.19
226.81	50.52
227.028	7.51
227.246	9.56
227.464	-55.98
227.682	64.85
227.9	122.2
228.117	60.76
228.335	46.42
228.553	-2.73
228.771	3.41
228.989	9.56
229.206	-21.16
229.424	32.08
229.642	-0.68
229.86	38.23
230.077	66.9
230.295	60.76
230.513	-6.83
230.731	36.18
230.948	21.84
231.166	60.76
231.384	52.56
231.601	23.89
231.819	13.65
232.037	62.8
232.254	15.7
232.472	36.18
232.689	-19.11
232.907	52.56
233.125	64.85
233.342	3.41
233.56	52.56
233.777	68.95
233.995	42.32
234.213	44.37
234.43	-23.21
234.648	42.32
234.865	-6.83
235.083	56.66
235.3	-6.83
235.518	46.42
235.735	36.18
235.953	34.13
236.17	15.7
236.388	46.42
236.605	62.8
236.822	85.33
237.04	11.61
237.257	-25.26
237.475	-10.92
237.692	107.86
237.909	52.56
238.127	-10.92
238.344	11.61
238.562	25.94
238.779	-96.94
238.996	75.09
239.214	17.75
239.431	77.14
239.648	-47.79
239.865	34.13
240.083	62.8
240.3	62.8
240.517	66.9
240.735	-12.97
240.952	89.43
241.169	83.28
241.386	7.51
241.603	66.9
241.821	-51.88
242.038	132.44
242.255	3.41
242.472	-19.11
242.689	7.51
242.907	85.33
243.124	30.04
243.341	79.19
243.558	109.91
243.775	42.32
243.992	56.66
244.209	-4.78
244.426	-23.21
244.643	93.52
244.86	27.99
245.078	38.23
245.295	83.28
245.512	66.9
245.729	-19.11
245.946	99.67
246.163	23.89
246.38	46.42
246.597	-2.73
246.814	9.56
247.031	56.66
247.248	32.08
247.464	-0.68
247.681	-8.87
247.898	19.8
248.115	-2.73
248.332	-58.03
248.549	64.85
248.766	7.51
248.983	9.56
249.2	54.61
249.417	25.94
249.633	-45.74
249.85	89.43
250.067	-55.98
250.284	13.65
250.501	15.7
250.717	60.76
250.934	23.89
251.151	50.52
251.368	3.41
251.585	36.18
251.801	19.8
252.018	75.09
252.235	73.04
252.451	-2.73
252.668	25.94
252.885	81.24
253.102	36.18
253.318	38.23
253.535	-17.07
253.752	-19.11
253.968	15.7
254.185	5.46
254.401	36.18
254.618	30.04
254.835	21.84
255.051	120.15
255.268	9.56
255.484	38.23
255.701	5.46
255.917	13.65
256.134	21.84
256.351	46.42
256.567	15.7
256.784	81.24
257	-2.73
257.217	56.66
257.433	-25.26
257.65	9.56
257.866	42.32
258.082	25.94
258.299	62.8
258.515	87.38
258.732	-49.83
258.948	-37.55
259.165	7.51
259.381	56.66
259.597	19.8
259.814	27.99
260.03	83.28
260.246	48.47
260.463	66.9
260.679	64.85
260.895	9.56
261.112	44.37
261.328	32.08
261.544	25.94
261.761	44.37
261.977	93.52
262.193	3.41
262.409	27.99
262.626	-27.31
262.842	68.95
263.058	52.56
263.274	77.14
263.49	19.8
263.707	5.46
263.923	-60.07
264.139	-39.59
264.355	11.61
264.571	58.71
264.787	44.37
265.004	73.04
265.22	42.32
265.436	15.7
265.652	87.38
265.868	50.52
266.084	54.61
266.3	13.65
266.516	19.8
266.732	54.61
266.948	56.66
267.164	40.28
267.38	13.65
267.596	68.95
267.812	62.8
268.028	75.09
268.244	85.33
268.46	85.33
268.676	91.48
268.892	124.24
269.108	111.96
269.324	-0.68
269.54	36.18
269.756	87.38
269.972	38.23
270.188	52.56
270.403	-10.92
270.619	93.52
270.835	48.47
271.051	15.7
271.267	11.61
271.483	64.85
271.698	42.32
271.914	34.13
272.13	25.94
272.346	21.84
272.562	-12.97
272.777	58.71
272.993	64.85
273.209	77.14
273.425	66.9
273.64	30.04
273.856	34.13
274.072	56.66
274.287	66.9
274.503	62.8
274.719	71
274.934	17.75
275.15	3.41
275.366	34.13
275.581	-4.78
275.797	44.37
276.012	-31.4
276.228	19.8
276.444	-21.16
276.659	30.04
276.875	-80.55
277.09	36.18
277.306	-23.21
277.521	60.76
277.737	-6.83
277.952	32.08
278.168	-47.79
278.383	83.28
278.599	21.84
278.814	46.42
279.03	54.61
279.245	46.42
279.461	-19.11
279.676	-21.16
279.892	-23.21
280.107	68.95
280.322	42.32
280.538	64.85
280.753	46.42
280.969	60.76
281.184	60.76
281.399	23.89
281.615	30.04
281.83	-6.83
282.045	19.8
282.26	-21.16
282.476	56.66
282.691	64.85
282.906	42.32
283.122	38.23
283.337	-60.07
283.552	58.71
283.767	5.46
283.983	42.32
284.198	27.99
284.413	27.99
284.628	-60.07
284.843	66.9
285.058	27.99
285.274	-41.64
285.489	3.41
285.704	73.04
285.919	-6.83
286.134	105.81
286.349	19.8
286.564	93.52
286.779	62.8
286.995	27.99
287.21	62.8
287.425	9.56
287.64	-31.4
287.855	27.99
288.07	-45.74
288.285	83.28
288.5	81.24
288.715	66.9
288.93	27.99
289.145	17.75
289.36	60.76
289.575	44.37
289.79	75.09
290.004	-21.16
290.219	1.37
290.434	38.23
290.649	-37.55
290.864	89.43
291.079	34.13
291.294	73.04
291.509	21.84
291.724	-15.02
291.938	3.41
292.153	56.66
292.368	62.8
292.583	54.61
292.798	21.84
293.012	-19.11
293.227	40.28
293.442	32.08
293.657	-35.5
293.871	99.67
294.086	62.8
294.301	83.28
294.516	71
294.73	13.65
294.945	46.42
295.16	60.76
295.374	54.61
295.589	13.65
295.804	44.37
296.018	34.13
296.233	36.18
296.447	60.76
296.662	27.99
296.877	93.52
297.091	58.71
297.306	54.61
297.52	-17.07
297.735	91.48
297.949	142.68
298.164	38.23
298.378	-15.02
298.593	40.28
298.807	-4.78
299.022	89.43
299.236	71
299.451	-6.83
299.665	-39.59
299.88	-49.83
300.094	44.37
300.309	50.52
300.523	1.37
300.737	71
300.952	95.57
301.166	15.7
301.381	19.8
301.595	56.66
301.809	64.85
302.024	60.76
302.238	71
302.452	83.28
302.667	-4.78
302.881	62.8
303.095	87.38
303.309	64.85
303.524	36.18
303.738	17.75
303.952	-62.12
304.166	91.48
304.381	13.65
304.595	54.61
304.809	17.75
305.023	85.33
305.237	25.94
305.452	30.04
305.666	-33.45
305.88	23.89
306.094	42.32
306.308	87.38
306.522	36.18
306.736	56.66
306.95	7.51
307.164	-31.4
307.379	44.37
307.593	62.8
307.807	-29.35
308.021	87.38
308.235	87.38
308.449	34.13
308.663	60.76
308.877	46.42
309.091	-10.92
309.305	7.51
309.519	19.8
309.733	99.67
309.947	3.41
310.161	46.42
310.374	-6.83
310.588	118.1
310.802	-8.87
311.016	5.46
311.23	21.84
311.444	-6.83
311.658	17.75
311.872	71
312.085	3.41
312.299	95.57
312.513	89.43
312.727	48.47
312.941	7.51
313.154	62.8
313.368	91.48
313.582	25.94
313.796	-12.97
314.009	66.9
314.223	79.19
314.437	25.94
314.651	52.56
314.864	56.66
315.078	-10.92
315.292	21.84
315.505	15.7
315.719	56.66
315.933	11.61
316.146	99.67
316.36	-31.4
316.573	83.28
316.787	73.04
317.001	64.85
317.214	44.37
317.428	132.44
317.641	11.61
317.855	13.65
318.068	-23.21
318.282	89.43
318.495	58.71
318.709	-6.83
318.922	103.76
319.136	79.19
319.349	105.81
319.563	23.89
319.776	27.99
319.99	46.42
320.203	52.56
320.417	19.8
320.63	60.76
320.843	99.67
321.057	68.95
321.27	-19.11
321.483	23.89
321.697	58.71
321.91	50.52
322.124	60.76
322.337	36.18
322.55	-12.97
322.763	66.9
322.977	58.71
323.19	64.85
323.403	60.76
323.617	44.37
323.83	46.42
324.043	-6.83
324.256	118.1
324.469	21.84
324.683	44.37
324.896	17.75
325.109	140.63
325.322	21.84
325.535	27.99
325.748	40.28
325.962	7.51
326.175	38.23
326.388	-21.16
326.601	-25.26
326.814	66.9
327.027	79.19
327.24	52.56
327.453	34.13
327.666	30.04
327.879	44.37
328.092	42.32
328.305	71
328.518	62.8
328.731	130.39
328.944	-37.55
329.157	126.29
329.37	105.81
329.583	25.94
329.796	48.47
330.009	5.46
330.222	-8.87
330.435	42.32
330.648	62.8
330.861	73.04
331.073	89.43
331.286	111.96
331.499	3.41
331.712	54.61
331.925	109.91
332.138	62.8
332.35	79.19
332.563	34.13
332.776	-4.78
332.989	34.13
333.202	42.32
333.414	9.56
333.627	52.56
333.84	19.8
334.053	11.61
334.265	25.94
334.478	30.04
334.691	11.61
334.903	48.47
335.116	77.14
335.329	44.37
335.541	132.44
335.754	109.91
335.966	99.67
336.179	44.37
336.392	89.43
336.604	52.56
336.817	3.41
337.029	116.05
337.242	68.95
337.454	62.8
337.667	23.89
337.88	56.66
338.092	5.46
338.305	17.75
338.517	77.14
338.729	89.43
338.942	77.14
339.154	-21.16
339.367	38.23
339.579	85.33
339.792	50.52
340.004	64.85
340.217	58.71
340.429	71
340.641	58.71
340.854	19.8
341.066	38.23
341.278	42.32
341.491	44.37
341.703	50.52
341.915	42.32
342.128	15.7
342.34	83.28
342.552	50.52
342.764	-0.68
342.977	13.65
343.189	48.47
343.401	42.32
343.613	79.19
343.826	71
344.038	36.18
344.25	25.94
344.462	107.86
344.674	42.32
344.886	105.81
345.099	58.71
345.311	42.32
345.523	64.85
345.735	-6.83
345.947	40.28
346.159	-17.07
346.371	122.2
346.583	30.04
346.795	83.28
347.007	27.99
347.219	77.14
347.431	-2.73
347.643	9.56
347.855	-2.73
348.067	56.66
348.279	87.38
348.491	97.62
348.703	25.94
348.915	66.9
349.127	75.09
349.339	23.89
349.551	-12.97
349.763	54.61
349.975	64.85
350.187	114
350.399	181.59
350.61	58.71
350.822	101.72
351.034	101.72
351.246	30.04
351.458	38.23
351.669	101.72
351.881	34.13
352.093	64.85
352.305	54.61
352.517	93.52
352.728	38.23
352.94	68.95
353.152	81.24
353.363	-6.83
353.575	62.8
353.787	25.94
353.999	68.95
354.21	36.18
354.422	1.37
354.633	-33.45
354.845	60.76
355.057	46.42
355.268	68.95
355.48	122.2
355.692	-35.5
355.903	46.42
356.115	58.71
356.326	23.89
356.538	68.95
356.749	15.7
356.961	60.76
357.172	9.56
357.384	-12.97
357.595	157.01
357.807	48.47
358.018	19.8
358.23	17.75
358.441	-41.64
358.653	64.85
358.864	13.65
359.075	62.8
359.287	34.13
359.498	13.65
359.709	5.46
359.921	11.61
360.132	44.37
360.344	99.67
360.555	32.08
360.766	73.04
360.977	58.71
361.189	56.66
361.4	66.9
361.611	116.05
361.823	48.47
362.034	32.08
362.245	15.7
362.456	-0.68
362.667	40.28
362.879	48.47
363.09	-15.02
363.301	11.61
363.512	71
363.723	77.14
363.935	5.46
364.146	116.05
364.357	32.08
364.568	42.32
364.779	124.24
364.99	105.81
365.201	46.42
365.412	89.43
365.623	126.29
365.834	27.99
366.045	27.99
366.256	66.9
366.467	73.04
366.678	68.95
366.889	5.46
367.1	126.29
367.311	-31.4
367.522	44.37
367.733	101.72
367.944	71
368.155	60.76
368.366	44.37
368.577	79.19
368.788	97.62
368.999	32.08
369.209	17.75
369.42	73.04
369.631	46.42
369.842	58.71
370.053	66.9
370.264	64.85
370.474	25.94
370.685	13.65
370.896	87.38
371.107	83.28
371.317	105.81
371.528	27.99
371.739	48.47
371.95	50.52
372.16	109.91
372.371	87.38
372.582	91.48
372.792	130.39
373.003	46.42
373.214	36.18
373.424	75.09
373.635	40.28
373.846	89.43
374.056	79.19
374.267	44.37
374.477	30.04
374.688	81.24
374.898	68.95
375.109	-39.59
375.319	9.56
375.53	79.19
375.74	116.05
375.951	89.43
376.161	52.56
376.372	93.52
376.582	75.09
376.793	44.37
377.003	15.7
377.214	62.8
377.424	85.33
377.635	27.99
377.845	52.56
378.055	40.28
378.266	56.66
378.476	40.28
378.686	56.66
378.897	46.42
379.107	-2.73
379.317	116.05
379.528	83.28
379.738	54.61
379.948	-31.4
380.158	75.09
380.369	36.18
380.579	11.61
380.789	-8.87
380.999	146.77
381.21	118.1
381.42	154.96
381.63	68.95
381.84	130.39
382.05	52.56
382.261	134.48
382.471	120.15
382.681	46.42
382.891	89.43
383.101	30.04
383.311	-49.83
383.521	-21.16
383.731	5.46
383.941	85.33
384.151	44.37
384.361	122.2
384.571	44.37
384.781	87.38
384.991	114
385.201	109.91
385.411	64.85
385.621	148.82
385.831	36.18
386.041	91.48
386.251	46.42
386.461	138.58
386.671	46.42
386.881	21.84
387.091	52.56
387.301	32.08
387.511	-17.07
387.72	9.56
387.93	68.95
388.14	105.81
388.35	81.24
388.56	62.8
388.769	111.96
388.979	83.28
389.189	77.14
389.399	68.95
389.609	73.04
389.818	73.04
390.028	50.52
390.238	71
390.447	38.23
390.657	71
390.867	114
391.076	-4.78
391.286	50.52
391.496	126.29
391.705	52.56
391.915	146.77
392.125	-2.73
392.334	103.76
392.544	75.09
392.753	73.04
392.963	58.71
393.172	58.71
393.382	154.96
393.591	161.11
393.801	19.8
394.01	173.39
394.22	95.57
394.429	36.18
394.639	68.95
394.848	101.72
395.058	25.94
395.267	71
395.477	27.99
395.686	83.28
395.895	130.39
396.105	167.25
396.314	75.09
396.524	140.63
396.733	75.09
396.942	87.38
397.152	54.61
397.361	46.42
397.57	81.24
397.78	118.1
397.989	136.53
398.198	132.44
398.407	107.86
398.617	60.76
398.826	101.72
399.035	56.66
399.244	116.05
399.453	157.01
399.663	111.96
399.872	126.29
400.081	122.2
400.29	167.25
400.499	77.14
400.708	154.96
400.917	136.53
401.127	73.04
401.336	71
401.545	146.77
401.754	138.58
401.963	93.52
402.172	144.72
402.381	163.15
402.59	165.2
402.799	101.72
403.008	83.28
403.217	71
403.426	161.11
403.635	118.1
403.844	42.32
404.053	140.63
404.262	58.71
404.471	138.58
404.68	130.39
404.888	148.82
405.097	114
405.306	187.73
405.515	161.11
405.724	204.11
405.933	218.45
406.142	169.3
406.35	238.93
406.559	124.24
406.768	175.44
406.977	163.15
407.185	191.83
407.394	206.16
407.603	130.39
407.812	238.93
408.02	253.27
408.229	114
408.438	179.54
408.646	202.07
408.855	261.46
409.064	290.13
409.272	255.31
409.481	292.18
409.69	228.69
409.898	277.84
410.107	310.61
410.315	290.13
410.524	333.14
410.733	298.32
410.941	306.51
411.15	361.81
411.358	331.09
411.567	445.77
411.775	359.76
411.984	398.67
412.192	417.1
412.401	468.3
412.609	480.59
412.818	464.21
413.026	494.93
413.234	488.78
413.443	478.54
413.651	460.11
413.86	501.07
414.068	505.17
414.276	638.28
414.485	550.22
414.693	615.76
414.901	621.9
415.11	603.47
415.318	699.72
415.526	761.16
415.734	804.17
415.943	798.03
416.151	675.15
416.359	752.97
416.567	748.87
416.776	830.79
416.984	914.76
417.192	945.48
417.4	931.14
417.608	916.81
417.817	957.77
418.025	1043.78
418.233	1074.5
418.441	1019.21
418.649	1158.47
418.857	1148.23
419.065	1183.04
419.273	1273.15
419.481	1232.19
419.689	1406.27
419.897	1398.08
420.105	1422.66
420.313	1445.18
420.521	1404.22
420.729	1498.43
420.937	1559.87
421.145	1641.79
421.353	1594.68
421.561	1787.19
421.769	1822.01
421.977	1877.3
422.185	1963.32
422.393	2053.43
422.601	2131.25
422.809	2086.2
423.017	2110.77
423.224	2135.35
423.432	2366.77
423.64	2268.47
423.848	2563.37
424.056	2424.11
424.263	2637.1
424.471	2798.89
424.679	2827.56
424.887	2862.38
425.094	2932.01
425.302	2905.38
425.51	3122.47
425.718	3122.47
425.925	3284.26
426.133	3327.27
426.341	3456.29
426.548	3724.57
426.756	3654.94
426.964	3669.28
427.171	3853.59
427.379	3937.56
427.586	4197.65
427.794	4115.73
428.001	4287.76
428.209	4637.97
428.417	4461.84
428.624	4971.79
428.832	4914.44
429.039	4859.15
429.247	4889.87
429.454	5420.29
429.662	5770.49
429.869	5414.15
430.076	5735.68
430.284	5518.59
430.491	5672.19
430.699	6030.59
430.906	6147.32
431.114	6171.9
431.321	6497.52
431.528	6692.08
431.736	6862.06
431.943	7189.74
432.15	7120.1
432.358	7091.43
432.565	7421.16
432.772	7513.31
432.979	7832.8
433.187	8090.84
433.394	8215.77
433.601	8719.57
433.808	8725.71
434.016	8623.31
434.223	9088.2
434.43	9559.24
434.637	9323.72
434.844	9919.68
435.052	10190.01
435.259	9995.45
435.466	10185.91
435.673	10130.62
435.88	10751.15
436.087	11269.29
436.294	11406.5
436.501	11041.96
436.708	11422.89
436.915	11635.88
437.122	12233.88
437.329	12205.21
437.537	12489.88
437.743	12768.4
437.95	12596.37
438.157	13388.94
438.364	13761.67
438.571	13702.28
438.778	13958.27
438.985	15086.7
439.192	14703.73
439.399	15162.48
439.606	14804.08
439.813	15578.22
440.02	16606.3
440.227	16274.53
440.433	16067.68
440.64	16450.65
440.847	16413.79
441.054	16872.53
441.261	18140.22
441.467	17636.42
441.674	18144.32
441.881	18879.54
442.088	18670.65
442.294	18496.57
442.501	19156.02
442.708	19579.95
442.914	20257.82
443.121	21314.58
443.328	20626.46
443.534	22125.57
443.741	21451.79
443.948	21371.92
444.154	22809.59
444.361	22666.24
444.568	22785.02
444.774	22875.13
444.981	23206.9
445.187	23792.62
445.394	24572.89
445.6	24603.61
445.807	26981.31
446.013	25635.79
446.22	26211.27
446.426	27298.74
446.633	27253.69
446.839	28300.2
447.046	27120.57
447.252	28515.23
447.459	28881.82
447.665	28703.65
447.871	29791.12
448.078	31466.36
448.284	29778.83
448.491	30620.55
448.697	31769.46
448.903	32297.83
449.11	32316.26
449.316	31798.13
449.522	32445.29
449.728	33485.65
449.935	33784.66
450.141	33850.19
450.347	34407.24
450.553	33268.57
450.76	33811.28
450.966	34777.92
451.172	34499.4
451.378	35283.77
451.584	34517.83
451.791	35705.65
451.997	35521.34
452.203	36105.01
452.409	36252.46
452.615	35947.31
452.821	34603.85
453.027	34331.47
453.233	36074.29
453.44	34358.09
453.646	35027.77
453.852	35314.49
454.058	36176.69
454.264	34548.55
454.47	35466.04
454.676	34448.2
454.882	35928.88
455.088	32840.54
455.294	33092.44
455.5	34081.61
455.705	34132.81
455.911	33000.29
456.117	31953.77
456.323	31832.94
456.529	29815.69
456.735	31318.9
456.941	30681.99
457.147	29967.24
457.352	28777.37
457.558	28953.5
457.764	28857.24
457.97	28394.4
458.176	27718.57
458.381	27489.2
458.587	26467.27
458.793	26344.39
458.999	24703.96
459.204	26559.42
459.41	26186.69
459.616	24257.51
459.821	24171.49
460.027	24263.65
460.233	23393.26
460.438	22402.05
460.644	22881.27
460.85	21761.03
461.055	21472.27
461.261	21206.03
461.466	19680.3
461.672	19495.98
461.878	20675.61
462.083	19282.99
462.289	18932.79
462.494	18508.86
462.7	18011.2
462.905	17144.91
463.111	17769.54
463.316	18029.63
463.522	17661
463.727	17626.18
463.932	17466.44
464.138	17415.24
464.343	17474.63
464.549	16837.72
464.754	17513.55
464.959	17493.07
465.165	17450.06
465.37	16755.8
465.575	16065.63
465.781	16391.26
465.986	16933.97
466.191	16276.57
466.397	15709.29
466.602	15258.73
466.807	15780.96
467.012	16061.54
467.218	15729.77
467.423	15522.92
467.628	15819.88
467.833	16229.47
468.038	15727.72
468.244	15039.6
468.449	15846.5
468.654	15330.41
468.859	15334.51
469.064	15209.58
469.269	14736.5
469.474	14709.88
469.679	14756.98
469.885	14689.4
470.09	14693.49
470.295	14707.83
470.5	14288
470.705	14218.36
470.91	13966.46
471.115	13843.59
471.32	14075.01
471.525	14029.95
471.73	13794.43
471.935	13651.08
472.139	13221
472.344	13573.25
472.549	13186.19
472.754	13257.87
472.959	12887.18
473.164	12428.44
473.369	12641.43
473.574	13030.54
473.778	12657.81
473.983	12758.16
474.188	12549.27
474.393	12244.12
474.598	11912.35
474.802	11844.77
475.007	11855.01
475.212	12102.81
475.417	11560.1
475.621	11629.73
475.826	11486.37
476.031	11353.26
476.235	11191.47
476.44	11369.64
476.645	10810.54
476.849	10929.33
477.054	11011.25
477.259	10626.23
477.463	10726.58
477.668	10443.96
477.872	10611.89
478.077	10525.88
478.282	9979.07
478.486	10216.63
478.691	10056.89
478.895	9915.58
479.1	10042.56
479.304	9766.08
479.509	9766.08
479.713	9938.11
479.918	9733.31
480.122	9315.53
480.326	9823.42
480.531	9639.11
480.735	9708.74
480.94	9514.18
481.144	9741.5
481.348	9368.77
481.553	9522.37
481.757	9284.81
481.961	9462.98
482.166	9395.4
482.37	9538.76
482.574	9239.75
482.778	9430.21
482.983	9473.22
483.187	9303.24
483.391	9411.78
483.595	9190.6
483.8	9137.35
484.004	9161.93
484.208	9501.89
484.412	9383.11
484.616	9317.58
484.821	9456.84
485.025	9098.44
485.229	9354.44
485.433	9008.33
485.637	9243.85
485.841	9295.05
486.045	9178.31
486.249	9438.41
486.453	9213.13
486.657	9348.29
486.861	9200.84
487.065	8963.28
487.269	9297.1
487.473	9075.91
487.677	9252.04
487.881	9247.94
488.085	9106.63
488.289	9286.86
488.493	9389.25
488.697	9284.81
488.901	9383.11
489.105	9331.91
489.309	9401.54
489.512	9297.1
489.716	9366.73
489.92	9487.56
490.124	9305.29
490.328	9557.19
490.531	9401.54
490.735	9483.46
490.939	9594.05
491.143	9430.21
491.346	9405.64
491.55	9858.24
491.754	9557.19
491.958	9747.65
492.161	9708.74
492.365	9843.9
492.569	9788.61
492.772	9661.63
492.976	9827.52
493.18	10013.88
493.383	9872.57
493.587	10261.69
493.79	10357.94
493.994	9884.86
494.197	10073.28
494.401	10351.8
494.605	10364.09
494.808	10306.74
495.012	10403
495.215	10491.06
495.419	10687.67
495.622	10546.36
495.825	10685.62
496.029	10734.77
496.232	10970.29
496.436	10751.15
496.639	11009.2
496.843	11084.97
497.046	11414.7
497.249	11447.46
497.453	11529.38
497.656	11705.51
497.859	11750.56
498.063	11568.29
498.266	12111
498.469	12059.81
498.673	12063.9
498.876	12369.05
499.079	12446.87
499.282	12317.85
499.485	12940.43
499.689	12928.14
499.892	12915.86
500.095	12967.06
500.298	13431.94
500.501	13272.2
500.705	13460.62
500.908	13855.87
501.111	13800.58
501.314	13964.42
501.517	13890.69
501.72	14343.29
501.923	14171.26
502.126	14754.93
502.329	14722.16
502.532	15004.78
502.735	14834.8
502.938	15281.26
503.141	15344.75
503.344	15649.89
503.547	15649.89
503.75	16176.22
503.953	16125.02
504.156	16051.3
504.359	16340.06
504.562	16325.72
504.765	16747.61
504.968	16878.68
505.17	17296.46
505.373	17237.07
505.576	17429.58
505.779	17554.51
505.982	17706.06
506.185	17923.14
506.387	17912.9
506.59	18433.08
506.793	18664.5
506.996	18705.46
507.198	19295.28
507.401	18947.12
507.604	19145.78
507.807	19751.98
508.009	19434.54
508.212	19864.61
508.415	19956.77
508.617	20161.57
508.82	20313.12
509.022	20298.78
509.225	21156.88
509.428	21011.48
509.63	21384.21
509.833	21345.3
510.035	21838.86
510.238	21699.59
510.44	21832.71
510.643	22299.65
510.845	22277.12
511.048	22262.79
511.25	22746.11
511.453	22934.52
511.655	23673.84
511.858	23276.53
512.06	23739.37
512.262	23827.43
512.465	23882.73
512.667	24196.07
512.87	24364
513.072	24505.31
513.274	24751.07
513.477	25179.09
513.679	25625.55
513.881	25560.02
514.084	25830.35
514.286	25988.04
514.488	26254.28
514.69	26819.52
514.893	26768.32
515.095	26850.24
515.297	27270.07
515.499	27472.82
515.701	27747.25
515.904	27896.75
516.106	28171.18
516.308	28253.09
516.51	28593.06
516.712	28507.04
516.914	28685.22
517.116	29369.24
517.318	29483.92
517.52	29989.77
517.722	29619.09
517.925	30073.74
518.127	30350.21
518.329	30739.33
518.531	30292.87
518.733	30956.41
518.935	31267.7
519.136	31294.33
519.338	31699.83
519.54	32095.08
519.742	32287.59
519.944	32463.72
520.146	32822.11
520.348	33084.25
520.55	32992.09
520.752	33444.69
520.954	33606.48
521.155	33751.89
521.357	34253.64
521.559	34026.32
521.761	34784.07
521.963	34538.31
522.164	35072.83
522.366	35156.8
522.568	35570.49
522.77	35613.49
522.971	35924.79
523.173	35806
523.375	36174.64
523.576	36301.61
523.778	36193.07
523.98	36645.67
524.181	36948.77
524.383	36842.28
524.584	37294.88
524.786	37188.38
524.988	37208.86
525.189	37655.32
525.391	37616.41
525.592	37845.78
525.794	38005.52
525.995	38331.15
526.197	37995.28
526.398	38322.96
526.6	38560.52
526.801	39000.83
527.003	38941.44
527.204	38849.28
527.406	39133.95
527.607	39371.52
527.808	39592.7
528.01	38853.38
528.211	39617.27
528.412	39987.96
528.614	39574.27
528.815	40207.09
529.016	40289.01
529.218	39895.8
529.419	40114.93
529.62	40239.86
529.822	40096.5
530.023	40418.03
530.224	40196.85
530.425	40442.6
530.626	40262.38
530.828	40147.7
531.029	40973.03
531.23	40725.22
531.431	40962.79
531.632	40717.03
531.833	40973.03
532.035	41001.7
532.236	40669.93
532.437	40960.74
532.638	41065.19
532.839	40985.32
533.04	41116.39
533.241	40502
533.442	41820.89
533.643	40960.74
533.844	41157.35
534.045	40930.02
534.246	40641.26
534.447	41370.33
534.648	41067.23
534.849	41550.56
535.05	40993.51
535.251	41288.42
535.451	40925.92
535.652	41274.08
535.853	41013.99
536.054	41255.65
536.255	41661.15
536.456	41120.48
536.657	41911
536.857	41429.73
537.058	41315.04
537.259	41081.57
537.46	41646.81
537.66	41384.67
537.861	41210.59
538.062	41485.02
538.263	41532.12
538.463	41245.41
538.664	41663.19
538.865	41822.94
539.065	41356
539.266	41120.48
539.466	41343.71
539.667	40708.84
539.868	41845.46
540.068	41265.89
540.269	41085.67
540.469	41603.8
540.67	41089.76
540.87	41261.79
541.071	41327.33
541.271	41407.2
541.472	41323.23
541.672	41136.87
541.873	41069.28
542.073	40411.88
542.274	41685.72
542.474	41452.25
542.675	41052.9
542.875	41538.27
543.075	40958.69
543.276	40874.73
543.476	41370.33
543.676	41163.49
543.877	41257.7
544.077	41331.42
544.277	41132.77
544.478	41130.72
544.678	41493.21
544.878	41251.55
545.078	41276.13
545.279	40708.84
545.479	40325.87
545.679	41218.78
545.879	41339.61
546.079	41102.05
546.28	40917.73
546.48	40760.04
546.68	41169.63
546.88	41249.5
547.08	40790.76
547.28	41116.39
547.48	40676.07
547.68	40751.85
547.88	40436.46
548.081	41044.71
548.281	40993.51
548.481	40780.52
548.681	40829.67
548.881	40604.39
549.081	40964.84
549.28	40946.4
549.48	40979.17
549.68	40903.4
549.88	41599.71
550.08	40950.5
550.28	41216.74
550.48	41013.99
550.68	40987.36
550.88	41016.04
551.08	40794.85
551.279	40772.33
551.479	40516.33
551.679	40850.15
551.879	40549.1
552.079	41276.13
552.278	40612.59
552.478	40628.97
552.678	40682.22
552.878	40860.39
553.077	40702.7
553.277	40456.94
553.477	41065.19
553.676	40438.51
553.876	40880.87
554.076	40481.52
554.275	40393.45
554.475	40223.47
554.674	40579.82
554.874	40454.89
555.074	40448.75
555.273	40764.14
555.473	40620.78
555.672	40035.06
555.872	40620.78
556.071	40422.12
556.271	40610.54
556.47	40295.15
556.67	39789.3
556.869	40192.75
557.068	40401.64
557.268	40135.41
557.467	40217.33
557.667	40313.58
557.866	40399.6
558.065	40026.87
558.265	39854.84
558.464	40135.41
558.663	40334.06
558.863	39918.32
559.062	40096.5
559.261	39783.16
559.461	39973.62
559.66	39473.92
559.859	39961.33
560.058	39627.51
560.258	39961.33
560.457	39422.72
560.656	39518.97
560.855	39588.6
561.054	39826.17
561.253	39383.8
561.453	39293.69
561.652	39629.56
561.851	39809.78
562.05	39043.84
562.249	38929.16
562.448	39455.48
562.647	39312.13
562.846	39121.66
563.045	39252.73
563.244	38914.82
563.443	39369.47
563.642	38888.2
563.841	39058.18
564.04	38978.31
564.239	38992.64
564.438	38574.86
564.637	38822.66
564.836	38591.24
565.035	38368.01
565.234	38759.17
565.432	38898.44
565.631	38439.69
565.83	38542.09
566.029	38376.2
566.228	38216.46
566.427	38103.82
566.625	38353.68
566.824	37876.5
567.023	38155.02
567.222	37597.98
567.42	38576.9
567.619	37843.73
567.818	38056.72
568.016	37520.15
568.215	37942.03
568.414	37688.09
568.612	38271.76
568.811	37505.82
569.01	37653.27
569.208	37241.63
569.407	37626.65
569.605	36973.35
569.804	37456.67
570.002	37243.68
570.201	37552.92
570.4	36750.12
570.598	36684.58
570.797	36879.14
570.995	37116.7
571.193	36545.32
571.392	37243.68
571.59	36801.32
571.789	36741.92
571.987	36510.5
572.186	36827.94
572.384	36541.22
572.582	36522.79
572.781	36430.63
572.979	35914.55
573.177	36344.62
573.376	36342.57
573.574	35945.26
573.772	35912.5
573.971	35615.54
574.169	35861.3
574.367	35615.54
574.565	36027.18
574.763	35357.5
574.962	35363.64
575.16	35097.41
575.358	35601.21
575.556	35177.28
575.754	35564.34
575.952	35052.35
576.151	35308.35
576.349	34700.1
576.547	35105.6
576.745	34874.18
576.943	35146.56
577.141	34917.18
577.339	35218.24
577.537	34810.69
577.735	34978.62
577.933	34374.47
578.131	34454.34
578.329	34267.98
578.527	34231.11
578.725	34331.47
578.923	34380.62
579.121	34130.76
579.319	34050.89
579.516	34157.39
579.714	34194.25
579.912	33987.41
580.11	33665.88
580.308	33698.64
580.506	33596.24
580.704	33233.75
580.901	33569.62
581.099	33807.19
581.297	33319.77
581.495	33336.15
581.692	33471.32
581.89	33145.69
582.088	33389.4
582.285	32920.42
582.483	33340.25
582.681	33172.32
582.878	32887.65
583.076	33018.72
583.274	33215.32
583.471	32076.65
583.669	32795.49
583.866	32031.6
584.064	32566.12
584.262	32000.88
584.459	32592.74
584.657	31855.47
584.854	32529.25
585.052	31660.91
585.249	32146.28
585.447	32148.33
585.644	31560.56
585.841	31984.49
586.039	32189.29
586.236	31628.15
586.434	31400.82
586.631	31019.9
586.828	31636.34
587.026	31333.24
587.223	31449.97
587.42	30929.79
587.618	31239.03
587.815	30866.3
588.012	31148.92
588.21	30794.62
588.407	30999.42
588.604	30673.79
588.801	30546.82
588.999	30329.73
589.196	30210.95
589.393	30475.14
589.59	30380.93
589.787	30284.68
589.984	29903.76
590.182	29864.85
590.379	30663.55
590.576	29643.67
590.773	29946.76
590.97	29830.03
591.167	29762.45
591.364	29440.92
591.561	29614.99
591.758	29336.47
591.955	29223.83
592.152	29451.16
592.349	29166.49
592.546	29528.98
592.743	29174.68
592.94	28513.19
593.137	29113.24
593.334	29191.06
593.531	28509.09
593.727	28949.4
593.924	28801.95
594.121	28251.05
594.318	28826.53
594.515	28101.54
594.712	28591.01
594.908	28285.86
595.105	28414.88
595.302	27980.71
595.499	28314.53
595.696	28064.68
595.892	27902.89
596.089	27902.89
596.286	28085.16
596.482	27892.65
596.679	28009.39
596.876	27614.13
597.072	27454.39
597.269	27343.8
597.466	27341.75
597.662	26936.25
597.859	27349.94
598.055	27401.14
598.252	26901.43
598.448	27210.68
598.645	26592.19
598.841	26790.84
599.038	26864.57
599.234	27095.99
599.431	26264.52
599.627	26735.55
599.824	26612.67
600.02	26313.67
600.217	26495.94
600.413	26108.87
600.609	26117.06
600.806	26037.19
601.002	26266.56
601.198	25977.8
601.395	25975.75
601.591	25936.84
601.787	25549.78
601.984	25668.56
602.18	25701.33
602.376	25697.23
602.572	25435.09
602.769	25502.67
602.965	25267.16
603.161	25224.15
603.357	25127.89
603.553	25035.74
603.75	25287.64
603.946	24966.1
604.142	25091.03
604.338	24812.51
604.534	25367.51
604.73	24349.67
604.926	24749.02
605.122	24558.56
605.318	24364
605.514	24335.33
605.71	24183.78
605.906	24251.36
606.102	24320.99
606.298	24214.5
606.494	24011.75
606.69	24067.05
606.886	24218.6
607.082	23770.09
607.278	24161.25
607.474	23712.75
607.67	23954.41
607.866	23428.08
608.062	24247.27
608.257	23886.82
608.453	23706.6
608.649	23682.03
608.845	23546.86
609.041	23520.24
609.236	23735.28
609.432	23516.14
609.628	23301.11
609.824	23288.82
610.019	22924.28
610.215	23397.36
610.411	23464.94
610.606	23356.4
610.802	22983.67
610.998	23264.24
611.193	23155.7
611.389	22950.9
611.584	22860.79
611.78	22696.95
611.976	23010.29
612.171	22907.9
612.367	22748.15
612.562	22725.63
612.758	22750.2
612.953	22543.36
613.149	22653.95
613.344	22361.09
613.539	22959.1
613.735	22807.55
613.93	22549.5
614.126	22340.61
614.321	22735.87
614.517	22555.65
614.712	22467.58
614.907	22348.8
615.103	22494.21
615.298	22440.96
615.493	22377.47
615.688	22057.99
615.884	22713.34
616.079	21986.31
616.274	22051.84
616.47	22107.14
616.665	22072.32
616.86	22023.17
617.055	22031.37
617.25	21945.35
617.445	22082.56
617.641	21548.04
617.836	21976.07
618.031	21681.16
618.226	21982.21
618.421	21429.26
618.616	21820.42
618.811	21451.79
619.006	21711.88
619.201	21310.48
619.396	21421.07
619.591	21218.32
619.786	21746.7
619.981	20966.42
620.176	21079.06
620.371	20841.5
620.566	20984.85
620.761	20708.38
620.956	20821.02
621.151	20620.31
621.346	20579.36
621.541	20112.42
621.735	20651.03
621.93	20153.38
622.125	20118.56
622.32	19749.93
622.515	19760.17
622.709	19663.91
622.904	19665.96
623.099	19524.65
623.294	19811.37
623.488	19285.04
623.683	19430.44
623.878	19035.19
624.072	19239.98
624.267	19072.05
624.462	18857.01
624.656	18623.55
624.851	18527.29
625.046	18803.77
625.24	18488.38
625.435	18371.65
625.629	18472
625.824	18367.55
626.018	18060.35
626.213	18019.39
626.407	17943.62
626.602	18074.69
626.796	17980.48
626.991	17857.6
627.185	17585.22
627.38	17544.27
627.574	17509.45
627.768	17368.14
627.963	16952.4
628.157	16964.69
628.352	17235.02
628.546	16931.92
628.74	16974.93
628.935	16714.84
629.129	16628.82
629.323	16518.23
629.517	16637.02
629.712	16395.36
629.906	16348.25
630.1	16190.56
630.294	16221.28
630.489	15705.19
630.683	16258.14
630.877	15881.31
631.071	15967.33
631.265	15969.38
631.459	15721.57
631.653	15834.21
631.848	15527.02
632.042	15369.32
632.236	15217.77
632.43	15500.39
632.624	15500.39
632.818	15262.83
633.012	14992.5
633.206	15119.47
633.4	15144.05
633.594	14675.06
633.788	14709.88
633.982	14926.96
634.176	14627.96
634.369	14468.22
634.563	14494.84
634.757	14566.52
634.951	14472.31
635.145	14296.19
635.339	14232.7
635.533	14249.08
635.726	14429.31
635.92	14034.05
636.114	14275.71
636.308	13864.07
636.501	14058.62
636.695	13995.14
636.889	13546.63
637.083	13608.07
637.276	13542.53
637.47	13446.28
637.664	13419.66
637.857	13491.34
638.051	13530.25
638.244	13337.74
638.438	13294.73
638.632	13124.75
638.825	13208.72
639.019	12958.86
639.212	12684.44
639.406	12762.26
639.599	12770.45
639.793	12831.89
639.986	12528.79
640.18	12579.99
640.373	12534.93
640.567	12264.6
640.76	12350.62
640.954	12348.57
641.147	12356.76
641.34	12035.23
641.534	12323.99
641.727	12100.76
641.92	12059.81
642.114	11848.86
642.307	12012.7
642.5	11834.53
642.694	11685.03
642.887	11848.86
643.08	11678.88
643.273	11560.1
643.467	11771.04
643.66	11435.17
643.853	11443.37
644.046	11246.76
644.239	11375.78
644.432	11394.22
644.626	11113.64
644.819	11222.19
645.012	11279.53
645.205	11193.51
645.398	11177.13
645.591	10781.87
645.784	10976.43
645.977	10761.39
646.17	10761.39
646.363	10572.98
646.556	10534.07
646.749	10634.42
646.942	10468.53
647.135	10310.84
647.328	10380.47
647.521	10644.66
647.714	10355.9
647.907	10405.05
648.099	10247.35
648.292	10192.06
648.485	10179.77
648.678	10112.19
648.871	10116.28
649.064	10009.79
649.256	9956.54
649.449	9958.59
649.642	9817.28
649.835	9682.11
650.027	9862.33
650.22	9655.49
650.413	9553.09
650.605	9759.94
650.798	9678.02
650.991	9530.56
651.183	9610.43
651.376	9200.84
651.568	9518.28
651.761	9336.01
651.954	9503.94
652.146	9116.87
652.339	9092.3
652.531	9080.01
652.724	9194.7
652.916	8928.46
653.109	9002.19
653.301	8899.79
653.494	8926.41
653.686	8785.1
653.879	8740.05
654.071	8692.94
654.263	8660.18
654.456	8742.1
654.648	8754.38
654.84	8633.55
655.033	8541.4
655.225	8561.87
655.417	8479.96
655.61	8500.44
655.802	8287.45
655.994	8180.95
656.186	8314.07
656.379	8334.55
656.571	8422.61
656.763	8144.09
656.955	8103.13
657.148	8191.19
657.34	8088.79
657.532	7963.87
657.724	8066.27
657.916	7779.55
658.108	7988.44
658.3	7867.61
658.492	7781.6
658.684	7763.17
658.876	7851.23
659.068	7701.73
659.26	7519.46
659.452	7738.59
659.644	7689.44
659.836	7681.25
660.028	7548.13
660.22	7408.87
660.412	7322.85
660.604	7228.65
660.796	7238.89
660.988	7318.76
661.18	7339.24
661.372	7222.5
661.563	7261.41
661.755	7339.24
661.947	7259.37
662.139	7257.32
662.331	7177.45
662.522	6978.79
662.714	6860.01
662.906	7017.71
663.097	6986.99
663.289	6741.23
663.481	6847.72
663.673	6778.09
663.864	6759.66
664.056	6606.06
664.247	6591.73
664.439	6462.71
664.631	6700.27
664.822	6624.5
665.014	6614.26
665.205	6474.99
665.397	6466.8
665.588	6604.02
665.78	6477.04
665.971	6411.51
666.163	6620.4
666.354	6380.79
666.546	6292.73
666.737	6409.46
666.929	6284.53
667.12	6141.18
667.311	6194.42
667.503	6219
667.694	6325.49
667.885	6128.89
668.077	6175.99
668.268	6112.5
668.459	6110.46
668.651	5870.84
668.842	5903.61
669.033	5917.95
669.224	5909.76
669.416	5909.76
669.607	5829.88
669.798	5926.14
669.989	5813.5
670.18	5772.54
670.371	5793.02
670.563	5760.25
670.754	5866.75
670.945	5717.25
671.136	5739.77
671.327	5649.66
671.518	5596.42
671.709	5637.38
671.9	5727.49
672.091	5500.16
672.282	5633.28
672.473	5414.15
672.664	5502.21
672.855	5383.43
673.046	5518.59
673.237	5457.15
673.428	5520.64
673.619	5496.07
673.809	5313.8
674	5346.56
674.191	5338.37
674.382	5303.56
674.573	5328.13
674.764	5264.64
674.954	5242.12
675.145	5227.78
675.336	5301.51
675.527	5240.07
675.717	5295.36
675.908	5149.96
676.099	5100.81
676.289	5109
676.48	5104.9
676.671	5078.28
676.861	4963.59
677.052	5061.9
677.243	4924.68
677.433	4947.21
677.624	5070.09
677.814	5020.94
678.005	4959.5
678.195	4971.79
678.386	4967.69
678.576	4891.91
678.767	4959.5
678.957	4893.96
679.148	4896.01
679.338	4838.67
679.529	4797.71
679.719	4719.89
679.909	4814.09
680.1	4771.08
680.29	4623.63
680.481	4785.42
680.671	4799.76
680.861	4736.27
681.052	4740.36
681.242	4734.22
681.432	4728.08
681.622	4654.35
681.813	4576.53
682.003	4713.74
682.193	4662.54
682.383	4635.92
682.573	4687.12
682.764	4621.58
682.954	4607.25
683.144	4545.81
683.334	4547.86
683.524	4379.92
683.714	4433.17
683.904	4459.79
684.094	4470.03
684.284	4363.54
684.474	4461.84
684.664	4429.07
684.854	4410.64
685.044	4361.49
685.234	4443.41
685.424	4398.35
685.614	4402.45
685.804	4406.55
685.994	4250.9
686.184	4279.57
686.374	4400.4
686.564	4271.38
686.753	4246.8
686.943	4142.36
687.133	4300.05
687.323	4164.89
687.513	4285.72
687.702	4066.58
687.892	4119.83
688.082	4048.15
688.272	4082.97
688.461	4171.03
688.651	4052.25
688.841	3955.99
689.03	4107.54
689.22	3839.26
689.41	3980.57
689.599	4050.2
689.789	3890.46
689.979	4078.87
690.168	4005.14
690.358	3910.94
690.547	3855.64
690.737	3796.25
690.926	3935.51
691.116	3869.98
691.305	3824.92
691.495	3656.99
691.684	3906.84
691.874	3804.44
692.063	3906.84
692.252	3732.76
692.442	3798.3
692.631	3654.94
692.82	3695.9
693.01	3540.26
693.199	3669.28
693.388	3562.78
693.578	3556.64
693.767	3611.93
693.956	3689.76
694.146	3591.45
694.335	3548.45
694.524	3525.92
694.713	3458.34
694.902	3382.56
695.092	3468.58
695.281	3540.26
695.47	3552.54
695.659	3423.52
695.848	3452.19
696.037	3425.57
696.226	3325.22
696.415	3433.76
696.604	3374.37
696.793	3374.37
696.982	3452.19
697.171	3409.19
697.36	3263.78
697.549	3376.42
697.738	3153.19
697.927	3323.17
698.116	3210.53
698.305	3188
698.494	3302.69
698.683	3329.31
698.872	3261.73
699.061	3310.88
699.25	3208.48
699.438	3292.45
699.627	3097.89
699.816	3130.66
700.005	3200.29
700.193	3288.36
700.382	3300.64
700.571	3251.49
700.76	3140.9
700.948	3134.76
701.137	3300.64
701.326	3175.72
701.514	3063.08
701.703	3155.24
701.892	3056.93
702.08	3241.25
702.269	2950.44
702.457	3130.66
702.646	3138.85
702.834	3018.02
703.023	3079.46
703.212	3196.2
703.4	3151.14
703.589	3050.79
703.777	3134.76
703.965	3022.12
704.154	3061.03
704.342	2954.54
704.531	3009.83
704.719	2993.45
704.907	3083.56
705.096	2913.58
705.284	2968.87
705.472	2936.1
705.661	3044.65
705.849	3005.74
706.037	2919.72
706.226	3091.75
706.414	2899.24
706.602	2919.72
706.79	2979.11
706.979	3095.85
707.167	2952.49
707.355	2876.71
707.543	3001.64
707.731	2968.87
707.919	3018.02
708.107	2970.92
708.296	2997.54
708.484	2966.82
708.672	2882.86
708.86	3009.83
709.048	2999.59
709.236	2929.96
709.424	2960.68
709.612	2960.68
709.8	2979.11
709.988	2983.21
710.176	2878.76
710.364	2913.58
710.551	2878.76
710.739	2864.43
710.927	3011.88
711.115	2903.34
711.303	3036.45
711.491	2886.95
711.679	2923.82
711.866	2919.72
712.054	2913.58
712.242	2874.67
712.43	2981.16
712.617	2940.2
712.805	2866.47
712.993	2932.01
713.181	2882.86
713.368	2995.5
713.556	3015.98
713.744	2825.51
713.931	2927.91
714.119	2792.75
714.306	2841.9
714.494	2731.31
714.682	2872.62
714.869	2784.55
715.057	2872.62
715.244	2862.38
715.432	2772.27
715.619	2944.3
715.807	2962.73
715.994	2878.76
716.182	2780.46
716.369	2940.2
716.556	2843.95
716.744	2811.18
716.931	2741.55
717.119	2923.82
717.306	2843.95
717.493	2866.47
717.681	2868.52
717.868	2852.14
718.055	2782.51
718.242	2884.91
718.43	2880.81
718.617	2909.48
718.804	2839.85
718.991	2823.47
719.179	2872.62
719.366	2864.43
719.553	2845.99
719.74	2733.36
719.927	2964.78
720.114	2661.68
720.301	2798.89
720.488	2759.98
720.676	2749.74
720.863	2802.99
721.05	2843.95
721.237	2882.86
721.424	2708.78
721.611	2829.61
721.798	2782.51
721.985	2706.73
722.172	2729.26
722.358	2807.08
722.545	2815.27
722.732	2766.12
722.919	2759.98
723.106	2845.99
723.293	2886.95
723.48	2839.85
723.667	2807.08
723.853	2829.61
724.04	2741.55
724.227	2647.34
724.414	2782.51
724.6	2774.31
724.787	2796.84
724.974	2821.42
725.161	2743.6
725.347	2839.85
725.534	2774.31
725.72	2813.23
725.907	2686.25
726.094	2643.24
726.28	2678.06
726.467	2747.69
726.653	2737.45
726.84	2866.47
727.027	2776.36
727.213	2702.64
727.4	2796.84
727.586	2813.23
727.773	2694.44
727.959	2882.86
728.145	2645.29
728.332	2807.08
728.518	2749.74
728.705	2821.42
728.891	2788.65
729.077	2694.44
729.264	2725.16
729.45	2624.81
729.636	2729.26
729.823	2690.35
730.009	2762.03
730.195	2723.12
730.382	2778.41
730.568	2700.59
730.754	2661.68
730.94	2639.15
731.126	2684.2
731.313	2811.18
731.499	2641.2
731.685	2663.72
731.871	2655.53
732.057	2798.89
732.243	2696.49
732.429	2614.57
732.615	2725.16
732.801	2663.72
732.987	2784.55
733.173	2735.4
733.359	2712.88
733.545	2749.74
733.731	2737.45
733.917	2739.5
734.103	2669.87
734.289	2663.72
734.475	2659.63
734.661	2798.89
734.847	2565.42
735.033	2731.31
735.219	2704.68
735.404	2598.19
735.59	2626.86
735.776	2618.67
735.962	2651.44
736.148	2633.01
736.333	2626.86
736.519	2747.69
736.705	2612.53
736.89	2630.96
737.076	2663.72
737.262	2546.99
737.447	2628.91
737.633	2622.77
737.819	2571.57
738.004	2571.57
738.19	2487.6
738.375	2508.08
738.561	2645.29
738.747	2536.75
738.932	2491.7
739.118	2573.61
739.303	2633.01
739.489	2651.44
739.674	2573.61
739.859	2473.26
740.045	2635.05
740.23	2501.94
740.416	2364.72
740.601	2454.83
740.786	2551.09
740.972	2534.7
741.157	2495.79
741.342	2381.1
741.528	2512.17
741.713	2487.6
741.898	2446.64
742.084	2487.6
742.269	2434.35
742.454	2438.45
742.639	2530.61
742.824	2387.25
743.01	2348.34
743.195	2520.37
743.38	2327.86
743.565	2463.02
743.75	2434.35
743.935	2340.15
744.12	2417.97
744.305	2334
744.49	2391.34
744.675	2221.36
744.86	2223.41
745.045	2280.75
745.23	2311.47
745.415	2247.99
745.6	2348.34
745.785	2223.41
745.97	2258.23
746.155	2280.75
746.34	2176.31
746.525	2118.96
746.71	2237.75
746.895	2217.27
747.079	2219.32
747.264	2159.92
747.449	2202.93
747.634	2176.31
747.819	2133.3
748.003	2084.15
748.188	1996.09
748.373	2063.67
748.557	2024.76
748.742	2164.02
748.927	1996.09
749.111	2032.95
749.296	2045.24
749.481	1944.89
749.665	1936.7
749.85	2006.33
750.034	2004.28
750.219	1985.85
750.404	1971.51
750.588	1951.03
750.773	1928.5
750.957	1885.5
751.141	1922.36
751.326	1955.13
751.51	1779
751.695	1787.19
751.879	1811.77
752.064	1897.78
752.248	1891.64
752.432	1756.47
752.617	1881.4
752.801	1834.3
752.985	1715.52
753.17	1819.96
753.354	1774.91
753.538	1789.24
753.722	1758.52
753.907	1772.86
754.091	1705.28
754.275	1785.15
754.459	1692.99
754.643	1662.27
754.828	1705.28
755.012	1654.08
755.196	1512.77
755.38	1555.77
755.564	1539.39
755.748	1578.3
755.932	1615.16
756.116	1516.86
756.3	1629.5
756.484	1551.68
756.668	1561.92
756.852	1473.85
757.036	1617.21
757.22	1494.33
757.404	1535.29
757.588	1486.14
757.772	1494.33
757.956	1512.77
758.14	1533.25
758.323	1465.66
758.507	1477.95
758.691	1414.46
758.875	1502.53
759.059	1426.75
759.242	1443.14
759.426	1353.02
759.61	1432.9
759.794	1340.74
759.977	1475.9
760.161	1418.56
760.345	1353.02
760.528	1377.6
760.712	1367.36
760.895	1363.26
761.079	1371.46
761.263	1371.46
761.446	1267.01
761.63	1312.07
761.813	1256.77
761.997	1215.81
762.18	1221.95
762.364	1281.35
762.547	1264.96
762.731	1232.19
762.914	1314.11
763.098	1277.25
763.281	1355.07
763.464	1344.83
763.648	1279.3
763.831	1226.05
764.015	1224
764.198	1256.77
764.381	1201.47
764.564	1215.81
764.748	1189.19
764.931	1297.73
765.114	1062.21
765.297	1193.28
765.481	1178.95
765.664	1219.91
765.847	1181
766.03	1156.42
766.213	1199.43
766.397	1115.46
766.58	1097.03
766.763	1090.88
766.946	1097.03
767.129	1070.4
767.312	1123.65
767.495	1109.32
767.678	1101.12
767.861	1029.45
768.044	1092.93
768.227	1213.76
768.41	998.73
768.593	1101.12
768.776	1099.08
768.959	1125.7
769.142	1058.12
769.324	992.58
769.507	1056.07
769.69	1033.54
769.873	1056.07
770.056	1039.69
770.239	1103.17
770.421	1113.41
770.604	898.38
770.787	894.28
770.97	1047.88
771.152	961.86
771.335	933.19
771.518	957.77
771.7	976.2
771.883	1021.25
772.066	1017.16
772.248	1015.11
772.431	957.77
772.613	914.76
772.796	910.66
772.978	908.62
773.161	939.34
773.343	996.68
773.526	859.46
773.708	988.49
773.891	906.57
774.073	943.43
774.256	945.48
774.438	912.71
774.621	912.71
774.803	834.89
774.985	834.89
775.168	871.75
775.35	875.85
775.532	853.32
775.715	818.5
775.897	871.75
776.079	808.26
776.261	841.03
776.444	787.79
776.626	828.74
776.808	816.46
776.99	836.94
777.173	736.59
777.355	783.69
777.537	814.41
777.719	830.79
777.901	769.35
778.083	705.87
778.265	697.67
778.447	687.43
778.629	732.49
778.811	716.11
778.993	826.7
779.175	845.13
779.357	699.72
779.539	662.86
779.721	654.67
779.903	752.97
780.085	701.77
780.267	671.05
780.449	658.76
780.631	644.43
780.812	666.96
780.994	666.96
781.176	673.1
781.358	644.43
781.54	671.05
781.721	697.67
781.903	607.56
782.085	644.43
782.267	654.67
782.448	636.24
782.63	609.61
782.812	578.89
782.993	589.13
783.175	591.18
783.357	566.6
783.538	572.75
783.72	548.17
783.901	537.93
784.083	542.03
784.264	523.6
784.446	570.7
784.627	636.24
784.809	617.8
784.99	492.88
785.172	607.56
785.353	562.51
785.535	564.56
785.716	564.56
785.897	558.41
786.079	496.97
786.26	466.25
786.441	578.89
786.623	458.06
786.804	482.64
786.985	494.93
787.167	410.96
787.348	501.07
787.529	460.11
787.71	476.49
787.891	496.97
788.073	384.34
788.254	413.01
788.435	568.65
788.616	507.21
788.797	492.88
788.978	519.5
789.159	437.58
789.34	458.06
789.522	417.1
789.703	478.54
789.884	453.97
790.065	484.69
790.246	468.3
790.427	419.15
790.607	425.29
790.788	492.88
790.969	396.62
791.15	445.77
791.331	482.64
791.512	451.92
791.693	382.29
791.874	443.73
792.054	462.16
792.235	451.92
792.416	392.53
792.597	337.23
792.778	288.08
792.958	316.75
793.139	415.05
793.32	396.62
793.5	443.73
793.681	413.01
793.862	404.82
794.042	298.32
794.223	298.32
794.404	249.17
794.584	302.42
794.765	384.34
794.945	339.28
795.126	357.71
795.306	406.86
795.487	361.81
795.667	370
795.848	374.1
796.028	347.47
796.209	382.29
796.389	384.34
796.57	286.03
796.75	402.77
796.93	302.42
797.111	304.46
797.291	298.32
797.471	339.28
797.652	357.71
797.832	216.4
798.012	288.08
798.192	240.98
798.373	318.8
798.553	283.98
798.733	357.71
798.913	304.46
799.093	310.61
799.274	324.94
799.454	351.57
799.634	351.57
799.814	292.18
799.994	240.98
800.174	308.56
800.354	279.89
800.534	277.84
800.714	349.52
800.894	240.98
801.074	228.69
801.254	269.65
801.434	279.89
801.614	343.38
801.794	300.37
801.974	650.57
802.154	331.09
802.334	300.37
802.514	249.17
802.693	226.64
802.873	335.18
803.053	322.9
803.233	253.27
803.413	286.03
803.592	224.59
803.772	251.22
803.952	247.12
804.131	251.22
804.311	314.7
804.491	251.22
804.67	236.88
804.85	218.45
805.03	185.68
805.209	292.18
805.389	230.74
805.568	230.74
805.748	220.5
805.928	243.03
806.107	214.35
806.287	212.31
806.466	216.4
806.646	228.69
806.825	247.12
807.004	247.12
807.184	232.79
807.363	324.94
807.543	234.83
807.722	249.17
807.901	259.41
808.081	234.83
808.26	138.58
808.439	249.17
808.619	253.27
808.798	212.31
808.977	216.4
809.156	249.17
809.336	214.35
809.515	255.31
809.694	210.26
809.873	140.63
810.052	202.07
810.231	177.49
810.411	218.45
810.59	245.07
810.769	224.59
810.948	216.4
811.127	191.83
811.306	187.73
811.485	234.83
811.664	265.55
811.843	189.78
812.022	148.82
812.201	122.2
812.38	169.3
812.559	234.83
812.737	111.96
812.916	169.3
813.095	171.35
813.274	210.26
813.453	210.26
813.632	185.68
813.811	312.66
813.989	220.5
814.168	200.02
814.347	126.29
814.526	124.24
814.704	218.45
814.883	128.34
815.062	220.5
815.24	251.22
815.419	202.07
815.598	173.39
815.776	185.68
815.955	312.66
816.133	89.43
816.312	224.59
816.49	183.63
816.669	159.06
816.847	140.63
817.026	140.63
817.204	99.67
817.383	206.16
817.561	157.01
817.74	204.11
817.918	161.11
818.097	214.35
818.275	165.2
818.453	171.35
818.632	126.29
818.81	165.2
818.988	175.44
819.167	107.86
819.345	116.05
819.523	169.3
819.701	152.91
819.879	161.11
820.058	126.29
820.236	87.38
820.414	118.1
820.592	148.82
820.77	118.1
820.948	154.96
821.127	173.39
821.305	159.06
821.483	124.24
821.661	245.07
821.839	111.96
822.017	185.68
822.195	157.01
822.373	159.06
822.551	165.2
822.729	195.92
822.907	165.2
823.085	191.83
823.262	66.9
823.44	89.43
823.618	87.38
823.796	66.9
823.974	116.05
824.152	202.07
824.329	122.2
824.507	95.57
824.685	71
824.863	103.76
825.04	144.72
825.218	91.48
825.396	97.62
825.574	144.72
825.751	189.78
825.929	146.77
826.107	44.37
826.284	157.01
826.462	120.15
826.639	46.42
826.817	132.44
826.994	107.86
827.172	95.57
827.349	208.21
827.527	101.72
827.704	124.24
827.882	118.1
828.059	114
828.237	93.52
828.414	116.05
828.591	81.24
828.769	136.53
828.946	87.38
829.124	77.14
829.301	118.1
829.478	101.72
829.655	85.33
829.833	124.24
830.01	89.43
830.187	159.06
830.364	124.24
830.542	42.32
830.719	89.43
830.896	134.48
831.073	13.65
831.25	130.39
831.427	109.91
831.604	126.29
831.782	120.15
831.959	116.05
832.136	120.15
832.313	161.11
832.49	62.8
832.667	124.24
832.844	126.29
833.021	101.72
833.198	128.34
833.374	81.24
833.551	122.2
833.728	71
833.905	116.05
834.082	75.09
834.259	105.81
834.436	75.09
834.612	36.18
834.789	83.28
834.966	71
835.143	114
835.319	64.85
835.496	175.44
835.673	64.85
835.85	107.86
836.026	150.87
836.203	40.28
836.38	77.14
836.556	44.37
836.733	77.14
836.909	202.07
837.086	44.37
837.262	122.2
837.439	36.18
837.616	48.47
837.792	44.37
837.968	60.76
838.145	81.24
838.321	32.08
838.498	87.38
838.674	91.48
838.851	68.95
839.027	48.47
839.203	23.89
839.38	111.96
839.556	73.04
839.732	60.76
839.909	91.48
840.085	126.29
840.261	75.09
840.437	64.85
840.614	32.08
840.79	175.44
840.966	48.47
841.142	62.8
841.318	34.13
841.494	157.01
841.671	83.28
841.847	144.72
842.023	44.37
842.199	56.66
842.375	130.39
842.551	36.18
842.727	15.7
842.903	60.76
843.079	52.56
843.255	120.15
843.431	56.66
843.607	68.95
843.783	50.52
843.959	91.48
844.134	58.71
844.31	103.76
844.486	-41.64
844.662	120.15
844.838	30.04
845.013	62.8
845.189	114
845.365	126.29
845.541	13.65
845.716	89.43
845.892	50.52
846.068	91.48
846.244	52.56
846.419	91.48
846.595	1.37
846.77	60.76
846.946	-29.35
847.122	91.48
847.297	54.61
847.473	124.24
847.648	40.28
847.824	71
847.999	60.76
848.175	101.72
848.35	50.52
848.526	50.52
848.701	3.41
848.876	93.52
849.052	89.43
849.227	11.61
849.403	-2.73
849.578	109.91
849.753	44.37
849.929	77.14
850.104	30.04
850.279	50.52
850.454	64.85
850.63	109.91
850.805	64.85
850.98	99.67
851.155	109.91
851.33	54.61
851.505	40.28
851.681	111.96
851.856	-23.21
852.031	56.66
852.206	52.56
852.381	50.52
852.556	27.99
852.731	11.61
852.906	5.46
853.081	89.43
853.256	68.95
853.431	85.33
853.606	64.85
853.781	44.37
853.956	-31.4
854.131	30.04
854.305	19.8
854.48	-10.92
854.655	40.28
854.83	5.46
855.005	48.47
855.18	36.18
855.354	34.13
855.529	93.52
855.704	38.23
855.879	85.33
856.053	30.04
856.228	83.28
856.403	-8.87
856.577	79.19
856.752	-27.31
856.926	9.56
857.101	97.62
857.276	21.84
857.45	-2.73
857.625	50.52
857.799	36.18
857.974	60.76
858.148	-15.02
858.323	-17.07
858.497	-12.97
858.672	23.89
858.846	7.51
859.02	93.52
859.195	32.08
859.369	42.32
859.543	-29.35
859.718	50.52
859.892	1.37
860.066	3.41
860.241	19.8
860.415	66.9
860.589	68.95
860.763	19.8
860.938	17.75
861.112	30.04
861.286	107.86
861.46	7.51
861.634	-6.83
861.808	15.7
861.982	34.13
862.157	-27.31
862.331	-41.64
862.505	-43.69
862.679	25.94
862.853	122.2
863.027	36.18
863.201	91.48
863.375	-17.07
863.549	40.28
863.722	34.13
863.896	62.8
864.07	36.18
864.244	40.28
864.418	30.04
864.592	60.76
864.766	13.65
864.939	42.32
865.113	5.46
865.287	93.52
865.461	-43.69
865.634	-17.07
865.808	-12.97
865.982	66.9
866.156	1.37
866.329	7.51
866.503	120.15
866.676	9.56
866.85	27.99
867.024	44.37
867.197	36.18
867.371	73.04
867.544	-0.68
867.718	36.18
867.891	32.08
868.065	-12.97
868.238	7.51
868.412	19.8
868.585	-55.98
868.759	23.89
868.932	-12.97
869.105	44.37
869.279	-39.59
869.452	44.37
869.625	15.7
869.799	40.28
869.972	-12.97
870.145	21.84
870.319	50.52
870.492	15.7
870.665	-8.87
870.838	-17.07
871.011	-29.35
871.185	9.56
871.358	9.56
871.531	75.09
871.704	-33.45
871.877	71
872.05	5.46
872.223	44.37
872.396	7.51
872.569	34.13
872.742	56.66
872.915	40.28
873.088	23.89
873.261	30.04
873.434	101.72
873.607	38.23
873.78	91.48
873.953	-31.4
874.126	-31.4
874.299	19.8
874.471	-51.88
874.644	-8.87
874.817	34.13
874.99	13.65
875.163	-10.92
875.335	25.94
875.508	21.84
875.681	40.28
875.853	-45.74
876.026	111.96
876.199	-17.07
876.371	58.71
876.544	-6.83
876.717	46.42
876.889	48.47
877.062	42.32
877.234	-8.87
877.407	83.28
877.579	-6.83
877.752	64.85
877.924	75.09
878.097	3.41
878.269	7.51
878.442	38.23
878.614	23.89
878.786	-33.45
878.959	50.52
879.131	27.99
879.303	56.66
879.476	21.84
879.648	64.85
879.82	15.7
879.993	25.94
880.165	-12.97
880.337	-35.5
880.509	60.76
880.681	-53.93
880.854	-25.26
881.026	-2.73
881.198	48.47
881.37	30.04
881.542	42.32
881.714	-6.83
881.886	-74.41
882.058	56.66
882.23	50.52
882.402	56.66
882.574	75.09
882.746	3.41
882.918	17.75
883.09	52.56
883.262	15.7
883.434	56.66
883.606	3.41
883.778	30.04
883.95	64.85
884.122	77.14
884.293	-43.69
884.465	66.9
884.637	71
884.809	-17.07
884.98	71
885.152	-15.02
885.324	97.62
885.496	83.28
885.667	-17.07
885.839	5.46
886.011	1.37
886.182	107.86
886.354	126.29
886.525	34.13
886.697	60.76
886.869	-33.45
887.04	71
887.212	30.04
887.383	36.18
887.555	52.56
887.726	-43.69
887.897	-0.68
888.069	21.84
888.24	-31.4
888.412	-39.59
888.583	38.23
888.754	62.8
888.926	19.8
889.097	48.47
889.268	34.13
889.44	13.65
889.611	-74.41
889.782	-10.92
889.953	42.32
890.125	118.1
890.296	21.84
890.467	38.23
890.638	-15.02
890.809	-0.68
890.98	13.65
891.151	68.95
891.323	30.04
891.494	52.56
891.665	66.9
891.836	34.13
892.007	60.76
892.178	38.23
892.349	38.23
892.52	34.13
892.691	34.13
892.862	66.9
893.032	-10.92
893.203	85.33
893.374	-53.93
893.545	36.18
893.716	-39.59
893.887	-8.87
894.057	-25.26
894.228	83.28
894.399	3.41
894.57	-0.68
894.74	-49.83
894.911	32.08
895.082	-39.59
895.253	-84.65
895.423	-21.16
895.594	62.8
895.764	7.51
895.935	-27.31
896.106	60.76
896.276	9.56
896.447	124.24
896.617	-15.02
896.788	11.61
896.958	-27.31
897.129	13.65
897.299	99.67
897.47	32.08
897.64	17.75
897.81	-68.27
897.981	81.24
898.151	9.56
898.322	87.38
898.492	87.38
898.662	60.76
898.832	-2.73
899.003	25.94
899.173	73.04
899.343	-37.55
899.513	-29.35
