Data from USB4F104151__84__12-27-56-611.txt Node

Date: Fri Mar 14 12:27:56 EDT 2025
User: louis
Spectrometer: USB4F10415
Trigger mode: 4
Integration Time (sec): 2.000000E-2
Scans to average: 1
Electric dark correction enabled: true
Nonlinearity correction enabled: false
Boxcar width: 0
XAxis mode: Wavelengths
Number of Pixels in Spectrum: 3648
>>>>>Begin Spectral Data<<<<<
178.204	-66.39
178.424	-66.39
178.644	-66.39
178.864	-93.01
179.084	-62.29
179.304	11.43
179.524	-23.38
179.744	31.91
179.964	15.53
180.184	40.11
180.404	19.63
180.624	-7
180.844	29.87
181.064	-109.4
181.283	-21.33
181.503	-21.33
181.723	33.96
181.943	-9.05
182.163	72.87
182.383	-56.15
182.602	36.01
182.822	119.98
183.042	54.44
183.262	113.83
183.482	19.63
183.701	56.49
183.921	-11.09
184.141	-33.62
184.361	56.49
184.58	17.58
184.8	46.25
185.02	-29.52
185.239	54.44
185.459	-25.43
185.679	15.53
185.898	33.96
186.118	21.67
186.338	25.77
186.557	56.49
186.777	72.87
186.997	95.4
187.216	9.39
187.436	23.72
187.655	11.43
187.875	85.16
188.095	1.19
188.314	97.45
188.534	25.77
188.753	-33.62
188.973	38.06
189.192	81.07
189.412	-2.9
189.631	21.67
189.851	-58.2
190.07	31.91
190.29	44.2
190.509	23.72
190.729	19.63
190.948	97.45
191.168	146.6
191.387	40.11
191.607	21.67
191.826	33.96
192.045	-64.34
192.265	72.87
192.484	1.19
192.704	95.4
192.923	15.53
193.142	119.98
193.362	83.11
193.581	113.83
193.8	1.19
194.02	48.3
194.239	103.59
194.458	56.49
194.678	31.91
194.897	19.63
195.116	23.72
195.335	15.53
195.555	42.15
195.774	64.68
195.993	33.96
196.212	19.63
196.432	36.01
196.651	38.06
196.87	-15.19
197.089	107.69
197.308	17.58
197.528	91.31
197.747	23.72
197.966	17.58
198.185	-9.05
198.404	-9.05
198.623	89.26
198.842	74.92
199.062	31.91
199.281	48.3
199.5	-31.57
199.719	-41.81
199.938	56.49
200.157	58.54
200.376	40.11
200.595	160.94
200.814	97.45
201.033	54.44
201.252	95.4
201.471	-7
201.69	89.26
201.909	70.83
202.128	21.67
202.347	3.24
202.566	-37.72
202.785	-15.19
203.004	17.58
203.223	136.36
203.442	91.31
203.661	1.19
203.879	17.58
204.098	48.3
204.317	-4.95
204.536	29.87
204.755	46.25
204.974	15.53
205.193	52.39
205.411	-2.9
205.63	103.59
205.849	48.3
206.068	23.72
206.287	-4.95
206.505	87.21
206.724	66.73
206.943	1.19
207.162	48.3
207.381	-9.05
207.599	64.68
207.818	3.24
208.037	58.54
208.255	64.68
208.474	70.83
208.693	79.02
208.911	36.01
209.13	40.11
209.349	97.45
209.567	23.72
209.786	31.91
210.005	38.06
210.223	42.15
210.442	36.01
210.661	58.54
210.879	-72.53
211.098	9.39
211.316	29.87
211.535	74.92
211.753	13.48
211.972	101.55
212.191	27.82
212.409	66.73
212.628	76.97
212.846	15.53
213.065	44.2
213.283	38.06
213.502	3.24
213.72	107.69
213.938	72.87
214.157	91.31
214.375	13.48
214.594	54.44
214.812	38.06
215.031	7.34
215.249	27.82
215.467	54.44
215.686	119.98
215.904	138.41
216.122	50.35
216.341	130.22
216.559	-50
216.778	11.43
216.996	-41.81
217.214	7.34
217.432	15.53
217.651	74.92
217.869	13.48
218.087	21.67
218.306	-0.85
218.524	52.39
218.742	44.2
218.96	-0.85
219.179	1.19
219.397	9.39
219.615	40.11
219.833	101.55
220.051	40.11
220.27	11.43
220.488	19.63
220.706	3.24
220.924	-2.9
221.142	25.77
221.36	-19.29
221.578	42.15
221.796	5.29
222.015	85.16
222.233	64.68
222.451	19.63
222.669	-4.95
222.887	68.78
223.105	19.63
223.323	13.48
223.541	52.39
223.759	46.25
223.977	36.01
224.195	74.92
224.413	21.67
224.631	111.78
224.849	58.54
225.067	130.22
225.285	68.78
225.503	-70.48
225.721	52.39
225.939	-35.67
226.157	46.25
226.375	107.69
226.592	48.3
226.81	15.53
227.028	124.07
227.246	70.83
227.464	-4.95
227.682	76.97
227.9	99.5
228.117	-9.05
228.335	60.59
228.553	25.77
228.771	81.07
228.989	27.82
229.206	58.54
229.424	42.15
229.642	25.77
229.86	58.54
230.077	5.29
230.295	85.16
230.513	19.63
230.731	25.77
230.948	19.63
231.166	25.77
231.384	31.91
231.601	19.63
231.819	81.07
232.037	70.83
232.254	-2.9
232.472	99.5
232.689	15.53
232.907	70.83
233.125	-27.48
233.342	70.83
233.56	23.72
233.777	9.39
233.995	103.59
234.213	40.11
234.43	27.82
234.648	-7
234.865	33.96
235.083	17.58
235.3	48.3
235.518	21.67
235.735	95.4
235.953	-2.9
236.17	29.87
236.388	58.54
236.605	29.87
236.822	91.31
237.04	36.01
237.257	11.43
237.475	25.77
237.692	56.49
237.909	29.87
238.127	46.25
238.344	5.29
238.562	38.06
238.779	48.3
238.996	27.82
239.214	87.21
239.431	23.72
239.648	21.67
239.865	87.21
240.083	21.67
240.3	85.16
240.517	23.72
240.735	44.2
240.952	70.83
241.169	13.48
241.386	124.07
241.603	87.21
241.821	50.35
242.038	72.87
242.255	62.63
242.472	9.39
242.689	5.29
242.907	66.73
243.124	23.72
243.341	-7
243.558	36.01
243.775	1.19
243.992	-21.33
244.209	1.19
244.426	66.73
244.643	117.93
244.86	23.72
245.078	101.55
245.295	54.44
245.512	11.43
245.729	21.67
245.946	117.93
246.163	23.72
246.38	31.91
246.597	101.55
246.814	42.15
247.031	15.53
247.248	56.49
247.464	21.67
247.681	87.21
247.898	64.68
248.115	95.4
248.332	-31.57
248.549	21.67
248.766	60.59
248.983	70.83
249.2	-17.24
249.417	93.35
249.633	33.96
249.85	64.68
250.067	27.82
250.284	-19.29
250.501	58.54
250.717	124.07
250.934	95.4
251.151	50.35
251.368	19.63
251.585	56.49
251.801	-15.19
252.018	36.01
252.235	36.01
252.451	15.53
252.668	17.58
252.885	-2.9
253.102	70.83
253.318	40.11
253.535	-35.67
253.752	54.44
253.968	85.16
254.185	9.39
254.401	74.92
254.618	31.91
254.835	-7
255.051	68.78
255.268	56.49
255.484	62.63
255.701	52.39
255.917	87.21
256.134	23.72
256.351	-0.85
256.567	13.48
256.784	21.67
257	-31.57
257.217	113.83
257.433	134.31
257.65	52.39
257.866	62.63
258.082	64.68
258.299	60.59
258.515	70.83
258.732	50.35
258.948	44.2
259.165	19.63
259.381	-7
259.597	42.15
259.814	68.78
260.03	-7
260.246	52.39
260.463	85.16
260.679	101.55
260.895	19.63
261.112	54.44
261.328	91.31
261.544	33.96
261.761	93.35
261.977	56.49
262.193	58.54
262.409	-17.24
262.626	13.48
262.842	33.96
263.058	25.77
263.274	101.55
263.49	25.77
263.707	66.73
263.923	91.31
264.139	-52.05
264.355	42.15
264.571	46.25
264.787	58.54
265.004	72.87
265.22	68.78
265.436	-9.05
265.652	-35.67
265.868	89.26
266.084	42.15
266.3	29.87
266.516	58.54
266.732	11.43
266.948	93.35
267.164	-0.85
267.38	25.77
267.596	25.77
267.812	40.11
268.028	1.19
268.244	19.63
268.46	58.54
268.676	91.31
268.892	19.63
269.108	-0.85
269.324	15.53
269.54	-17.24
269.756	87.21
269.972	42.15
270.188	42.15
270.403	36.01
270.619	54.44
270.835	38.06
271.051	58.54
271.267	17.58
271.483	17.58
271.698	46.25
271.914	38.06
272.13	83.11
272.346	25.77
272.562	66.73
272.777	33.96
272.993	21.67
273.209	38.06
273.425	42.15
273.64	40.11
273.856	19.63
274.072	38.06
274.287	95.4
274.503	52.39
274.719	52.39
274.934	33.96
275.15	21.67
275.366	62.63
275.581	31.91
275.797	60.59
276.012	70.83
276.228	11.43
276.444	15.53
276.659	95.4
276.875	-15.19
277.09	11.43
277.306	76.97
277.521	44.2
277.737	52.39
277.952	79.02
278.168	1.19
278.383	58.54
278.599	79.02
278.814	93.35
279.03	44.2
279.245	40.11
279.461	13.48
279.676	165.03
279.892	-19.29
280.107	19.63
280.322	5.29
280.538	46.25
280.753	3.24
280.969	-11.09
281.184	64.68
281.399	38.06
281.615	93.35
281.83	-23.38
282.045	25.77
282.26	93.35
282.476	60.59
282.691	-11.09
282.906	109.74
283.122	5.29
283.337	66.73
283.552	62.63
283.767	-7
283.983	72.87
284.198	29.87
284.413	15.53
284.628	11.43
284.843	54.44
285.058	85.16
285.274	52.39
285.489	103.59
285.704	62.63
285.919	-11.09
286.134	31.91
286.349	36.01
286.564	48.3
286.779	42.15
286.995	23.72
287.21	-21.33
287.425	70.83
287.64	-2.9
287.855	50.35
288.07	42.15
288.285	40.11
288.5	52.39
288.715	74.92
288.93	23.72
289.145	23.72
289.36	17.58
289.575	79.02
289.79	68.78
290.004	33.96
290.219	66.73
290.434	-7
290.649	79.02
290.864	99.5
291.079	21.67
291.294	9.39
291.509	91.31
291.724	79.02
291.938	29.87
292.153	83.11
292.368	21.67
292.583	66.73
292.798	72.87
293.012	42.15
293.227	33.96
293.442	-9.05
293.657	50.35
293.871	33.96
294.086	50.35
294.301	81.07
294.516	54.44
294.73	-21.33
294.945	74.92
295.16	25.77
295.374	27.82
295.589	52.39
295.804	29.87
296.018	132.26
296.233	72.87
296.447	42.15
296.662	46.25
296.877	56.49
297.091	70.83
297.306	42.15
297.52	7.34
297.735	48.3
297.949	93.35
298.164	56.49
298.378	70.83
298.593	93.35
298.807	-13.14
299.022	165.03
299.236	72.87
299.451	60.59
299.665	19.63
299.88	76.97
300.094	25.77
300.309	-7
300.523	19.63
300.737	68.78
300.952	-17.24
301.166	95.4
301.381	97.45
301.595	29.87
301.809	50.35
302.024	91.31
302.238	81.07
302.452	21.67
302.667	-101.2
302.881	79.02
303.095	115.88
303.309	81.07
303.524	87.21
303.738	19.63
303.952	81.07
304.166	40.11
304.381	66.73
304.595	113.83
304.809	27.82
305.023	87.21
305.237	3.24
305.452	101.55
305.666	52.39
305.88	60.59
306.094	23.72
306.308	52.39
306.522	72.87
306.736	15.53
306.95	44.2
307.164	70.83
307.379	29.87
307.593	58.54
307.807	46.25
308.021	158.89
308.235	107.69
308.449	-56.15
308.663	25.77
308.877	91.31
309.091	25.77
309.305	54.44
309.519	83.11
309.733	74.92
309.947	109.74
310.161	11.43
310.374	17.58
310.588	56.49
310.802	29.87
311.016	5.29
311.23	21.67
311.444	42.15
311.658	50.35
311.872	11.43
312.085	25.77
312.299	87.21
312.513	1.19
312.727	56.49
312.941	117.93
313.154	81.07
313.368	21.67
313.582	76.97
313.796	31.91
314.009	15.53
314.223	50.35
314.437	52.39
314.651	126.12
314.864	9.39
315.078	3.24
315.292	117.93
315.505	40.11
315.719	42.15
315.933	52.39
316.146	13.48
316.36	27.82
316.573	119.98
316.787	60.59
317.001	13.48
317.214	140.46
317.428	44.2
317.641	81.07
317.855	38.06
318.068	54.44
318.282	33.96
318.495	117.93
318.709	83.11
318.922	3.24
319.136	48.3
319.349	81.07
319.563	-64.34
319.776	38.06
319.99	-0.85
320.203	50.35
320.417	52.39
320.63	99.5
320.843	64.68
321.057	25.77
321.27	46.25
321.483	115.88
321.697	128.17
321.91	89.26
322.124	27.82
322.337	58.54
322.55	79.02
322.763	3.24
322.977	38.06
323.19	132.26
323.403	58.54
323.617	52.39
323.83	23.72
324.043	15.53
324.256	23.72
324.469	7.34
324.683	68.78
324.896	9.39
325.109	46.25
325.322	42.15
325.535	91.31
325.748	3.24
325.962	5.29
326.175	50.35
326.388	81.07
326.601	29.87
326.814	29.87
327.027	99.5
327.24	64.68
327.453	9.39
327.666	107.69
327.879	105.64
328.092	83.11
328.305	-47.96
328.518	38.06
328.731	76.97
328.944	81.07
329.157	103.59
329.37	-15.19
329.583	42.15
329.796	50.35
330.009	38.06
330.222	48.3
330.435	38.06
330.648	48.3
330.861	72.87
331.073	95.4
331.286	68.78
331.499	93.35
331.712	74.92
331.925	54.44
332.138	-11.09
332.35	17.58
332.563	-31.57
332.776	25.77
332.989	52.39
333.202	40.11
333.414	50.35
333.627	54.44
333.84	93.35
334.053	46.25
334.265	58.54
334.478	68.78
334.691	-25.43
334.903	40.11
335.116	7.34
335.329	23.72
335.541	66.73
335.754	185.51
335.966	-13.14
336.179	58.54
336.392	91.31
336.604	68.78
336.817	-33.62
337.029	56.49
337.242	38.06
337.454	9.39
337.667	54.44
337.88	64.68
338.092	36.01
338.305	83.11
338.517	72.87
338.729	3.24
338.942	54.44
339.154	25.77
339.367	-0.85
339.579	62.63
339.792	46.25
340.004	68.78
340.217	40.11
340.429	17.58
340.641	-11.09
340.854	27.82
341.066	62.63
341.278	101.55
341.491	27.82
341.703	62.63
341.915	66.73
342.128	107.69
342.34	58.54
342.552	81.07
342.764	7.34
342.977	27.82
343.189	48.3
343.401	-19.29
343.613	64.68
343.826	70.83
344.038	68.78
344.25	27.82
344.462	99.5
344.674	62.63
344.886	3.24
345.099	29.87
345.311	64.68
345.523	19.63
345.735	-37.72
345.947	25.77
346.159	38.06
346.371	79.02
346.583	44.2
346.795	85.16
347.007	-17.24
347.219	64.68
347.431	-35.67
347.643	1.19
347.855	1.19
348.067	64.68
348.279	89.26
348.491	117.93
348.703	-21.33
348.915	-17.24
349.127	38.06
349.339	76.97
349.551	19.63
349.763	13.48
349.975	52.39
350.187	68.78
350.399	97.45
350.61	62.63
350.822	48.3
351.034	9.39
351.246	56.49
351.458	160.94
351.669	31.91
351.881	91.31
352.093	72.87
352.305	74.92
352.517	187.56
352.728	72.87
352.94	56.49
353.152	91.31
353.363	36.01
353.575	58.54
353.787	54.44
353.999	101.55
354.21	79.02
354.422	36.01
354.633	50.35
354.845	107.69
355.057	38.06
355.268	58.54
355.48	9.39
355.692	27.82
355.903	146.6
356.115	81.07
356.326	-15.19
356.538	111.78
356.749	79.02
356.961	132.26
357.172	1.19
357.384	-41.81
357.595	62.63
357.807	58.54
358.018	40.11
358.23	1.19
358.441	113.83
358.653	13.48
358.864	33.96
359.075	23.72
359.287	113.83
359.498	31.91
359.709	48.3
359.921	3.24
360.132	56.49
360.344	42.15
360.555	66.73
360.766	89.26
360.977	-2.9
361.189	54.44
361.4	64.68
361.611	54.44
361.823	66.73
362.034	54.44
362.245	-4.95
362.456	58.54
362.667	128.17
362.879	42.15
363.09	97.45
363.301	58.54
363.512	52.39
363.723	56.49
363.935	74.92
364.146	56.49
364.357	60.59
364.568	85.16
364.779	93.35
364.99	91.31
365.201	72.87
365.412	107.69
365.623	50.35
365.834	27.82
366.045	-27.48
366.256	138.41
366.467	62.63
366.678	29.87
366.889	64.68
367.1	66.73
367.311	74.92
367.522	5.29
367.733	19.63
367.944	64.68
368.155	111.78
368.366	62.63
368.577	79.02
368.788	95.4
368.999	50.35
369.209	44.2
369.42	48.3
369.631	109.74
369.842	97.45
370.053	93.35
370.264	81.07
370.474	99.5
370.685	33.96
370.896	52.39
371.107	76.97
371.317	91.31
371.528	85.16
371.739	44.2
371.95	91.31
372.16	70.83
372.371	60.59
372.582	89.26
372.792	76.97
373.003	113.83
373.214	-13.14
373.424	40.11
373.635	-33.62
373.846	124.07
374.056	-7
374.267	74.92
374.477	62.63
374.688	-21.33
374.898	119.98
375.109	68.78
375.319	111.78
375.53	89.26
375.74	46.25
375.951	66.73
376.161	33.96
376.372	64.68
376.582	138.41
376.793	44.2
377.003	117.93
377.214	54.44
377.424	152.74
377.635	105.64
377.845	11.43
378.055	113.83
378.266	54.44
378.476	117.93
378.686	52.39
378.897	52.39
379.107	66.73
379.317	113.83
379.528	-11.09
379.738	85.16
379.948	27.82
380.158	-7
380.369	97.45
380.579	17.58
380.789	89.26
380.999	52.39
381.21	72.87
381.42	97.45
381.63	46.25
381.84	33.96
382.05	48.3
382.261	40.11
382.471	58.54
382.681	33.96
382.891	122.02
383.101	66.73
383.311	-15.19
383.521	29.87
383.731	85.16
383.941	66.73
384.151	134.31
384.361	40.11
384.571	60.59
384.781	36.01
384.991	103.59
385.201	109.74
385.411	72.87
385.621	113.83
385.831	95.4
386.041	122.02
386.251	72.87
386.461	50.35
386.671	60.59
386.881	81.07
387.091	89.26
387.301	54.44
387.511	50.35
387.72	95.4
387.93	1.19
388.14	-7
388.35	64.68
388.56	76.97
388.769	58.54
388.979	46.25
389.189	46.25
389.399	38.06
389.609	113.83
389.818	113.83
390.028	66.73
390.238	42.15
390.447	89.26
390.657	79.02
390.867	36.01
391.076	74.92
391.286	101.55
391.496	29.87
391.705	72.87
391.915	105.64
392.125	64.68
392.334	52.39
392.544	91.31
392.753	105.64
392.963	54.44
393.172	68.78
393.382	62.63
393.591	109.74
393.801	95.4
394.01	191.66
394.22	134.31
394.429	74.92
394.639	136.36
394.848	177.32
395.058	140.46
395.267	115.88
395.477	97.45
395.686	56.49
395.895	210.09
396.105	117.93
396.314	138.41
396.524	74.92
396.733	64.68
396.942	134.31
397.152	134.31
397.361	179.37
397.57	89.26
397.78	154.79
397.989	146.6
398.198	150.7
398.407	124.07
398.617	79.02
398.826	136.36
399.035	42.15
399.244	111.78
399.453	99.5
399.663	150.7
399.872	111.78
400.081	81.07
400.29	216.23
400.499	48.3
400.708	148.65
400.917	68.78
401.127	117.93
401.336	122.02
401.545	165.03
401.754	103.59
401.963	130.22
402.172	152.74
402.381	132.26
402.59	50.35
402.799	89.26
403.008	189.61
403.217	58.54
403.426	152.74
403.635	130.22
403.844	152.74
404.053	162.98
404.262	111.78
404.471	251.05
404.68	261.29
404.888	162.98
405.097	128.17
405.306	201.9
405.515	132.26
405.724	160.94
405.933	222.38
406.142	201.9
406.35	195.75
406.559	242.85
406.768	201.9
406.977	251.05
407.185	154.79
407.394	208.04
407.603	294.05
407.812	189.61
408.02	214.18
408.229	216.23
408.438	230.57
408.646	218.28
408.855	273.57
409.064	232.62
409.272	279.72
409.481	279.72
409.69	279.72
409.898	261.29
410.107	267.43
410.315	320.68
410.524	351.4
410.733	289.96
410.941	373.92
411.15	380.07
411.358	406.69
411.567	418.98
411.775	449.7
411.984	388.26
412.192	380.07
412.401	453.8
412.609	519.33
412.818	476.32
413.026	461.99
413.234	513.19
413.443	591.01
413.651	634.02
413.86	648.35
414.068	627.87
414.276	638.11
414.485	609.44
414.693	638.11
414.901	715.94
415.11	709.79
415.318	681.12
415.526	715.94
415.734	750.75
415.943	765.09
416.151	740.51
416.359	881.82
416.567	832.67
416.776	982.17
416.984	990.36
417.192	1000.6
417.4	961.69
417.608	994.46
417.817	1135.77
418.025	1207.45
418.233	1174.68
418.441	1111.19
418.649	1303.7
418.857	1313.94
419.065	1232.02
419.273	1291.41
419.481	1365.14
419.689	1338.52
419.897	1471.64
420.105	1528.98
420.313	1551.51
420.521	1684.62
420.729	1752.21
420.937	1725.58
421.145	1780.88
421.353	1768.59
421.561	1903.76
421.769	1983.63
421.977	2075.79
422.185	2120.84
422.393	2204.81
422.601	2223.24
422.809	2262.15
423.017	2362.5
423.224	2413.7
423.432	2495.62
423.64	2616.45
423.848	2684.03
424.056	2585.73
424.263	2833.54
424.471	2811.01
424.679	2995.32
424.887	3093.63
425.094	3150.97
425.302	3204.22
425.51	3327.1
425.718	3456.12
425.925	3431.54
426.133	3511.41
426.341	3804.27
426.548	3894.38
426.756	4023.41
426.964	4054.12
427.171	4185.19
427.379	4342.89
427.586	4502.63
427.794	4576.36
428.001	4674.66
428.209	4971.61
428.417	4959.33
428.624	5262.43
428.832	5289.05
429.039	5217.37
429.247	5092.44
429.454	5651.54
429.662	6059.09
429.869	5721.17
430.076	6210.64
430.284	5919.82
430.491	6200.4
430.699	6501.45
430.906	6509.64
431.114	6659.14
431.321	6865.99
431.528	7121.98
431.736	7529.53
431.943	7904.31
432.15	7697.46
432.358	7574.58
432.565	8080.43
432.772	8006.7
432.979	8516.65
433.187	8725.54
433.394	8723.49
433.601	9145.38
433.808	9235.49
434.016	9290.78
434.223	9405.47
434.43	10206.22
434.637	10118.16
434.844	10497.03
435.052	10849.29
435.259	10988.55
435.466	10892.29
435.673	10961.92
435.88	11396.09
436.087	12153.84
436.294	12098.55
436.501	11817.97
436.708	12026.87
436.915	12696.55
437.122	13233.12
437.329	13116.39
437.537	13624.28
437.743	13999.06
437.95	13454.3
438.157	14347.22
438.364	14769.1
438.571	14887.88
438.778	14795.72
438.985	16047.03
439.192	15670.2
439.399	16298.93
439.606	15672.25
439.813	16765.87
440.02	17566.62
440.227	17353.63
440.433	17310.63
440.64	17898.39
440.847	17802.14
441.054	18170.77
441.261	19405.7
441.467	18979.72
441.674	19567.49
441.881	20243.32
442.088	20241.27
442.294	20063.1
442.501	20335.48
442.708	21017.45
442.914	21764.96
443.121	22612.82
443.328	22176.6
443.534	23434.05
443.741	22987.6
443.948	22889.29
444.154	24431.41
444.361	24345.4
444.568	24499
444.774	24290.1
444.981	24693.55
445.187	25228.07
445.394	26458.9
445.6	26159.9
445.807	28574.45
446.013	27265.8
446.22	27806.47
446.426	29145.84
446.633	29260.52
446.839	30341.85
447.046	28953.33
447.252	30753.49
447.459	30833.36
447.665	30773.97
447.871	32123.58
448.078	33557.16
448.284	31732.42
448.491	32707.26
448.697	33387.18
448.903	34429.6
449.11	34405.02
449.316	34067.11
449.522	34634.39
449.728	35580.56
449.935	36049.54
450.141	35787.4
450.347	36571.77
450.553	35568.27
450.76	36031.11
450.966	37108.34
451.172	36993.65
451.378	37640.81
451.584	37108.34
451.791	37923.43
451.997	37599.85
452.203	38460
452.409	38787.67
452.615	38253.15
452.821	36825.72
453.027	36633.21
453.233	38421.09
453.44	37431.92
453.646	37304.95
453.852	37454.45
454.058	38021.73
454.264	37175.92
454.47	37698.16
454.676	37212.79
454.882	38503.01
455.088	34681.5
455.294	35289.74
455.5	36016.77
455.705	36422.27
455.911	34896.53
456.117	34568.86
456.323	33573.55
456.529	32305.85
456.735	33315.5
456.941	32729.78
457.147	31883.97
457.352	31042.26
457.558	30759.64
457.764	30939.86
457.97	30495.45
458.176	29627.11
458.381	29508.33
458.587	28242.68
458.793	28314.36
458.999	26798.87
459.204	28639.99
459.41	27925.25
459.616	25996.06
459.821	26026.78
460.027	25926.43
460.233	25365.29
460.438	24292.15
460.644	24652.59
460.85	23112.52
461.055	23223.11
461.261	22582.1
461.466	21330.79
461.672	20675.44
461.878	22199.13
462.083	20552.56
462.289	20005.75
462.494	19778.43
462.7	18940.81
462.905	18850.7
463.111	19157.89
463.316	19516.29
463.522	19035.02
463.727	18785.16
463.932	18809.74
464.138	18862.99
464.343	18680.72
464.549	18432.91
464.754	18824.08
464.959	18772.88
465.165	18484.11
465.37	18017.18
465.575	17292.19
465.781	18011.03
465.986	18211.73
466.191	17327.01
466.397	17185.7
466.602	16006.07
466.807	17073.06
467.012	16868.27
467.218	17077.16
467.423	16524.21
467.628	16647.08
467.833	17265.57
468.038	16700.33
468.244	16288.69
468.449	16972.71
468.654	16296.88
468.859	16288.69
469.064	16151.48
469.269	15705.02
469.474	15635.39
469.679	15971.25
469.885	15715.26
470.09	15694.78
470.295	15416.26
470.5	15258.56
470.705	15434.69
470.91	15188.93
471.115	15027.14
471.32	15285.19
471.525	15152.07
471.73	14779.34
471.935	14689.23
472.139	14212.05
472.344	14631.88
472.549	14169.04
472.754	14130.13
472.959	13992.92
473.164	13554.65
473.369	13325.28
473.574	13630.43
473.778	13677.53
473.983	13347.81
474.188	13403.1
474.393	12905.45
474.598	12903.4
474.802	12688.36
475.007	12684.27
475.212	12825.57
475.417	12291.06
475.621	12127.22
475.826	12356.59
476.031	12063.73
476.235	11885.56
476.44	12213.23
476.645	11772.92
476.849	12012.53
477.054	11631.61
477.259	11371.52
477.463	11396.09
477.668	11021.31
477.872	11201.54
478.077	11209.73
478.282	10888.2
478.486	10798.09
478.691	10826.76
478.895	10599.43
479.1	10652.68
479.304	10705.93
479.509	10320.91
479.713	10644.49
479.918	10183.7
480.122	10359.82
480.326	10169.36
480.531	10402.83
480.735	10275.85
480.94	10056.72
481.144	10423.31
481.348	10126.35
481.553	10032.15
481.757	9706.52
481.961	9921.56
482.166	10132.5
482.37	9872.4
482.574	9671.7
482.778	9856.02
482.983	10019.86
483.187	9802.77
483.391	10128.4
483.595	9917.46
483.8	9747.48
484.004	9909.27
484.208	9999.38
484.412	9833.49
484.616	9896.98
484.821	9868.31
485.025	9636.89
485.229	9954.32
485.433	9849.88
485.637	9927.7
485.841	9954.32
486.045	9948.18
486.249	9913.36
486.453	9690.13
486.657	9733.14
486.861	9851.92
487.065	9839.64
487.269	9827.35
487.473	9731.09
487.677	9931.8
487.881	10128.4
488.085	9858.07
488.289	10001.43
488.493	9937.94
488.697	10077.2
488.901	9872.4
489.105	9937.94
489.309	9737.24
489.512	10077.2
489.716	10007.57
489.92	10028.05
490.124	9757.72
490.328	10169.36
490.531	10079.25
490.735	10181.65
490.939	10134.54
491.143	10050.58
491.346	10261.52
491.55	10327.05
491.754	10398.73
491.958	10312.72
492.161	10320.91
492.365	10312.72
492.569	10320.91
492.772	10329.1
492.976	10421.26
493.18	10621.96
493.383	10574.86
493.587	10714.12
493.79	10802.18
493.994	10839.05
494.197	10576.91
494.401	10916.87
494.605	10890.24
494.808	11207.68
495.012	11205.63
495.215	11019.27
495.419	11262.97
495.622	11201.54
495.825	11299.84
496.029	11435
496.232	11705.34
496.436	11568.12
496.639	12098.55
496.843	11738.1
497.046	12198.9
497.249	12076.02
497.453	12346.35
497.656	12448.75
497.859	12387.31
498.063	12616.68
498.266	12811.24
498.469	12899.3
498.673	12786.66
498.876	13140.96
499.079	13165.54
499.282	13034.47
499.485	13485.02
499.689	13628.38
499.892	13839.32
500.095	13757.4
500.298	14083.03
500.501	14019.54
500.705	14128.08
500.908	14293.97
501.111	14640.08
501.314	14814.15
501.517	14939.08
501.72	15244.23
501.923	15084.48
502.126	15309.76
502.329	15662.01
502.532	15797.18
502.735	16071.61
502.938	16352.18
503.141	16419.76
503.344	16747.44
503.547	16538.54
503.75	16833.45
503.953	16956.33
504.156	17290.15
504.359	17402.79
504.562	17290.15
504.765	17759.13
504.968	17906.59
505.17	18004.89
505.373	18066.33
505.576	18406.29
505.779	18701.2
505.982	18645.9
506.185	19168.13
506.387	19186.57
506.59	19086.22
506.793	19807.1
506.996	19522.43
507.198	20216.69
507.401	20102.01
507.604	20538.23
507.807	20605.81
508.009	20874.09
508.212	21277.54
508.415	21195.62
508.617	21437.28
508.82	21613.41
509.022	21302.12
509.225	22066.01
509.428	22397.78
509.63	22248.28
509.833	22633.3
510.035	23202.63
510.238	23008.08
510.44	23124.81
510.643	23526.21
510.845	23606.08
511.048	23630.66
511.25	24038.2
511.453	24318.78
511.655	25178.92
511.858	24869.68
512.06	24861.49
512.262	25248.55
512.465	25070.38
512.667	25658.15
512.87	25864.99
513.072	26012.45
513.274	26477.33
513.477	26680.08
513.679	26768.15
513.881	27243.27
514.084	27036.43
514.286	27425.54
514.488	27710.21
514.69	28394.23
514.893	28494.58
515.095	28259.07
515.297	28723.96
515.499	28969.71
515.701	29315.82
515.904	29510.38
516.106	29631.21
516.308	29942.5
516.51	30221.02
516.712	30110.43
516.914	30509.79
517.116	30882.52
517.318	31056.59
517.52	31435.47
517.722	31369.93
517.925	31902.4
518.127	32035.52
518.329	32604.86
518.531	32492.22
518.733	33299.12
518.935	33135.28
519.136	33319.6
519.338	33854.12
519.54	34052.77
519.742	34241.18
519.944	34517.66
520.146	34831
520.348	35097.24
520.55	34892.44
520.752	35256.98
520.954	35469.97
521.155	35662.47
521.357	36237.95
521.559	36457.09
521.761	36809.34
521.963	36813.43
522.164	37034.61
522.366	36989.56
522.568	37358.19
522.77	37419.63
522.971	37902.95
523.173	37956.2
523.375	38197.86
523.576	38419.04
523.778	38490.72
523.98	38779.48
524.181	39191.12
524.383	39062.1
524.584	39680.59
524.786	39316.05
524.988	39561.81
525.189	40020.55
525.391	40272.45
525.592	40417.86
525.794	40989.24
525.995	40335.94
526.197	40581.7
526.398	40712.77
526.6	40862.27
526.801	41099.83
527.003	41198.13
527.204	41566.77
527.406	41974.31
527.607	41654.83
527.808	41923.11
528.01	41310.77
528.211	41974.31
528.412	42476.07
528.614	42066.47
528.815	42957.34
529.016	42811.93
529.218	42279.46
529.419	42699.3
529.62	42588.7
529.822	42693.15
530.023	42934.81
530.224	42938.91
530.425	43127.32
530.626	42443.3
530.828	42691.1
531.029	43909.64
531.23	42983.96
531.431	43196.95
531.632	43430.42
531.833	43366.93
532.035	43665.94
532.236	43311.64
532.437	43588.11
532.638	43432.47
532.839	43887.12
533.04	43856.4
533.241	43012.63
533.442	44063.24
533.643	43743.76
533.844	43776.53
534.045	44022.28
534.246	43364.88
534.447	43622.93
534.648	43993.61
534.849	44388.87
535.05	43694.61
535.251	43897.36
535.451	43850.25
535.652	44227.08
535.853	43844.11
536.054	44333.57
536.255	44589.57
536.456	43063.83
536.657	44675.58
536.857	43682.32
537.058	44126.73
537.259	44014.09
537.46	44136.97
537.66	44012.04
537.861	43999.76
538.062	43729.42
538.263	43891.21
538.463	43655.7
538.664	43915.79
538.865	44173.83
539.065	44311.05
539.266	43801.1
539.466	44366.34
539.667	43663.89
539.868	44501.51
540.068	43913.74
540.269	43645.46
540.469	44112.39
540.67	43985.42
540.87	44048.91
541.071	44091.91
541.271	44216.84
541.472	43704.85
541.672	43930.12
541.873	43407.89
542.073	43190.81
542.274	44300.81
542.474	44093.96
542.675	43481.62
542.875	44073.48
543.075	43670.03
543.276	43242.01
543.476	43831.82
543.676	43827.73
543.877	43569.68
544.077	43766.29
544.277	43760.14
544.478	43764.24
544.678	43874.83
544.878	43780.62
545.078	43975.18
545.279	43485.72
545.479	43694.61
545.679	43872.78
545.879	43565.59
546.079	43887.12
546.28	43422.23
546.48	43192.86
546.68	43817.49
546.88	44083.72
547.08	43975.18
547.28	43676.18
547.48	43137.56
547.68	43661.84
547.88	43592.21
548.081	43966.99
548.281	43735.57
548.481	43401.75
548.681	43244.05
548.881	43360.79
549.081	43768.33
549.28	43411.99
549.48	43633.17
549.68	43577.87
549.88	43997.71
550.08	43395.6
550.28	43530.77
550.48	43231.77
550.68	43819.53
550.88	43246.1
551.08	43342.36
551.279	43678.22
551.479	43018.78
551.679	43463.19
551.879	43373.08
552.079	43915.79
552.278	43346.45
552.478	43639.31
552.678	43575.83
552.878	43624.98
553.077	43272.73
553.277	43145.75
553.477	43932.17
553.676	43260.44
553.876	43162.14
554.076	43315.73
554.275	43201.05
554.475	42547.75
554.674	43407.89
554.874	43307.54
555.074	42859.04
555.273	43422.23
555.473	43538.96
555.672	42865.18
555.872	43205.14
556.071	43133.46
556.271	43352.6
556.47	42990.11
556.67	42705.44
556.869	42879.52
557.068	42783.26
557.268	43022.87
557.467	42875.42
557.667	42730.01
557.866	42568.23
558.065	42723.87
558.265	42705.44
558.464	42322.47
558.663	43010.59
558.863	42101.29
559.062	42979.87
559.261	42138.15
559.461	42742.3
559.66	42019.37
559.859	42373.67
560.058	42105.38
560.258	42795.55
560.457	42002.99
560.656	42224.17
560.855	42132.01
561.054	42404.39
561.253	41673.26
561.453	42127.91
561.652	42166.82
561.851	42005.03
562.05	41656.88
562.249	41570.86
562.448	41886.25
562.647	41761.33
562.846	41568.82
563.045	41644.59
563.244	40878.65
563.443	41945.64
563.642	40950.33
563.841	41718.32
564.04	41298.48
564.239	41982.51
564.438	41110.07
564.637	41534
564.836	41179.7
565.035	40749.63
565.234	41208.37
565.432	40798.78
565.631	41091.64
565.83	41427.51
566.029	40766.01
566.228	40809.02
566.427	40626.75
566.625	40686.14
566.824	40356.42
567.023	40481.34
567.222	40088.13
567.42	40231.49
567.619	40192.58
567.818	40378.95
568.016	40145.48
568.215	40450.63
568.414	39791.18
568.612	40057.42
568.811	39731.79
569.01	39983.69
569.208	39168.6
569.407	39811.66
569.605	39064.15
569.804	39778.89
570.002	39416.4
570.201	39787.08
570.4	39068.25
570.598	39107.16
570.797	38742.62
570.995	39115.35
571.193	38750.81
571.392	38980.18
571.59	38865.5
571.789	38902.36
571.987	38771.29
572.186	38861.4
572.384	38582.88
572.582	38963.8
572.781	38382.18
572.979	38107.75
573.177	38503.01
573.376	38685.28
573.574	38312.55
573.772	38208.1
573.971	37945.96
574.169	38138.47
574.367	37704.3
574.565	38083.17
574.763	37565.04
574.962	37681.77
575.16	37485.17
575.358	37567.09
575.556	37261.94
575.754	37933.67
575.952	37354.1
576.151	36901.5
576.349	36807.29
576.547	37175.92
576.745	37216.88
576.943	37098.1
577.141	36770.43
577.339	37130.87
577.537	36981.37
577.735	36584.06
577.933	36289.15
578.131	36708.99
578.329	36233.86
578.527	35959.43
578.725	36100.74
578.923	36305.54
579.121	35838.6
579.319	35875.46
579.516	36102.79
579.714	35666.57
579.912	35680.91
580.11	35957.38
580.308	35486.35
580.506	35623.56
580.704	35191.44
580.901	35580.56
581.099	35547.79
581.297	35070.61
581.495	35365.52
581.692	35000.98
581.89	35189.39
582.088	35359.38
582.285	34493.08
582.483	35220.11
582.681	35000.98
582.878	34644.63
583.076	34556.57
583.274	34960.02
583.471	34302.62
583.669	34626.2
583.866	34235.04
584.064	34589.34
584.262	33911.46
584.459	34183.84
584.657	33663.66
584.854	34276
585.052	33372.85
585.249	33612.46
585.447	33708.71
585.644	33233.58
585.841	33610.41
586.039	33462.96
586.236	32854.71
586.434	33311.41
586.631	32938.68
586.828	33215.15
587.026	33329.84
587.223	32946.87
587.42	33008.31
587.618	32920.24
587.815	32848.57
588.012	32758.45
588.21	32289.47
588.407	33182.38
588.604	32496.31
588.801	32094.91
588.999	32361.15
589.196	32182.98
589.393	31974.08
589.59	32066.24
589.787	31857.35
589.984	31800.01
590.182	31015.63
590.379	31916.74
590.576	31537.87
590.773	31980.23
590.97	31490.76
591.167	31726.28
591.364	31120.08
591.561	31175.37
591.758	30872.28
591.955	31005.39
592.152	31410.89
592.349	30747.35
592.546	30780.12
592.743	30788.31
592.94	30257.88
593.137	30874.32
593.334	30907.09
593.531	30120.67
593.727	30585.56
593.924	30440.15
594.121	29872.87
594.318	30028.51
594.515	29971.17
594.712	30261.98
594.908	29696.74
595.105	30005.98
595.302	29651.69
595.499	29872.87
595.696	29467.37
595.892	29203.18
596.089	29600.49
596.286	29432.55
596.482	29102.83
596.679	29367.02
596.876	29289.2
597.072	29072.11
597.269	28795.64
597.466	28738.29
597.662	28564.21
597.859	28814.07
598.055	28515.06
598.252	28236.54
598.448	28175.1
598.645	28273.4
598.841	28257.02
599.038	28171
599.234	28074.75
599.431	27917.06
599.627	28193.53
599.824	28046.08
600.02	28009.22
600.217	27890.43
600.413	27497.22
600.609	27747.08
600.806	27462.41
601.002	27370.25
601.198	27163.4
601.395	27212.56
601.591	26987.28
601.787	27468.55
601.984	27085.58
602.18	27255.56
602.376	27024.14
602.572	26729.23
602.769	26712.85
602.965	26536.73
603.161	27005.71
603.357	26569.49
603.553	26276.63
603.75	26604.31
603.946	26458.9
604.142	26049.31
604.338	26037.02
604.534	26213.15
604.73	26000.16
604.926	25746.21
605.122	25959.2
605.318	25756.45
605.514	25695.01
605.71	25516.84
605.906	25848.61
606.102	25508.65
606.298	25615.14
606.494	25574.18
606.69	25396.01
606.886	25752.35
607.082	25092.91
607.278	25299.75
607.474	24746.8
607.67	25195.31
607.866	24832.82
608.062	25135.92
608.257	24851.25
608.453	25054
608.649	24873.78
608.845	24650.55
609.041	24894.25
609.236	25082.67
609.432	24783.66
609.628	24843.06
609.824	24496.95
610.019	24628.02
610.215	24711.99
610.411	24537.91
610.606	24165.18
610.802	24363.83
610.998	24644.4
611.193	24148.79
611.389	24329.02
611.584	24161.08
611.78	23722.82
611.976	23921.47
612.171	24021.82
612.367	23946.05
612.562	23792.45
612.758	23735.1
612.953	23833.41
613.149	23796.54
613.344	23698.24
613.539	24245.05
613.735	24030.01
613.93	23989.05
614.126	23337.8
614.321	23927.61
614.517	23552.84
614.712	23509.83
614.907	23481.16
615.103	23515.97
615.298	23341.89
615.493	23546.69
615.688	23092.04
615.884	23794.5
616.079	23237.45
616.274	23397.19
616.47	23415.62
616.665	23378.76
616.86	23077.71
617.055	23100.23
617.25	23024.46
617.445	23503.68
617.641	22909.77
617.836	23204.68
618.031	22438.74
618.226	22887.25
618.421	22653.78
618.616	22729.55
618.811	22184.79
619.006	22831.95
619.201	22225.75
619.396	22039.39
619.591	21709.66
619.786	22147.93
619.981	21566.31
620.176	22096.73
620.371	21988.19
620.566	21672.8
620.761	21545.83
620.956	22008.67
621.151	21570.4
621.346	21429.09
621.541	21508.96
621.735	21513.06
621.93	20882.28
622.125	21207.91
622.32	20913
622.515	21062.51
622.709	20671.34
622.904	20747.12
623.099	20679.54
623.294	20831.08
623.488	20405.11
623.683	20235.13
623.878	20044.66
624.072	20188.02
624.267	20159.35
624.462	20011.9
624.656	19913.59
624.851	19831.68
625.046	19559.3
625.24	19719.04
625.435	19694.46
625.629	19284.87
625.824	19008.39
626.018	19065.74
626.213	18385.81
626.407	18930.57
626.602	18723.72
626.796	18596.75
626.991	18889.61
627.185	18514.83
627.38	18357.14
627.574	18086.81
627.768	18002.84
627.963	18164.63
628.157	18045.85
628.352	18129.81
628.546	17632.16
628.74	17861.53
628.935	17752.99
629.129	17789.85
629.323	17439.65
629.517	17466.27
629.712	17101.73
629.906	17275.81
630.1	16982.95
630.294	16980.9
630.489	16819.11
630.683	16913.32
630.877	16698.28
631.071	16661.42
631.265	16759.72
631.459	16518.06
631.653	16448.43
631.848	16409.52
632.042	16225.2
632.236	16274.35
632.43	15791.03
632.624	16081.85
632.818	16098.23
633.012	15584.19
633.206	15754.17
633.4	15862.71
633.594	15764.41
633.788	15489.98
633.982	15655.87
634.176	15539.13
634.369	15586.24
634.563	15485.89
634.757	15166.4
634.951	15215.55
635.145	15174.6
635.339	15113.16
635.533	14709.71
635.726	14902.22
635.92	14814.15
636.114	14590.92
636.308	14533.58
636.501	14498.77
636.695	14242.77
636.889	14453.71
637.083	14050.26
637.276	14177.23
637.47	14222.29
637.664	14078.93
637.857	14181.33
638.051	14164.95
638.244	13870.04
638.438	13884.37
638.632	13933.53
638.825	13603.8
639.019	13646.81
639.212	13448.16
639.406	13521.88
639.599	13474.78
639.793	13636.57
639.986	13218.78
640.18	13358.05
640.373	13300.7
640.567	12710.89
640.76	13210.59
640.954	12833.77
641.147	12602.35
641.34	12708.84
641.534	12942.31
641.727	12770.28
641.92	12745.7
642.114	12485.61
642.307	12325.87
642.5	12475.37
642.694	12354.54
642.887	12346.35
643.08	12583.91
643.273	12049.39
643.467	12307.44
643.66	12205.04
643.853	12024.82
644.046	11834.36
644.239	11906.04
644.432	11766.78
644.626	11713.53
644.819	11762.68
645.012	11693.05
645.205	11719.67
645.398	11600.89
645.591	11467.77
645.784	11260.93
645.977	11426.81
646.17	11473.92
646.363	11179.01
646.556	11232.26
646.749	11324.41
646.942	11211.78
647.135	11129.86
647.328	11129.86
647.521	10992.64
647.714	10673.16
647.907	10701.83
648.099	10896.39
648.292	10791.94
648.485	10773.51
648.678	10583.05
648.871	10609.67
649.064	10390.54
649.256	10574.86
649.449	10413.07
649.642	10226.7
649.835	10073.1
650.027	10232.85
650.22	10288.14
650.413	10140.69
650.605	10075.15
650.798	10038.29
650.991	9919.51
651.183	9948.18
651.376	9892.88
651.568	9841.68
651.761	9813.01
651.954	9690.13
652.146	9823.25
652.339	9690.13
652.531	9405.47
652.724	9499.67
652.916	9446.43
653.109	9554.97
653.301	9362.46
653.494	9268.25
653.686	9165.85
653.879	9413.66
654.071	9417.75
654.263	8967.2
654.456	9149.47
654.648	9172
654.84	8672.29
655.033	9079.84
655.225	8991.78
655.417	8981.54
655.61	8842.28
655.802	8743.97
655.994	8817.7
656.186	8784.93
656.379	8725.54
656.571	8563.75
656.763	8610.86
656.955	8713.25
657.148	8666.15
657.34	8385.58
657.532	8311.85
657.724	8328.24
657.916	8188.97
658.108	8375.34
658.3	8211.5
658.492	8199.21
658.684	8066.1
658.876	8053.81
659.068	8324.14
659.26	8166.45
659.452	7910.45
659.644	8184.88
659.836	7857.2
660.028	8068.14
660.22	7767.09
660.412	7932.98
660.604	7791.67
660.796	7806
660.988	7779.38
661.18	7574.58
661.372	7582.77
661.563	7781.43
661.755	7527.48
661.947	7593.01
662.139	7418.94
662.331	7515.19
662.522	7371.83
662.714	7377.98
662.906	7296.06
663.097	7476.28
663.289	7251
663.481	7318.59
663.673	7027.78
663.864	7140.41
664.056	7027.78
664.247	7134.27
664.439	6945.86
664.631	7138.37
664.822	6986.82
665.014	7021.63
665.205	6939.71
665.397	6698.05
665.588	7005.25
665.78	6806.59
665.971	6765.64
666.163	6657.09
666.354	6552.65
666.546	6822.98
666.737	6657.09
666.929	6648.9
667.12	6650.95
667.311	6597.7
667.503	6446.15
667.694	6491.21
667.885	6437.96
668.077	6526.02
668.268	6528.07
668.459	6478.92
668.651	6429.77
668.842	6126.67
669.033	6296.65
669.224	6304.84
669.416	6343.75
669.607	6200.4
669.798	6245.45
669.989	6257.74
670.18	6245.45
670.371	6132.81
670.563	6077.52
670.754	6022.22
670.945	6032.46
671.136	6089.81
671.327	6040.65
671.518	5846.1
671.709	5921.87
671.9	5952.59
672.091	5846.1
672.282	5954.64
672.473	5919.82
672.664	5895.25
672.855	5696.6
673.046	5801.04
673.237	5708.88
673.428	5790.8
673.619	5665.88
673.809	5821.52
674	5567.57
674.191	5659.73
674.382	5657.68
674.573	5700.69
674.764	5579.86
674.954	5573.72
675.145	5581.91
675.336	5514.33
675.527	5694.55
675.717	5600.34
675.908	5469.27
676.099	5575.77
676.289	5346.39
676.48	5397.59
676.671	5577.81
676.861	5497.94
677.052	5356.63
677.243	5227.61
677.433	5526.61
677.624	5319.77
677.814	5401.69
678.005	5416.02
678.195	5227.61
678.386	5149.79
678.576	5121.12
678.767	4998.24
678.957	5299.29
679.148	5219.42
679.338	5178.46
679.529	5270.62
679.719	5264.47
679.909	5254.23
680.1	5121.12
680.29	5184.6
680.481	5065.82
680.671	5188.7
680.861	4928.61
681.052	5041.25
681.242	5131.36
681.432	5049.44
681.622	5037.15
681.813	5010.53
682.003	5080.16
682.193	4994.14
682.383	4912.22
682.573	5047.39
682.764	4924.51
682.954	4856.93
683.144	4977.76
683.334	4928.61
683.524	4815.97
683.714	4944.99
683.904	4869.22
684.094	4947.04
684.284	4922.46
684.474	4867.17
684.664	4805.73
684.854	4858.98
685.044	4727.91
685.234	4713.57
685.424	4736.1
685.614	4770.91
685.804	4568.16
685.994	4713.57
686.184	4637.8
686.374	4797.54
686.564	4465.77
686.753	4686.95
686.943	4559.97
687.133	4578.4
687.323	4494.44
687.513	4744.29
687.702	4615.27
687.892	4533.35
688.082	4545.64
688.272	4557.93
688.461	4416.62
688.651	4451.43
688.841	4324.46
689.03	4373.61
689.22	4277.35
689.41	4392.04
689.599	4365.42
689.789	4269.16
689.979	4277.35
690.168	4359.27
690.358	4320.36
690.547	4222.06
690.737	4168.81
690.926	4142.19
691.116	4025.45
691.305	4207.72
691.495	4179.05
691.684	4062.32
691.874	4090.99
692.063	4127.85
692.252	3980.4
692.442	3939.44
692.631	4107.37
692.82	3884.14
693.01	3923.05
693.199	4011.12
693.388	3824.75
693.578	3996.78
693.767	3880.05
693.956	3867.76
694.146	3767.41
694.335	3746.93
694.524	3892.34
694.713	3941.49
694.902	3857.52
695.092	3773.55
695.281	3789.94
695.47	3685.49
695.659	3746.93
695.848	3763.31
696.037	3767.41
696.226	3720.31
696.415	3703.92
696.604	3804.27
696.793	3470.45
696.982	3646.58
697.171	3660.91
697.36	3603.57
697.549	3705.97
697.738	3509.37
697.927	3492.98
698.116	3640.44
698.305	3519.6
698.494	3640.44
698.683	3449.97
698.872	3507.32
699.061	3415.16
699.25	3607.67
699.438	3628.15
699.627	3607.67
699.816	3552.37
700.005	3628.15
700.193	3566.71
700.382	3476.6
700.571	3431.54
700.76	3386.49
700.948	3486.84
701.137	3585.14
701.326	3540.08
701.514	3363.96
701.703	3492.98
701.892	3378.3
702.08	3363.96
702.269	3480.69
702.457	3521.65
702.646	3413.11
702.834	3406.97
703.023	3423.35
703.212	3388.53
703.4	3333.24
703.589	3335.29
703.777	3452.02
703.965	3298.42
704.154	3355.77
704.342	3341.43
704.531	3374.2
704.719	3273.85
704.907	3382.39
705.096	3310.71
705.284	3308.66
705.472	3269.75
705.661	3284.09
705.849	3327.1
706.037	3368.06
706.226	3288.18
706.414	3310.71
706.602	3390.58
706.79	3376.25
706.979	3366.01
707.167	3314.81
707.355	3206.27
707.543	3357.82
707.731	3363.96
707.919	3411.06
708.107	3294.33
708.296	3263.61
708.484	3288.18
708.672	3298.42
708.86	3361.91
709.048	3212.41
709.236	3241.08
709.424	3279.99
709.612	3204.22
709.8	3294.33
709.988	3208.31
710.176	3325.05
710.364	3284.09
710.551	3214.46
710.739	3306.62
710.927	3239.03
711.115	3353.72
711.303	3214.46
711.491	3255.42
711.679	3331.19
711.866	3202.17
712.054	3370.1
712.242	3187.83
712.43	3200.12
712.617	3245.18
712.805	3224.7
712.993	3058.81
713.181	3185.79
713.368	3204.22
713.556	3241.08
713.744	3243.13
713.931	3165.31
714.119	3255.42
714.306	3150.97
714.494	3247.23
714.682	3216.51
714.869	3193.98
715.057	3265.66
715.244	3212.41
715.432	3048.57
715.619	3128.44
715.807	3134.59
715.994	3185.79
716.182	3216.51
716.369	3265.66
716.556	3116.16
716.744	3234.94
716.931	3148.92
717.119	3193.98
717.306	3279.99
717.493	3124.35
717.681	3110.01
717.868	3144.83
718.055	3112.06
718.242	3124.35
718.43	3173.5
718.617	3148.92
718.804	3083.39
718.991	3056.76
719.179	3198.07
719.366	3208.31
719.553	3021.95
719.74	3150.97
719.927	3122.3
720.114	3091.58
720.301	3079.29
720.488	3224.7
720.676	3173.5
720.863	3097.72
721.05	3183.74
721.237	3208.31
721.424	3130.49
721.611	3159.16
721.798	3028.09
721.985	3173.5
722.172	3124.35
722.358	3224.7
722.545	3005.56
722.732	3071.1
722.919	3079.29
723.106	3069.05
723.293	3019.9
723.48	2901.12
723.667	3040.38
723.853	3032.19
724.04	3085.44
724.227	3067
724.414	3075.2
724.6	2980.99
724.787	2974.85
724.974	3136.63
725.161	3040.38
725.347	3013.76
725.534	3048.57
725.72	3112.06
725.907	3069.05
726.094	3173.5
726.28	2956.41
726.467	3095.68
726.653	3134.59
726.84	3093.63
727.027	3101.82
727.213	3077.24
727.4	3107.96
727.586	3021.95
727.773	3054.72
727.959	3136.63
728.145	3019.9
728.332	3183.74
728.518	3054.72
728.705	3067
728.891	2976.89
729.077	3026.04
729.264	3056.76
729.45	3017.85
729.636	3093.63
729.823	2956.41
730.009	2946.17
730.195	2935.93
730.382	3091.58
730.568	3036.28
730.754	3099.77
730.94	2937.98
731.126	3017.85
731.313	3003.52
731.499	3085.44
731.685	2923.65
731.871	3044.48
732.057	3138.68
732.243	2950.27
732.429	2995.32
732.615	3028.09
732.801	3028.09
732.987	2985.09
733.173	2899.07
733.359	2913.41
733.545	2935.93
733.731	3011.71
733.917	2899.07
734.103	3017.85
734.289	2956.41
734.475	3003.52
734.661	3034.24
734.847	2966.65
735.033	2851.97
735.219	2835.58
735.404	2980.99
735.59	2954.37
735.776	2937.98
735.962	2905.21
736.148	2991.23
736.333	2860.16
736.519	2825.34
736.705	2909.31
736.89	2974.85
737.076	3056.76
737.262	2976.89
737.447	2901.12
737.633	2833.54
737.819	3026.04
738.004	2894.97
738.19	2905.21
738.375	2851.97
738.561	2843.78
738.747	2774.14
738.932	2872.45
739.118	2985.09
739.303	2733.18
739.489	2874.49
739.674	2847.87
739.859	2724.99
740.045	2854.02
740.23	2765.95
740.416	2772.1
740.601	2870.4
740.786	2882.69
740.972	2632.83
741.157	2745.47
741.342	2696.32
741.528	2696.32
741.713	2831.49
741.898	2643.07
742.084	2661.51
742.269	2712.71
742.454	2759.81
742.639	2645.12
742.824	2753.66
743.01	2774.14
743.195	2692.23
743.38	2702.47
743.565	2622.59
743.75	2665.6
743.935	2565.25
744.12	2622.59
744.305	2552.96
744.49	2542.72
744.675	2593.92
744.86	2602.11
745.045	2524.29
745.23	2473.09
745.415	2495.62
745.6	2389.13
745.785	2421.89
745.97	2442.37
746.155	2362.5
746.34	2628.74
746.525	2380.93
746.71	2512
746.895	2419.85
747.079	2458.76
747.264	2292.87
747.449	2411.65
747.634	2323.59
747.819	2299.02
748.003	2317.45
748.188	2327.69
748.373	2223.24
748.557	2294.92
748.742	2256.01
748.927	2296.97
749.111	2258.06
749.296	2155.66
749.481	2227.34
749.665	2198.67
749.85	2120.84
750.034	2331.78
750.219	2182.28
750.404	2069.64
750.588	2094.22
750.773	2053.26
750.957	2131.08
751.141	2120.84
751.326	2122.89
751.51	2159.75
751.695	2088.07
751.879	2075.79
752.064	2038.92
752.248	1942.67
752.432	1963.15
752.617	1952.91
752.801	1868.94
752.985	2047.12
753.17	1942.67
753.354	1918.09
753.538	2004.11
753.722	1879.18
753.907	1969.29
754.091	1836.17
754.275	1856.65
754.459	1907.85
754.643	1774.74
754.828	1873.04
755.012	1854.61
755.196	1764.5
755.38	1809.55
755.564	1852.56
755.748	1815.69
755.932	1823.89
756.116	1750.16
756.3	1731.73
756.484	1744.02
756.668	1688.72
756.852	1578.13
757.036	1694.86
757.22	1625.23
757.404	1686.67
757.588	1602.71
757.772	1619.09
757.956	1655.95
758.14	1598.61
758.323	1602.71
758.507	1594.51
758.691	1653.91
758.875	1571.99
759.059	1586.32
759.242	1576.08
759.426	1471.64
759.61	1578.13
759.794	1541.27
759.977	1508.5
760.161	1580.18
760.345	1549.46
760.528	1590.42
760.712	1428.63
760.895	1498.26
761.079	1545.36
761.263	1514.64
761.446	1447.06
761.63	1402.01
761.813	1440.92
761.997	1410.2
762.18	1477.78
762.364	1332.37
762.547	1430.68
762.731	1528.98
762.914	1367.19
763.098	1361.05
763.281	1420.44
763.464	1334.42
763.648	1365.14
763.831	1367.19
764.015	1340.57
764.198	1307.8
764.381	1301.65
764.564	1289.37
764.748	1371.29
764.931	1313.94
765.114	1320.09
765.297	1260.7
765.481	1279.13
765.664	1270.94
765.847	1201.3
766.03	1236.12
766.213	1225.88
766.397	1252.5
766.58	1215.64
766.763	1293.46
766.946	1113.24
767.129	1244.31
767.312	1109.15
767.495	1229.98
767.678	1189.02
767.861	1309.85
768.044	1258.65
768.227	1209.5
768.41	1137.82
768.593	1180.82
768.776	1109.15
768.959	1096.86
769.142	1256.6
769.324	1277.08
769.507	1135.77
769.69	1121.43
769.873	1037.47
770.056	1166.49
770.239	1154.2
770.421	1152.15
770.604	1234.07
770.787	1113.24
770.97	1098.91
771.152	937.12
771.335	1047.71
771.518	1088.67
771.7	1094.81
771.883	1059.99
772.066	1092.76
772.248	1084.57
772.431	1107.1
772.613	1096.86
772.796	933.02
772.978	1002.65
773.161	1023.13
773.343	1016.99
773.526	1078.43
773.708	949.4
773.891	998.56
774.073	1033.37
774.256	1064.09
774.438	973.98
774.621	1031.32
774.803	1006.75
774.985	900.25
775.168	904.35
775.35	904.35
775.532	1041.56
775.715	961.69
775.897	953.5
776.079	906.4
776.261	810.14
776.444	982.17
776.626	818.33
776.808	896.16
776.99	822.43
777.173	838.81
777.355	849.05
777.537	939.16
777.719	851.1
777.901	875.68
778.083	869.53
778.265	810.14
778.447	855.2
778.629	830.62
778.811	763.04
778.993	785.57
779.175	824.48
779.357	689.31
779.539	783.52
779.721	775.33
779.903	801.95
780.085	791.71
780.267	767.13
780.449	851.1
780.631	746.66
780.812	699.55
780.994	779.42
781.176	760.99
781.358	693.41
781.54	777.37
781.721	740.51
781.903	754.85
782.085	658.59
782.267	631.97
782.448	656.54
782.63	623.78
782.812	679.07
782.993	670.88
783.175	656.54
783.357	562.34
783.538	672.93
783.72	597.15
783.901	617.63
784.083	601.25
784.264	603.3
784.446	584.87
784.627	607.39
784.809	576.67
784.99	681.12
785.172	629.92
785.353	562.34
785.535	617.63
785.716	543.91
785.897	625.83
786.079	554.15
786.26	562.34
786.441	533.67
786.623	515.23
786.804	613.54
786.985	525.47
787.167	588.96
787.348	500.9
787.529	593.06
787.71	601.25
787.891	550.05
788.073	595.11
788.254	453.8
788.435	607.39
788.616	545.95
788.797	509.09
788.978	548
789.159	478.37
789.34	525.47
789.522	543.91
789.703	398.5
789.884	474.28
790.065	457.89
790.246	400.55
790.427	464.04
790.607	447.65
790.788	402.6
790.969	457.89
791.15	425.12
791.331	414.88
791.512	500.9
791.693	519.33
791.874	464.04
792.054	605.35
792.235	464.04
792.416	427.17
792.597	390.31
792.778	425.12
792.958	455.84
793.139	427.17
793.32	416.93
793.5	357.54
793.681	457.89
793.862	461.99
794.042	394.4
794.223	388.26
794.404	353.45
794.584	418.98
794.765	298.15
794.945	351.4
795.126	421.03
795.306	449.7
795.487	392.36
795.667	373.92
795.848	359.59
796.028	320.68
796.209	335.01
796.389	359.59
796.57	404.64
796.75	464.04
796.93	400.55
797.111	414.88
797.291	357.54
797.471	378.02
797.652	365.73
797.832	349.35
798.012	371.88
798.192	349.35
798.373	296.1
798.553	337.06
798.733	365.73
798.913	314.53
799.093	394.4
799.274	283.81
799.454	312.49
799.634	353.45
799.814	308.39
799.994	292.01
800.174	369.83
800.354	328.87
800.534	312.49
800.714	251.05
800.894	292.01
801.074	271.53
801.254	292.01
801.434	302.25
801.614	271.53
801.794	201.9
801.974	685.22
802.154	378.02
802.334	324.77
802.514	298.15
802.693	369.83
802.873	339.11
803.053	410.79
803.233	257.19
803.413	316.58
803.592	273.57
803.772	353.45
803.952	289.96
804.131	302.25
804.311	308.39
804.491	320.68
804.67	300.2
804.85	289.96
805.03	322.73
805.209	337.06
805.389	269.48
805.568	265.38
805.748	265.38
805.928	281.77
806.107	232.62
806.287	328.87
806.466	234.66
806.646	281.77
806.825	281.77
807.004	308.39
807.184	165.03
807.363	324.77
807.543	289.96
807.722	253.09
807.901	271.53
808.081	314.53
808.26	222.38
808.439	302.25
808.619	220.33
808.798	230.57
808.977	226.47
809.156	214.18
809.336	236.71
809.515	255.14
809.694	242.85
809.873	240.81
810.052	242.85
810.231	251.05
810.411	332.97
810.59	285.86
810.769	218.28
810.948	238.76
811.127	222.38
811.306	312.49
811.485	177.32
811.664	230.57
811.843	246.95
812.022	246.95
812.201	214.18
812.38	154.79
812.559	265.38
812.737	234.66
812.916	150.7
813.095	246.95
813.274	238.76
813.453	246.95
813.632	173.22
813.811	296.1
813.989	249
814.168	197.8
814.347	230.57
814.526	234.66
814.704	236.71
814.883	275.62
815.062	171.18
815.24	220.33
815.419	238.76
815.598	267.43
815.776	142.5
815.955	212.14
816.133	167.08
816.312	105.64
816.49	216.23
816.669	255.14
816.847	230.57
817.026	158.89
817.204	224.42
817.383	150.7
817.561	203.94
817.74	218.28
817.918	169.13
818.097	128.17
818.275	195.75
818.453	232.62
818.632	183.46
818.81	197.8
818.988	167.08
819.167	148.65
819.345	119.98
819.523	189.61
819.701	177.32
819.879	234.66
820.058	171.18
820.236	167.08
820.414	224.42
820.592	154.79
820.77	222.38
820.948	115.88
821.127	203.94
821.305	214.18
821.483	126.12
821.661	203.94
821.839	119.98
822.017	58.54
822.195	177.32
822.373	150.7
822.551	132.26
822.729	134.31
822.907	124.07
823.085	74.92
823.262	146.6
823.44	228.52
823.618	154.79
823.796	126.12
823.974	83.11
824.152	126.12
824.329	148.65
824.507	132.26
824.685	72.87
824.863	150.7
825.04	103.59
825.218	150.7
825.396	107.69
825.574	91.31
825.751	148.65
825.929	148.65
826.107	64.68
826.284	158.89
826.462	115.88
826.639	130.22
826.817	169.13
826.994	156.84
827.172	54.44
827.349	210.09
827.527	109.74
827.704	130.22
827.882	105.64
828.059	107.69
828.237	74.92
828.414	126.12
828.591	122.02
828.769	103.59
828.946	74.92
829.124	97.45
829.301	185.51
829.478	124.07
829.655	122.02
829.833	140.46
830.01	111.78
830.187	165.03
830.364	52.39
830.542	148.65
830.719	117.93
830.896	66.73
831.073	177.32
831.25	126.12
831.427	134.31
831.604	70.83
831.782	19.63
831.959	52.39
832.136	117.93
832.313	134.31
832.49	79.02
832.667	79.02
832.844	103.59
833.021	124.07
833.198	97.45
833.374	76.97
833.551	148.65
833.728	70.83
833.905	142.5
834.082	107.69
834.259	173.22
834.436	87.21
834.612	130.22
834.789	99.5
834.966	136.36
835.143	117.93
835.319	126.12
835.496	146.6
835.673	107.69
835.85	42.15
836.026	74.92
836.203	119.98
836.38	-11.09
836.556	83.11
836.733	68.78
836.909	177.32
837.086	101.55
837.262	74.92
837.439	62.63
837.616	68.78
837.792	117.93
837.968	60.59
838.145	89.26
838.321	119.98
838.498	122.02
838.674	97.45
838.851	101.55
839.027	83.11
839.203	1.19
839.38	93.35
839.556	5.29
839.732	17.58
839.909	111.78
840.085	99.5
840.261	48.3
840.437	140.46
840.614	136.36
840.79	144.55
840.966	68.78
841.142	76.97
841.318	21.67
841.494	99.5
841.671	109.74
841.847	81.07
842.023	54.44
842.199	85.16
842.375	126.12
842.551	-9.05
842.727	40.11
842.903	56.49
843.079	42.15
843.255	107.69
843.431	74.92
843.607	52.39
843.783	56.49
843.959	91.31
844.134	50.35
844.31	79.02
844.486	91.31
844.662	107.69
844.838	109.74
845.013	113.83
845.189	85.16
845.365	64.68
845.541	72.87
845.716	111.78
845.892	76.97
846.068	48.3
846.244	54.44
846.419	64.68
846.595	62.63
846.77	36.01
846.946	50.35
847.122	124.07
847.297	97.45
847.473	156.84
847.648	48.3
847.824	56.49
847.999	113.83
848.175	52.39
848.35	62.63
848.526	40.11
848.701	117.93
848.876	79.02
849.052	85.16
849.227	70.83
849.403	46.25
849.578	70.83
849.753	72.87
849.929	56.49
850.104	46.25
850.279	138.41
850.454	46.25
850.63	52.39
850.805	64.68
850.98	83.11
851.155	74.92
851.33	124.07
851.505	33.96
851.681	85.16
851.856	7.34
852.031	31.91
852.206	54.44
852.381	-33.62
852.556	27.82
852.731	64.68
852.906	85.16
853.081	54.44
853.256	81.07
853.431	40.11
853.606	29.87
853.781	113.83
853.956	-15.19
854.131	62.63
854.305	13.48
854.48	93.35
854.655	1.19
854.83	17.58
855.005	72.87
855.18	23.72
855.354	56.49
855.529	119.98
855.704	99.5
855.879	105.64
856.053	76.97
856.228	70.83
856.403	97.45
856.577	74.92
856.752	7.34
856.926	89.26
857.101	36.01
857.276	25.77
857.45	-66.39
857.625	68.78
857.799	74.92
857.974	87.21
858.148	-7
858.323	66.73
858.497	38.06
858.672	15.53
858.846	87.21
859.02	54.44
859.195	46.25
859.369	-2.9
859.543	93.35
859.718	-17.24
859.892	13.48
860.066	117.93
860.241	40.11
860.415	21.67
860.589	-37.72
860.763	31.91
860.938	60.59
861.112	-37.72
861.286	130.22
861.46	44.2
861.634	44.2
861.808	42.15
861.982	17.58
862.157	7.34
862.331	-2.9
862.505	95.4
862.679	27.82
862.853	56.49
863.027	64.68
863.201	48.3
863.375	52.39
863.549	-7
863.722	74.92
863.896	17.58
864.07	11.43
864.244	36.01
864.418	23.72
864.592	97.45
864.766	89.26
864.939	44.2
865.113	46.25
865.287	44.2
865.461	48.3
865.634	40.11
865.808	60.59
865.982	62.63
866.156	144.55
866.329	31.91
866.503	60.59
866.676	68.78
866.85	1.19
867.024	-7
867.197	50.35
867.371	5.29
867.544	38.06
867.718	23.72
867.891	103.59
868.065	21.67
868.238	13.48
868.412	79.02
868.585	115.88
868.759	54.44
868.932	48.3
869.105	58.54
869.279	38.06
869.452	-4.95
869.625	7.34
869.799	48.3
869.972	25.77
870.145	72.87
870.319	50.35
870.492	-105.3
870.665	103.59
870.838	31.91
871.011	-31.57
871.185	-7
871.358	60.59
871.531	13.48
871.704	1.19
871.877	7.34
872.05	3.24
872.223	-11.09
872.396	68.78
872.569	-37.72
872.742	-15.19
872.915	-9.05
873.088	40.11
873.261	33.96
873.434	-27.48
873.607	58.54
873.78	31.91
873.953	13.48
874.126	-9.05
874.299	101.55
874.471	-23.38
874.644	3.24
874.817	107.69
874.99	101.55
875.163	19.63
875.335	74.92
875.508	31.91
875.681	56.49
875.853	38.06
876.026	68.78
876.199	81.07
876.371	-33.62
876.544	25.77
876.717	-17.24
876.889	105.64
877.062	29.87
877.234	36.01
877.407	99.5
877.579	1.19
877.752	33.96
877.924	38.06
878.097	33.96
878.269	36.01
878.442	-2.9
878.614	13.48
878.786	56.49
878.959	13.48
879.131	101.55
879.303	-31.57
879.476	70.83
879.648	66.73
879.82	93.35
879.993	48.3
880.165	-47.96
880.337	5.29
880.509	27.82
880.681	60.59
880.854	23.72
881.026	-7
881.198	15.53
881.37	31.91
881.542	79.02
881.714	25.77
881.886	60.59
882.058	79.02
882.23	68.78
882.402	29.87
882.574	31.91
882.746	54.44
882.918	-0.85
883.09	-0.85
883.262	25.77
883.434	44.2
883.606	54.44
883.778	66.73
883.95	40.11
884.122	15.53
884.293	81.07
884.465	-25.43
884.637	11.43
884.809	11.43
884.98	-4.95
885.152	60.59
885.324	44.2
885.496	13.48
885.667	70.83
885.839	-7
886.011	62.63
886.182	42.15
886.354	64.68
886.525	-11.09
886.697	25.77
886.869	1.19
887.04	-7
887.212	48.3
887.383	13.48
887.555	3.24
887.726	-13.14
887.897	1.19
888.069	25.77
888.24	29.87
888.412	81.07
888.583	54.44
888.754	7.34
888.926	38.06
889.097	3.24
889.268	58.54
889.44	9.39
889.611	89.26
889.782	52.39
889.953	-23.38
890.125	25.77
890.296	-21.33
890.467	-23.38
890.638	15.53
890.809	-9.05
890.98	-33.62
891.151	79.02
891.323	38.06
891.494	-17.24
891.665	-9.05
891.836	74.92
892.007	-15.19
892.178	33.96
892.349	-9.05
892.52	66.73
892.691	11.43
892.862	42.15
893.032	-23.38
893.203	40.11
893.374	21.67
893.545	66.73
893.716	-33.62
893.887	23.72
894.057	-41.81
894.228	29.87
894.399	21.67
894.57	36.01
894.74	-0.85
894.911	44.2
895.082	62.63
895.253	42.15
895.423	-7
895.594	21.67
895.764	11.43
895.935	25.77
896.106	56.49
896.276	19.63
896.447	-35.67
896.617	-2.9
896.788	-13.14
896.958	-4.95
897.129	-0.85
897.299	64.68
897.47	101.55
897.64	3.24
897.81	3.24
897.981	19.63
898.151	29.87
898.322	19.63
898.492	15.53
898.662	1.19
898.832	-9.05
899.003	89.26
899.173	68.78
899.343	-17.24
899.513	-39.76
