Data from USB4F104151__62__12-27-41-032.txt Node

Date: Fri Mar 14 12:27:41 EDT 2025
User: louis
Spectrometer: USB4F10415
Trigger mode: 4
Integration Time (sec): 2.000000E-2
Scans to average: 1
Electric dark correction enabled: true
Nonlinearity correction enabled: false
Boxcar width: 0
XAxis mode: Wavelengths
Number of Pixels in Spectrum: 3648
>>>>>Begin Spectral Data<<<<<
178.204	-28.84
178.424	-28.84
178.644	-28.84
178.864	-63.66
179.084	-116.9
179.304	36.69
179.524	-22.7
179.744	-2.22
179.964	75.6
180.184	-24.75
180.404	-80.04
180.624	44.88
180.844	10.07
181.064	-2.22
181.283	10.07
181.503	-55.47
181.723	10.07
181.943	-10.41
182.163	69.46
182.383	8.02
182.602	53.08
182.822	83.8
183.042	-4.27
183.262	14.17
183.482	38.74
183.701	-30.89
183.921	24.4
184.141	18.26
184.361	36.69
184.58	73.56
184.8	75.6
185.02	26.45
185.239	16.21
185.459	83.8
185.679	59.22
185.898	22.36
186.118	83.8
186.338	22.36
186.557	59.22
186.777	77.65
186.997	34.64
187.216	69.46
187.436	38.74
187.655	85.84
187.875	30.55
188.095	65.36
188.314	91.99
188.534	67.41
188.753	20.31
188.973	81.75
189.192	55.12
189.412	71.51
189.631	32.6
189.851	3.93
190.07	106.32
190.29	-10.41
190.509	-16.55
190.729	-18.6
190.948	36.69
191.168	163.67
191.387	57.17
191.607	46.93
191.826	3.93
192.045	46.93
192.265	44.88
192.484	81.75
192.704	-34.99
192.923	46.93
193.142	63.32
193.362	32.6
193.581	61.27
193.8	85.84
194.02	55.12
194.239	77.65
194.458	48.98
194.678	46.93
194.897	83.8
195.116	100.18
195.335	-28.84
195.555	-12.46
195.774	-8.36
195.993	130.9
196.212	26.45
196.432	3.93
196.651	48.98
196.87	180.05
197.089	124.76
197.308	53.08
197.528	65.36
197.747	-6.31
197.966	57.17
198.185	59.22
198.404	69.46
198.623	26.45
198.842	26.45
199.062	57.17
199.281	38.74
199.5	-28.84
199.719	48.98
199.938	22.36
200.157	77.65
200.376	46.93
200.595	126.8
200.814	36.69
201.033	55.12
201.252	40.79
201.471	18.26
201.69	61.27
201.909	32.6
202.128	18.26
202.347	26.45
202.566	79.7
202.785	59.22
203.004	-14.51
203.223	110.42
203.442	26.45
203.661	83.8
203.879	65.36
204.098	87.89
204.317	77.65
204.536	53.08
204.755	42.84
204.974	22.36
205.193	36.69
205.411	104.28
205.63	89.94
205.849	40.79
206.068	67.41
206.287	71.51
206.505	55.12
206.724	32.6
206.943	30.55
207.162	87.89
207.381	-0.17
207.599	36.69
207.818	106.32
208.037	141.14
208.255	61.27
208.474	42.84
208.693	-16.55
208.911	57.17
209.13	16.21
209.349	40.79
209.567	-47.27
209.786	81.75
210.005	59.22
210.223	116.56
210.442	32.6
210.661	51.03
210.879	1.88
211.098	10.07
211.316	46.93
211.535	67.41
211.753	53.08
211.972	30.55
212.191	40.79
212.409	12.12
212.628	69.46
212.846	69.46
213.065	24.4
213.283	61.27
213.502	-4.27
213.72	77.65
213.938	38.74
214.157	44.88
214.375	42.84
214.594	44.88
214.812	12.12
215.031	65.36
215.249	14.17
215.467	132.95
215.686	104.28
215.904	87.89
216.122	83.8
216.341	42.84
216.559	61.27
216.778	75.6
216.996	22.36
217.214	77.65
217.432	40.79
217.651	-20.65
217.869	51.03
218.087	10.07
218.306	59.22
218.524	32.6
218.742	40.79
218.96	32.6
219.179	87.89
219.397	81.75
219.615	106.32
219.833	100.18
220.051	-30.89
220.27	55.12
220.488	51.03
220.706	51.03
220.924	-4.27
221.142	26.45
221.36	-92.33
221.578	63.32
221.796	26.45
222.015	-12.46
222.233	26.45
222.451	128.85
222.669	42.84
222.887	85.84
223.105	-20.65
223.323	63.32
223.541	71.51
223.759	69.46
223.977	67.41
224.195	-4.27
224.413	14.17
224.631	89.94
224.849	91.99
225.067	26.45
225.285	44.88
225.503	-16.55
225.721	-39.08
225.939	71.51
226.157	81.75
226.375	79.7
226.592	96.08
226.81	44.88
227.028	34.64
227.246	114.52
227.464	83.8
227.682	3.93
227.9	122.71
228.117	83.8
228.335	36.69
228.553	102.23
228.771	36.69
228.989	28.5
229.206	48.98
229.424	18.26
229.642	18.26
229.86	96.08
230.077	22.36
230.295	145.24
230.513	102.23
230.731	34.64
230.948	77.65
231.166	81.75
231.384	98.13
231.601	102.23
231.819	57.17
232.037	120.66
232.254	85.84
232.472	48.98
232.689	12.12
232.907	44.88
233.125	38.74
233.342	65.36
233.56	-26.79
233.777	38.74
233.995	69.46
234.213	69.46
234.43	34.64
234.648	34.64
234.865	8.02
235.083	106.32
235.3	28.5
235.518	-6.31
235.735	44.88
235.953	22.36
236.17	126.8
236.388	-0.17
236.605	22.36
236.822	67.41
237.04	42.84
237.257	-43.18
237.475	-16.55
237.692	-34.99
237.909	85.84
238.127	73.56
238.344	79.7
238.562	73.56
238.779	28.5
238.996	79.7
239.214	79.7
239.431	-8.36
239.648	24.4
239.865	36.69
240.083	26.45
240.3	-12.46
240.517	46.93
240.735	20.31
240.952	112.47
241.169	51.03
241.386	34.64
241.603	10.07
241.821	28.5
242.038	65.36
242.255	61.27
242.472	28.5
242.689	26.45
242.907	139.09
243.124	112.47
243.341	24.4
243.558	71.51
243.775	57.17
243.992	1.88
244.209	14.17
244.426	96.08
244.643	100.18
244.86	40.79
245.078	-34.99
245.295	69.46
245.512	96.08
245.729	32.6
245.946	59.22
246.163	55.12
246.38	65.36
246.597	22.36
246.814	46.93
247.031	59.22
247.248	16.21
247.464	32.6
247.681	22.36
247.898	96.08
248.115	24.4
248.332	75.6
248.549	98.13
248.766	55.12
248.983	53.08
249.2	73.56
249.417	53.08
249.633	65.36
249.85	87.89
250.067	26.45
250.284	44.88
250.501	26.45
250.717	85.84
250.934	12.12
251.151	44.88
251.368	48.98
251.585	151.38
251.801	81.75
252.018	16.21
252.235	69.46
252.451	-24.75
252.668	28.5
252.885	44.88
253.102	14.17
253.318	8.02
253.535	14.17
253.752	30.55
253.968	32.6
254.185	42.84
254.401	12.12
254.618	67.41
254.835	32.6
255.051	67.41
255.268	48.98
255.484	34.64
255.701	38.74
255.917	55.12
256.134	28.5
256.351	36.69
256.567	24.4
256.784	44.88
257	-14.51
257.217	85.84
257.433	65.36
257.65	42.84
257.866	67.41
258.082	102.23
258.299	40.79
258.515	85.84
258.732	-2.22
258.948	-30.89
259.165	89.94
259.381	91.99
259.597	65.36
259.814	46.93
260.03	104.28
260.246	38.74
260.463	18.26
260.679	-20.65
260.895	44.88
261.112	48.98
261.328	32.6
261.544	100.18
261.761	36.69
261.977	53.08
262.193	40.79
262.409	10.07
262.626	26.45
262.842	-0.17
263.058	73.56
263.274	69.46
263.49	51.03
263.707	-14.51
263.923	67.41
264.139	40.79
264.355	20.31
264.571	-4.27
264.787	30.55
265.004	44.88
265.22	38.74
265.436	48.98
265.652	48.98
265.868	67.41
266.084	32.6
266.3	10.07
266.516	-14.51
266.732	108.37
266.948	34.64
267.164	110.42
267.38	40.79
267.596	24.4
267.812	40.79
268.028	-4.27
268.244	51.03
268.46	85.84
268.676	98.13
268.892	65.36
269.108	8.02
269.324	-10.41
269.54	30.55
269.756	26.45
269.972	-63.66
270.188	8.02
270.403	51.03
270.619	10.07
270.835	98.13
271.051	40.79
271.267	40.79
271.483	71.51
271.698	73.56
271.914	57.17
272.13	77.65
272.346	3.93
272.562	59.22
272.777	-20.65
272.993	-71.85
273.209	79.7
273.425	16.21
273.64	85.84
273.856	57.17
274.072	10.07
274.287	59.22
274.503	26.45
274.719	83.8
274.934	24.4
275.15	-6.31
275.366	94.04
275.581	-12.46
275.797	26.45
276.012	3.93
276.228	130.9
276.444	98.13
276.659	149.33
276.875	51.03
277.09	55.12
277.306	34.64
277.521	51.03
277.737	116.56
277.952	44.88
278.168	53.08
278.383	44.88
278.599	-14.51
278.814	-14.51
279.03	16.21
279.245	112.47
279.461	38.74
279.676	120.66
279.892	-12.46
280.107	61.27
280.322	32.6
280.538	65.36
280.753	73.56
280.969	102.23
281.184	87.89
281.399	110.42
281.615	48.98
281.83	-10.41
282.045	30.55
282.26	-37.03
282.476	12.12
282.691	12.12
282.906	40.79
283.122	71.51
283.337	-43.18
283.552	-0.17
283.767	81.75
283.983	85.84
284.198	-0.17
284.413	65.36
284.628	14.17
284.843	59.22
285.058	36.69
285.274	42.84
285.489	40.79
285.704	46.93
285.919	114.52
286.134	85.84
286.349	77.65
286.564	28.5
286.779	108.37
286.995	10.07
287.21	48.98
287.425	61.27
287.64	48.98
287.855	48.98
288.07	-22.7
288.285	87.89
288.5	51.03
288.715	98.13
288.93	28.5
289.145	38.74
289.36	-2.22
289.575	16.21
289.79	18.26
290.004	42.84
290.219	42.84
290.434	48.98
290.649	40.79
290.864	91.99
291.079	18.26
291.294	59.22
291.509	98.13
291.724	42.84
291.938	51.03
292.153	46.93
292.368	40.79
292.583	91.99
292.798	59.22
293.012	75.6
293.227	34.64
293.442	91.99
293.657	120.66
293.871	112.47
294.086	53.08
294.301	120.66
294.516	77.65
294.73	-0.17
294.945	-22.7
295.16	79.7
295.374	61.27
295.589	106.32
295.804	20.31
296.018	79.7
296.233	59.22
296.447	167.76
296.662	-45.23
296.877	40.79
297.091	69.46
297.306	71.51
297.52	51.03
297.735	51.03
297.949	5.97
298.164	100.18
298.378	28.5
298.593	20.31
298.807	34.64
299.022	69.46
299.236	65.36
299.451	102.23
299.665	102.23
299.88	38.74
300.094	51.03
300.309	57.17
300.523	-39.08
300.737	34.64
300.952	10.07
301.166	46.93
301.381	3.93
301.595	30.55
301.809	81.75
302.024	30.55
302.238	59.22
302.452	18.26
302.667	10.07
302.881	67.41
303.095	-12.46
303.309	118.61
303.524	71.51
303.738	112.47
303.952	32.6
304.166	-20.65
304.381	12.12
304.595	65.36
304.809	16.21
305.023	81.75
305.237	22.36
305.452	118.61
305.666	79.7
305.88	89.94
306.094	73.56
306.308	42.84
306.522	89.94
306.736	53.08
306.95	83.8
307.164	89.94
307.379	3.93
307.593	91.99
307.807	87.89
308.021	20.31
308.235	53.08
308.449	46.93
308.663	40.79
308.877	157.52
309.091	-22.7
309.305	48.98
309.519	22.36
309.733	65.36
309.947	61.27
310.161	112.47
310.374	24.4
310.588	53.08
310.802	26.45
311.016	75.6
311.23	16.21
311.444	81.75
311.658	55.12
311.872	-26.79
312.085	110.42
312.299	69.46
312.513	137.04
312.727	51.03
312.941	51.03
313.154	61.27
313.368	63.32
313.582	71.51
313.796	-10.41
314.009	18.26
314.223	28.5
314.437	98.13
314.651	53.08
314.864	61.27
315.078	98.13
315.292	96.08
315.505	61.27
315.719	-12.46
315.933	48.98
316.146	32.6
316.36	-0.17
316.573	106.32
316.787	73.56
317.001	69.46
317.214	34.64
317.428	114.52
317.641	-14.51
317.855	-8.36
318.068	96.08
318.282	104.28
318.495	55.12
318.709	20.31
318.922	46.93
319.136	-22.7
319.349	75.6
319.563	87.89
319.776	130.9
319.99	-20.65
320.203	75.6
320.417	79.7
320.63	-14.51
320.843	69.46
321.057	34.64
321.27	24.4
321.483	110.42
321.697	55.12
321.91	32.6
322.124	79.7
322.337	48.98
322.55	91.99
322.763	75.6
322.977	114.52
323.19	-69.8
323.403	67.41
323.617	38.74
323.83	71.51
324.043	18.26
324.256	102.23
324.469	-14.51
324.683	34.64
324.896	40.79
325.109	85.84
325.322	-14.51
325.535	94.04
325.748	110.42
325.962	61.27
326.175	14.17
326.388	38.74
326.601	91.99
326.814	42.84
327.027	28.5
327.24	53.08
327.453	16.21
327.666	59.22
327.879	12.12
328.092	114.52
328.305	51.03
328.518	40.79
328.731	40.79
328.944	-12.46
329.157	28.5
329.37	42.84
329.583	135
329.796	73.56
330.009	71.51
330.222	42.84
330.435	75.6
330.648	12.12
330.861	10.07
331.073	81.75
331.286	114.52
331.499	8.02
331.712	51.03
331.925	65.36
332.138	53.08
332.35	63.32
332.563	81.75
332.776	71.51
332.989	20.31
333.202	69.46
333.414	118.61
333.627	16.21
333.84	73.56
334.053	114.52
334.265	20.31
334.478	63.32
334.691	67.41
334.903	34.64
335.116	132.95
335.329	112.47
335.541	100.18
335.754	67.41
335.966	18.26
336.179	79.7
336.392	18.26
336.604	8.02
336.817	26.45
337.029	75.6
337.242	36.69
337.454	83.8
337.667	12.12
337.88	110.42
338.092	-34.99
338.305	42.84
338.517	42.84
338.729	83.8
338.942	106.32
339.154	36.69
339.367	-12.46
339.579	94.04
339.792	-6.31
340.004	75.6
340.217	87.89
340.429	48.98
340.641	8.02
340.854	71.51
341.066	3.93
341.278	67.41
341.491	120.66
341.703	81.75
341.915	38.74
342.128	128.85
342.34	116.56
342.552	36.69
342.764	120.66
342.977	42.84
343.189	51.03
343.401	124.76
343.613	-51.37
343.826	30.55
344.038	32.6
344.25	42.84
344.462	20.31
344.674	48.98
344.886	38.74
345.099	67.41
345.311	-6.31
345.523	14.17
345.735	-0.17
345.947	114.52
346.159	53.08
346.371	71.51
346.583	104.28
346.795	135
347.007	8.02
347.219	118.61
347.431	40.79
347.643	30.55
347.855	44.88
348.067	94.04
348.279	-20.65
348.491	44.88
348.703	100.18
348.915	48.98
349.127	26.45
349.339	71.51
349.551	-10.41
349.763	28.5
349.975	-18.6
350.187	108.37
350.399	114.52
350.61	65.36
350.822	22.36
351.034	89.94
351.246	36.69
351.458	59.22
351.669	61.27
351.881	128.85
352.093	20.31
352.305	137.04
352.517	57.17
352.728	69.46
352.94	51.03
353.152	16.21
353.363	22.36
353.575	57.17
353.787	118.61
353.999	38.74
354.21	98.13
354.422	57.17
354.633	26.45
354.845	59.22
355.057	73.56
355.268	85.84
355.48	75.6
355.692	10.07
355.903	51.03
356.115	-2.22
356.326	22.36
356.538	77.65
356.749	124.76
356.961	53.08
357.172	94.04
357.384	-2.22
357.595	57.17
357.807	63.32
358.018	24.4
358.23	114.52
358.441	163.67
358.653	83.8
358.864	79.7
359.075	57.17
359.287	51.03
359.498	61.27
359.709	102.23
359.921	46.93
360.132	77.65
360.344	44.88
360.555	20.31
360.766	91.99
360.977	26.45
361.189	141.14
361.4	67.41
361.611	34.64
361.823	30.55
362.034	26.45
362.245	122.71
362.456	79.7
362.667	18.26
362.879	100.18
363.09	102.23
363.301	126.8
363.512	32.6
363.723	22.36
363.935	26.45
364.146	112.47
364.357	28.5
364.568	67.41
364.779	55.12
364.99	83.8
365.201	65.36
365.412	77.65
365.623	-24.75
365.834	69.46
366.045	34.64
366.256	106.32
366.467	85.84
366.678	75.6
366.889	48.98
367.1	44.88
367.311	57.17
367.522	51.03
367.733	61.27
367.944	102.23
368.155	55.12
368.366	81.75
368.577	75.6
368.788	77.65
368.999	46.93
369.209	16.21
369.42	143.19
369.631	137.04
369.842	71.51
370.053	96.08
370.264	32.6
370.474	55.12
370.685	42.84
370.896	36.69
371.107	61.27
371.317	122.71
371.528	22.36
371.739	42.84
371.95	12.12
372.16	102.23
372.371	28.5
372.582	26.45
372.792	28.5
373.003	-8.36
373.214	67.41
373.424	71.51
373.635	137.04
373.846	42.84
374.056	102.23
374.267	77.65
374.477	32.6
374.688	22.36
374.898	57.17
375.109	63.32
375.319	38.74
375.53	141.14
375.74	34.64
375.951	12.12
376.161	14.17
376.372	38.74
376.582	48.98
376.793	102.23
377.003	24.4
377.214	51.03
377.424	87.89
377.635	26.45
377.845	63.32
378.055	108.37
378.266	94.04
378.476	139.09
378.686	73.56
378.897	53.08
379.107	-14.51
379.317	36.69
379.528	20.31
379.738	59.22
379.948	42.84
380.158	77.65
380.369	38.74
380.579	53.08
380.789	87.89
380.999	130.9
381.21	132.95
381.42	106.32
381.63	110.42
381.84	122.71
382.05	85.84
382.261	67.41
382.471	16.21
382.681	1.88
382.891	106.32
383.101	89.94
383.311	36.69
383.521	71.51
383.731	55.12
383.941	114.52
384.151	38.74
384.361	-14.51
384.571	71.51
384.781	36.69
384.991	89.94
385.201	30.55
385.411	83.8
385.621	91.99
385.831	65.36
386.041	51.03
386.251	48.98
386.461	83.8
386.671	32.6
386.881	91.99
387.091	38.74
387.301	40.79
387.511	122.71
387.72	32.6
387.93	112.47
388.14	8.02
388.35	14.17
388.56	102.23
388.769	122.71
388.979	108.37
389.189	-0.17
389.399	65.36
389.609	85.84
389.818	22.36
390.028	83.8
390.238	108.37
390.447	44.88
390.657	46.93
390.867	44.88
391.076	22.36
391.286	20.31
391.496	65.36
391.705	79.7
391.915	188.24
392.125	118.61
392.334	139.09
392.544	98.13
392.753	53.08
392.963	77.65
393.172	16.21
393.382	-0.17
393.591	135
393.801	128.85
394.01	122.71
394.22	3.93
394.429	75.6
394.639	28.5
394.848	89.94
395.058	77.65
395.267	91.99
395.477	5.97
395.686	67.41
395.895	108.37
396.105	55.12
396.314	110.42
396.524	3.93
396.733	42.84
396.942	126.8
397.152	12.12
397.361	98.13
397.57	83.8
397.78	98.13
397.989	137.04
398.198	110.42
398.407	122.71
398.617	67.41
398.826	110.42
399.035	55.12
399.244	169.81
399.453	87.89
399.663	85.84
399.872	108.37
400.081	89.94
400.29	114.52
400.499	85.84
400.708	135
400.917	98.13
401.127	-2.22
401.336	63.32
401.545	165.71
401.754	157.52
401.963	126.8
402.172	116.56
402.381	171.86
402.59	8.02
402.799	65.36
403.008	141.14
403.217	124.76
403.426	141.14
403.635	130.9
403.844	157.52
404.053	194.39
404.262	124.76
404.471	149.33
404.68	141.14
404.888	106.32
405.097	155.47
405.306	126.8
405.515	118.61
405.724	173.91
405.933	212.82
406.142	171.86
406.35	69.46
406.559	108.37
406.768	149.33
406.977	120.66
407.185	167.76
407.394	145.24
407.603	202.58
407.812	130.9
408.02	208.72
408.229	151.38
408.438	253.78
408.646	122.71
408.855	196.43
409.064	216.91
409.272	298.83
409.481	186.19
409.69	298.83
409.898	237.39
410.107	302.93
410.315	253.78
410.524	237.39
410.733	194.39
410.941	313.17
411.15	401.23
411.358	313.17
411.567	362.32
411.775	345.94
411.984	327.5
412.192	407.38
412.401	284.5
412.609	462.67
412.818	397.14
413.026	309.07
413.234	372.56
413.443	450.38
413.651	429.9
413.86	462.67
414.068	503.63
414.276	483.15
414.485	472.91
414.693	511.82
414.901	571.21
415.11	538.45
415.318	536.4
415.526	626.51
415.734	673.61
415.943	644.94
416.151	601.93
416.359	640.84
416.567	653.13
416.776	706.38
416.984	763.72
417.192	733
417.4	776.01
417.608	784.2
417.817	714.57
418.025	802.63
418.233	892.74
418.441	896.84
418.649	894.79
418.857	923.46
419.065	984.9
419.273	999.24
419.481	1009.48
419.689	1095.49
419.897	1079.11
420.105	1146.69
420.313	1134.4
420.521	1214.27
420.729	1279.81
420.937	1204.03
421.145	1265.47
421.353	1355.58
421.561	1470.27
421.769	1455.94
421.977	1531.71
422.185	1523.52
422.393	1668.92
422.601	1652.54
422.809	1730.36
423.017	1646.4
423.224	1859.38
423.432	1892.15
423.64	1820.47
423.848	1972.02
424.056	1992.5
424.263	2133.81
424.471	2080.57
424.679	2238.26
424.887	2391.86
425.094	2309.94
425.302	2309.94
425.51	2510.64
425.718	2555.69
425.925	2541.36
426.133	2680.62
426.341	2725.68
426.548	2928.42
426.756	2819.88
426.964	2946.86
427.171	3122.98
427.379	3305.25
427.586	3260.2
427.794	3350.31
428.001	3573.53
428.209	3643.17
428.417	3614.49
428.624	3886.87
428.832	3960.6
429.039	3919.64
429.247	3882.78
429.454	4185.88
429.662	4552.46
429.869	4362
430.076	4497.17
430.284	4329.24
430.491	4501.26
430.699	4845.32
430.906	4898.57
431.114	4980.49
431.321	5154.57
431.528	5129.99
431.736	5596.93
431.943	5881.6
432.15	5756.67
432.358	5863.16
432.565	6010.62
432.772	6016.76
432.979	6389.49
433.187	6176.5
433.394	6555.38
433.601	6919.92
433.808	6979.31
434.016	6981.35
434.223	7055.08
434.43	7579.36
434.637	7583.46
434.844	7970.52
435.052	8206.04
435.259	8060.63
435.466	8134.36
435.673	7956.19
435.88	8539.86
436.087	8961.74
436.294	8992.46
436.501	8818.38
436.708	9045.71
436.915	9397.96
437.122	9750.21
437.329	9735.87
437.537	10108.6
437.743	10143.42
437.95	10161.85
438.157	10712.75
438.364	11120.3
438.571	11134.64
438.778	11194.03
438.985	12154.52
439.192	11488.93
439.399	11921.06
439.606	11869.86
439.813	12375.7
440.02	13143.69
440.227	12717.72
440.433	12787.35
440.64	13158.03
440.847	13158.03
441.054	13315.72
441.261	14536.31
441.467	14110.33
441.674	14452.34
441.881	14972.53
442.088	14849.65
442.294	14804.6
442.501	15261.29
442.708	15642.21
442.914	16385.63
443.121	16860.76
443.328	16545.37
443.534	17532.49
443.741	17061.46
443.948	16735.83
444.154	18247.23
444.361	18249.28
444.568	18136.64
444.774	18058.82
444.981	18200.13
445.187	19177.01
445.394	19820.07
445.6	19512.88
445.807	21278.22
446.013	20366.88
446.22	20854.3
446.426	21648.91
446.633	21605.9
446.839	22554.11
447.046	21495.31
447.252	22793.72
447.459	22984.18
447.665	22806.01
447.871	23975.4
448.078	24896.99
448.284	23930.34
448.491	24489.44
448.697	25384.4
448.903	25798.09
449.11	25707.98
449.316	25486.8
449.522	25927.11
449.728	26609.09
449.935	26883.52
450.141	26725.82
450.347	27487.67
450.553	26617.28
450.76	26996.15
450.966	28134.82
451.172	27850.16
451.378	28462.5
451.584	27786.67
451.791	28372.39
451.997	28396.96
452.203	28732.83
452.409	28411.3
452.615	28741.02
452.821	27454.9
453.027	27334.07
453.233	28609.95
453.44	27698.61
453.646	28200.36
453.852	27999.66
454.058	28814.75
454.264	27938.22
454.47	28259.75
454.676	27692.46
454.882	28820.89
455.088	26029.51
455.294	26574.27
455.5	27295.16
455.705	27485.62
455.911	26062.28
456.117	25535.95
456.323	25296.34
456.529	24038.89
456.735	25302.48
456.941	24757.72
457.147	24047.08
457.352	23166.45
457.558	23059.96
457.764	23272.95
457.97	22824.44
458.176	22097.41
458.381	22175.23
458.587	20948.5
458.793	21165.59
458.999	20035.11
459.204	21392.91
459.41	20868.63
459.616	19457.58
459.821	19498.54
460.027	19478.06
460.233	19060.27
460.438	18093.63
460.644	18351.68
460.85	17221.2
461.055	17303.12
461.261	17188.43
461.466	15869.54
461.672	15433.32
461.878	16639.58
462.083	15449.71
462.289	15242.86
462.494	15156.85
462.7	14497.4
462.905	14083.71
463.111	14472.82
463.316	14530.17
463.522	14446.2
463.727	14427.77
463.932	14184.06
464.138	14003.84
464.343	13989.5
464.549	13590.15
464.754	14296.7
464.959	14016.13
465.165	14128.77
465.37	13309.58
465.575	13133.45
465.781	13467.27
465.986	13600.39
466.191	13260.43
466.397	12732.05
466.602	12336.79
466.807	12957.33
467.012	12654.23
467.218	12705.43
467.423	12531.35
467.628	12783.25
467.833	13274.76
468.038	12777.11
468.244	12404.38
468.449	12840.59
468.654	12377.75
468.859	12246.68
469.064	12275.35
469.269	11849.38
469.474	11806.37
469.679	11957.92
469.885	11771.55
470.09	11980.45
470.295	11929.25
470.5	11437.73
470.705	11759.27
470.91	11398.82
471.115	11224.75
471.32	11447.97
471.525	11060.91
471.73	11144.88
471.935	10966.7
472.139	10647.22
472.344	11079.34
472.549	10727.09
472.754	10784.43
472.959	10415.8
473.164	10014.4
473.369	9998.01
473.574	10315.45
473.778	10208.95
473.983	10110.65
474.188	10038.97
474.393	9727.68
474.598	9895.61
474.802	9533.12
475.007	9449.16
475.212	9809.6
475.417	9246.41
475.621	9483.97
475.826	9273.03
476.031	8933.07
476.235	8896.21
476.44	9154.25
476.645	8763.09
476.849	9187.02
477.054	8814.29
477.259	8705.74
477.463	8804.05
477.668	8533.72
477.872	8546
478.077	8431.32
478.282	8351.45
478.486	8124.12
478.691	8294.1
478.895	8177.37
479.1	7931.61
479.304	8126.17
479.509	7769.82
479.713	8060.63
479.918	7876.32
480.122	7622.37
480.326	7974.62
480.531	7786.21
480.735	7657.18
480.94	7628.51
481.144	7892.7
481.348	7374.56
481.553	7538.4
481.757	7415.52
481.961	7612.13
482.166	7792.35
482.37	7593.7
482.574	7614.18
482.778	7538.4
482.983	7460.58
483.187	7460.58
483.391	7587.55
483.595	7501.54
483.8	7542.5
484.004	7581.41
484.208	7605.99
484.412	7436
484.616	7587.55
484.821	7620.32
485.025	7487.2
485.229	7728.86
485.433	7581.41
485.637	7376.61
485.841	7503.59
486.045	7331.56
486.249	7567.07
486.453	7544.55
486.657	7696.1
486.861	7626.46
487.065	7458.53
487.269	7679.71
487.473	7286.5
487.677	7593.7
487.881	7517.92
488.085	7532.26
488.289	7712.48
488.493	7618.27
488.697	7741.15
488.901	7651.04
489.105	7612.13
489.309	7681.76
489.512	7712.48
489.716	7710.43
489.92	7626.46
490.124	7642.85
490.328	7948
490.531	7651.04
490.735	7827.17
490.939	7708.38
491.143	7855.84
491.346	7667.42
491.55	7913.18
491.754	7986.91
491.958	7962.33
492.161	7794.4
492.365	7878.37
492.569	7833.31
492.772	7925.47
492.976	8343.25
493.18	8132.31
493.383	8093.4
493.587	8177.37
493.79	8386.26
493.994	8273.62
494.197	8275.67
494.401	8509.14
494.605	8335.06
494.808	8546
495.012	8578.77
495.215	8603.35
495.419	8718.03
495.622	8537.81
495.825	8619.73
496.029	8726.22
496.232	8924.88
496.436	9105.1
496.639	9223.88
496.843	9060.04
497.046	9313.99
497.249	9369.29
497.453	9301.7
497.656	9483.97
497.859	9479.88
498.063	9727.68
498.266	10016.44
498.469	9815.74
498.673	9877.18
498.876	9965.25
499.079	10006.2
499.282	10129.08
499.485	10497.72
499.689	10430.13
499.892	10616.5
500.095	10634.93
500.298	10935.98
500.501	10575.54
500.705	11071.15
500.908	11112.11
501.111	11181.74
501.314	11501.22
501.517	11630.24
501.72	11519.65
501.923	11681.44
502.126	11962.01
502.329	12058.27
502.532	12224.15
502.735	12199.58
502.938	12373.66
503.141	12557.97
503.344	12730
503.547	12625.56
503.75	12961.42
503.953	12971.66
504.156	13209.23
504.359	13545.09
504.562	13434.5
504.765	13680.26
504.968	13911.68
505.17	13903.49
505.373	13930.11
505.576	14308.99
505.779	14378.62
505.982	14444.15
506.185	14780.02
506.387	14874.23
506.59	15009.39
506.793	15300.2
506.996	15109.74
507.198	15634.02
507.401	15689.32
507.604	15701.61
507.807	16125.54
508.009	16361.05
508.212	16088.67
508.415	16430.68
508.617	16428.63
508.82	16879.19
509.022	16615
509.225	17067.6
509.428	17462.86
509.63	17108.56
509.833	17360.46
510.035	18085.44
510.238	17878.6
510.44	18052.67
510.643	18251.33
510.845	18597.43
511.048	18196.03
511.25	19070.51
511.453	18779.7
511.655	19465.77
511.858	19422.76
512.06	19594.79
512.262	19889.7
512.465	19525.16
512.667	20133.41
512.87	20493.85
513.072	20456.99
513.274	20532.76
513.477	20809.24
513.679	21145.11
513.881	21478.93
514.084	21212.69
514.286	21138.96
514.488	21466.64
514.69	22179.33
514.893	22380.03
515.095	22404.61
515.297	22654.46
515.499	22556.16
515.701	22986.23
515.904	23389.68
516.106	23379.44
516.308	23471.6
516.51	23684.59
516.712	23911.91
516.914	24444.38
517.116	24581.6
517.318	24227.3
517.52	24620.51
517.722	24782.3
517.925	24983
518.127	25558.48
518.329	25607.63
518.531	25650.64
518.733	25918.92
518.935	26131.91
519.136	26144.2
519.338	26680.77
519.54	26840.51
519.742	27067.83
519.944	26996.15
520.146	27526.58
520.348	27671.98
520.55	27622.83
520.752	27628.98
520.954	28511.65
521.155	28159.4
521.357	28452.26
521.559	28974.49
521.761	29234.58
521.963	29121.94
522.164	29576.59
522.366	29431.19
522.568	29687.18
522.77	29554.07
522.971	30219.66
523.173	30483.84
523.375	30309.77
523.576	30539.14
523.778	30401.93
523.98	30756.22
524.181	30969.21
524.383	31286.65
524.584	31677.81
524.786	31534.45
524.988	31303.03
525.189	32120.17
525.391	31878.51
525.592	32329.06
525.794	32353.64
525.995	32265.58
526.197	32413.03
526.398	32685.41
526.6	32820.58
526.801	33154.4
527.003	33033.57
527.204	33232.22
527.406	33152.35
527.607	33467.73
527.808	33596.76
528.01	33299.8
528.211	33463.64
528.412	34481.48
528.614	34020.69
528.815	33965.39
529.016	34446.66
529.218	34088.27
529.419	34458.95
529.62	34252.11
529.822	34297.16
530.023	34147.66
530.224	34239.82
530.425	34479.43
530.626	34403.66
530.828	34219.34
531.029	34864.45
531.23	34571.59
531.431	34868.55
531.632	34975.04
531.833	35075.39
532.035	35173.69
532.236	34964.8
532.437	35472.7
532.638	35024.19
532.839	35040.57
533.04	35505.46
533.241	35179.84
533.442	35568.95
533.643	35540.28
533.844	35386.68
534.045	35781.94
534.246	34958.66
534.447	35546.42
534.648	35386.68
534.849	35466.55
535.05	35323.19
535.251	35638.58
535.451	35456.31
535.652	35888.43
535.853	35853.62
536.054	35509.56
536.255	35710.26
536.456	35409.21
536.657	35947.82
536.857	35245.37
537.058	35581.24
537.259	35949.87
537.46	35571
537.66	35573.05
537.861	35628.34
538.062	35624.25
538.263	35542.33
538.463	35702.07
538.664	35259.71
538.865	35691.83
539.065	35837.23
539.266	35568.95
539.466	35530.04
539.667	35444.02
539.868	35738.93
540.068	35712.31
540.269	35824.95
540.469	36185.39
540.67	35597.62
540.87	35816.75
541.071	35761.46
541.271	35974.45
541.472	35571
541.672	35865.91
541.873	35267.9
542.073	35300.67
542.274	35847.47
542.474	35769.65
542.675	35790.13
542.875	35814.71
543.075	35568.95
543.276	35294.52
543.476	35878.19
543.676	35734.84
543.877	35624.25
544.077	35826.99
544.277	35636.53
544.478	35743.03
544.678	35605.81
544.878	35706.16
545.078	35450.17
545.279	35405.11
545.479	35177.79
545.679	35829.04
545.879	35523.9
546.079	35497.27
546.28	35390.78
546.48	35396.92
546.68	35562.81
546.88	35806.51
547.08	35943.73
547.28	35577.14
547.48	35712.31
547.68	35910.96
547.88	35587.38
548.081	35659.06
548.281	35953.97
548.481	35902.77
548.681	35841.33
548.881	35413.3
549.081	35652.92
549.28	35120.45
549.48	35992.88
549.68	35515.7
549.88	36457.77
550.08	35697.97
550.28	35839.28
550.48	35413.3
550.68	35665.21
550.88	35458.36
551.08	35738.93
551.279	35747.12
551.479	35247.42
551.679	35546.42
551.879	35386.68
552.079	36029.74
552.278	35511.61
552.478	35337.53
552.678	35646.77
552.878	35679.54
553.077	35251.52
553.277	35282.23
553.477	35962.16
553.676	35861.81
553.876	35552.57
554.076	35458.36
554.275	35169.6
554.475	35407.16
554.674	35622.2
554.874	35358.01
555.074	35335.48
555.273	35523.9
555.473	35579.19
555.672	35151.16
555.872	35630.39
556.071	35296.57
556.271	35468.6
556.47	35333.43
556.67	34886.98
556.869	35253.56
557.068	35587.38
557.268	34909.5
557.467	35085.63
557.667	35237.18
557.866	34948.42
558.065	35353.91
558.265	35140.93
558.464	35233.08
558.663	35237.18
558.863	34254.15
559.062	35476.79
559.261	34417.99
559.461	35366.2
559.66	34712.9
559.859	34895.17
560.058	34561.35
560.258	35026.24
560.457	34540.87
560.656	34852.16
560.855	34424.14
561.054	35048.77
561.253	34514.25
561.453	34684.23
561.652	34538.82
561.851	34403.66
562.05	34336.07
562.249	34221.39
562.448	34516.29
562.647	34669.89
562.846	34368.84
563.045	34469.19
563.244	33717.59
563.443	34262.35
563.642	34035.02
563.841	34129.23
564.04	34010.45
564.239	34442.57
564.438	33744.21
564.637	34053.45
564.836	34264.39
565.035	33297.75
565.234	34032.97
565.432	33531.22
565.631	33248.6
565.83	33979.73
566.029	33512.79
566.228	33244.51
566.427	33615.19
566.625	33146.2
566.824	32965.98
567.023	33471.83
567.222	32882.02
567.42	33264.99
567.619	33119.58
567.818	32961.89
568.016	32998.75
568.215	33191.26
568.414	33037.66
568.612	33344.86
568.811	32755.04
569.01	32750.95
569.208	32662.88
569.407	32322.92
569.605	32488.81
569.804	32847.2
570.002	32234.86
570.201	32314.73
570.4	32626.02
570.598	32105.84
570.797	32038.25
570.995	32142.7
571.193	31683.95
571.392	31997.29
571.59	31737.2
571.789	32163.18
571.987	31839.6
572.186	31716.72
572.384	31542.64
572.582	31886.7
572.781	31927.66
572.979	31446.39
573.177	31544.69
573.376	31380.85
573.574	30967.16
573.772	31219.06
573.971	31135.1
574.169	31131
574.367	30788.99
574.565	31249.78
574.763	31108.47
574.962	30897.53
575.16	30971.26
575.358	31190.39
575.556	30141.83
575.754	30948.73
575.952	30373.25
576.151	30838.14
576.349	30457.22
576.547	30504.32
576.745	30539.14
576.943	30449.03
577.141	30209.42
577.339	30133.64
577.537	30162.31
577.735	29824.4
577.933	29724.05
578.131	29900.17
578.329	29748.62
578.527	29623.7
578.725	29576.59
578.923	29668.75
579.121	29605.27
579.319	29324.69
579.516	29697.42
579.714	29318.55
579.912	29308.31
580.11	29431.19
580.308	29216.15
580.506	29167
580.704	28861.85
580.901	29353.37
581.099	29296.02
581.297	28972.44
581.495	28937.63
581.692	29109.66
581.89	28765.6
582.088	28812.7
582.285	28857.76
582.483	28888.48
582.681	28906.91
582.878	28546.47
583.076	28028.33
583.274	28745.12
583.471	28345.76
583.669	28294.57
583.866	27973.03
584.064	28308.9
584.262	28005.8
584.459	27993.51
584.657	27602.35
584.854	28296.61
585.052	27561.39
585.249	28038.57
585.447	28097.96
585.644	27475.38
585.841	27573.68
586.039	27970.99
586.236	27452.85
586.434	27305.4
586.631	27094.46
586.828	27375.03
587.026	27205.05
587.223	27000.25
587.42	27289.01
587.618	27198.9
587.815	26535.36
588.012	26736.06
588.21	26475.97
588.407	27022.78
588.604	26598.85
588.801	26424.77
588.999	26660.29
589.196	26545.6
589.393	26592.7
589.59	26441.15
589.787	26158.53
589.984	26009.03
590.182	25988.55
590.379	26527.17
590.576	26119.62
590.773	25953.74
590.97	26254.79
591.167	25816.52
591.364	25476.56
591.561	26156.49
591.758	25578.96
591.955	25884.11
592.152	25673.17
592.349	25476.56
592.546	25642.45
592.743	25798.09
592.94	25032.15
593.137	25411.03
593.334	25421.27
593.531	25036.25
593.727	25165.27
593.924	24894.94
594.121	24774.11
594.318	25282
594.515	24704.48
594.712	25265.62
594.908	24774.11
595.105	24573.41
595.302	24620.51
595.499	24471.01
595.696	24384.99
595.892	24325.6
596.089	24360.42
596.286	24067.56
596.482	23885.29
596.679	24210.92
596.876	24157.67
597.072	23827.95
597.269	24024.55
597.466	23840.23
597.662	23655.92
597.859	24051.17
598.055	23899.62
598.252	23496.17
598.448	23612.91
598.645	23365.1
598.841	23512.56
599.038	23520.75
599.234	23469.55
599.431	23213.56
599.627	23242.23
599.824	23166.45
600.02	23080.44
600.217	23119.35
600.413	22595.07
600.609	22844.92
600.806	22664.7
601.002	22685.18
601.198	22400.51
601.395	22511.1
601.591	22373.89
601.787	22455.81
601.984	22193.67
602.18	22650.36
602.376	22308.35
602.572	22246.91
602.769	22384.13
602.965	22064.64
603.161	22052.36
603.357	22298.11
603.553	22023.69
603.75	22076.93
603.946	21689.87
604.142	21898.76
604.338	21675.53
604.534	21591.56
604.73	21394.96
604.926	21511.69
605.122	21474.83
605.318	21401.1
605.514	21450.25
605.71	21286.42
605.906	21427.73
606.102	21370.38
606.298	21419.53
606.494	21188.11
606.69	21413.39
606.886	21143.06
607.082	21009.94
607.278	21014.04
607.474	20770.33
607.67	21044.76
607.866	20465.18
608.062	21122.58
608.257	21007.89
608.453	21181.97
608.649	20817.43
608.845	20557.34
609.041	20876.82
609.236	20721.18
609.432	20416.03
609.628	20465.18
609.824	20428.32
610.019	20420.13
610.215	20723.23
610.411	20448.8
610.606	20366.88
610.802	20346.4
610.998	20614.68
611.193	20278.82
611.389	20379.17
611.584	20194.85
611.78	20033.06
611.976	20065.83
612.171	20336.16
612.367	20106.79
612.562	20350.49
612.758	19645.99
612.953	19707.43
613.149	20323.87
613.344	19680.81
613.539	20127.27
613.735	20053.54
613.93	20047.4
614.126	20162.08
614.321	20008.48
614.517	19865.13
614.712	19865.13
614.907	19605.03
615.103	19834.41
615.298	19842.6
615.493	19783.21
615.688	19457.58
615.884	19852.84
616.079	19396.14
616.274	19764.78
616.47	19226.16
616.665	19541.55
616.86	19291.69
617.055	19492.4
617.25	19375.66
617.445	19476.01
617.641	19369.52
617.836	19390
618.031	18984.5
618.226	19105.33
618.421	18839.09
618.616	19187.25
618.811	19195.44
619.006	19291.69
619.201	18677.3
619.396	18863.67
619.591	18509.37
619.786	18769.46
619.981	18263.61
620.176	18734.65
620.371	18386.49
620.566	18323.01
620.761	18337.34
620.956	18454.08
621.151	17972.8
621.346	18230.85
621.541	17829.45
621.735	18196.03
621.93	17614.41
622.125	17962.56
622.32	17581.64
622.515	17882.69
622.709	17473.1
622.904	17559.11
623.099	17534.54
623.294	17358.41
623.488	17253.97
623.683	17522.25
623.878	17053.27
624.072	17231.44
624.267	17049.17
624.462	16762.45
624.656	16793.17
624.851	16905.81
625.046	16541.27
625.24	16596.57
625.435	16164.45
625.629	16606.81
625.824	16359
626.018	16332.38
626.213	15879.78
626.407	16336.48
626.602	15756.9
626.796	15605.35
626.991	15793.76
627.185	15734.37
627.38	15677.03
627.574	15437.42
627.768	15441.51
627.963	15310.44
628.157	15251.05
628.352	15523.43
628.546	14986.86
628.74	15081.07
628.935	15013.49
629.129	15113.84
629.323	14970.48
629.517	14636.66
629.712	14628.47
629.906	14816.88
630.1	14503.54
630.294	14317.18
630.489	14431.87
630.683	14544.5
630.877	14190.2
631.071	14022.27
631.265	14198.4
631.459	14077.57
631.653	14083.71
631.848	13883.01
632.042	13883.01
632.236	13870.72
632.43	13807.23
632.624	13565.57
632.818	13751.94
633.012	13411.98
633.206	13506.18
633.4	13655.68
633.594	13414.02
633.788	13295.24
633.982	13303.43
634.176	13227.66
634.369	13022.86
634.563	13160.08
634.757	12889.74
634.951	12945.04
635.145	12807.83
635.339	12822.16
635.533	12773.01
635.726	12605.08
635.92	12488.34
636.114	12562.07
636.308	12514.97
636.501	12572.31
636.695	12457.62
636.889	12207.77
637.083	12291.74
637.276	12213.91
637.47	12283.55
637.664	12127.9
637.857	11939.49
638.051	11794.08
638.244	11873.95
638.438	11792.03
638.632	11898.53
638.825	11632.29
639.019	11540.13
639.212	11761.31
639.406	11667.11
639.599	11388.58
639.793	11456.17
639.986	11095.72
640.18	11542.18
640.373	11386.54
640.567	11191.98
640.76	11325.1
640.954	11161.26
641.147	11028.14
641.34	11001.52
641.534	11093.68
641.727	10880.69
641.92	10862.26
642.114	10849.97
642.307	10817.2
642.5	10612.4
642.694	10372.79
642.887	10528.44
643.08	10567.35
643.273	10256.06
643.467	10309.3
643.66	10221.24
643.853	10194.62
644.046	10108.6
644.239	10180.28
644.432	9995.96
644.626	9918.14
644.819	10055.36
645.012	9963.2
645.205	10028.73
645.398	9760.45
645.591	9932.48
645.784	9750.21
645.977	9621.19
646.17	9678.53
646.363	9709.25
646.556	9522.88
646.749	9514.69
646.942	9811.65
647.135	9572.04
647.328	9301.7
647.521	9522.88
647.714	9262.79
647.907	9361.09
648.099	9045.71
648.292	9273.03
648.485	9537.22
648.678	9043.66
648.871	9088.71
649.064	8986.32
649.256	9041.61
649.449	8838.86
649.642	8765.14
649.835	8722.13
650.027	8763.09
650.22	8672.98
650.413	8740.56
650.605	8787.66
650.798	8640.21
650.991	8601.3
651.183	8601.3
651.376	8609.49
651.568	8447.7
651.761	8353.49
651.954	8396.5
652.146	8273.62
652.339	8197.85
652.531	8294.1
652.724	8165.08
652.916	7894.75
653.109	8044.25
653.301	8132.31
653.494	8146.65
653.686	8017.63
653.879	8105.69
654.071	8013.53
654.263	7833.31
654.456	7925.47
654.648	7976.67
654.84	7558.88
655.033	7931.61
655.225	7667.42
655.417	7630.56
655.61	7726.82
655.802	7628.51
655.994	7530.21
656.186	7696.1
656.379	7448.29
656.571	7472.87
656.763	7341.8
656.955	7384.8
657.148	7407.33
657.34	7315.17
657.532	7161.58
657.724	7327.46
657.916	7194.34
658.108	7311.08
658.3	7294.69
658.492	7120.62
658.684	7096.04
658.876	7182.06
659.068	7102.18
659.26	7091.95
659.452	7065.32
659.644	6790.89
659.836	6844.14
660.028	6997.74
660.22	6848.24
660.412	6776.56
660.604	6557.43
660.796	6874.86
660.988	6788.85
661.18	6735.6
661.372	6764.27
661.563	6672.11
661.755	6467.31
661.947	6498.03
662.139	6780.65
662.331	6436.6
662.522	6274.81
662.714	6459.12
662.906	6248.18
663.097	6409.97
663.289	6303.48
663.481	6414.07
663.673	6293.24
663.864	6055.67
664.056	6233.85
664.247	6233.85
664.439	6141.69
664.631	6010.62
664.822	6123.26
665.014	6233.85
665.205	6084.34
665.397	6100.73
665.588	6262.52
665.78	5981.95
665.971	6006.52
666.163	5957.37
666.354	5791.48
666.546	5953.27
666.737	5730.05
666.929	5838.59
667.12	5781.25
667.311	5949.18
667.503	5844.73
667.694	5807.87
667.885	5740.29
668.077	5711.61
668.268	5711.61
668.459	5613.31
668.651	5654.27
668.842	5605.12
669.033	5637.89
669.224	5451.52
669.416	5598.98
669.607	5467.91
669.798	5506.82
669.989	5463.81
670.18	5375.75
670.371	5447.43
670.563	5416.71
670.754	5443.33
670.945	5240.58
671.136	5283.59
671.327	5287.68
671.518	5271.3
671.709	5183.24
671.9	5144.33
672.091	5359.36
672.282	5056.26
672.473	5179.14
672.664	5213.96
672.855	5150.47
673.046	5228.29
673.237	5193.48
673.428	5119.75
673.619	5183.24
673.809	5103.37
674	5089.03
674.191	5035.78
674.382	4910.86
674.573	5138.18
674.764	4992.78
674.954	4988.68
675.145	4974.35
675.336	4931.34
675.527	4931.34
675.717	4900.62
675.908	5003.02
676.099	4972.3
676.289	4955.91
676.48	4910.86
676.671	4857.61
676.861	4908.81
677.052	4912.91
677.243	4753.16
677.433	4701.97
677.624	4790.03
677.814	4802.32
678.005	4878.09
678.195	4681.49
678.386	4925.19
678.576	4673.29
678.767	4636.43
678.957	4728.59
679.148	4765.45
679.338	4591.38
679.529	4607.76
679.719	4613.9
679.909	4671.25
680.1	4503.31
680.29	4679.44
680.481	4466.45
680.671	4470.55
680.861	4501.26
681.052	4618
681.242	4493.07
681.432	4568.85
681.622	4581.14
681.813	4630.29
682.003	4523.79
682.193	4515.6
682.383	4540.18
682.573	4456.21
682.764	4613.9
682.954	4513.55
683.144	4472.59
683.334	4482.83
683.524	4411.15
683.714	4433.68
683.904	4370.19
684.094	4493.07
684.284	4501.26
684.474	4306.71
684.664	4427.54
684.854	4278.04
685.044	4308.76
685.234	4292.37
685.424	4300.56
685.614	4237.08
685.804	4370.19
685.994	4257.56
686.184	4392.72
686.374	4280.08
686.564	4128.53
686.753	4372.24
686.943	4101.91
687.133	4269.84
687.323	4237.08
687.513	4189.97
687.702	4294.42
687.892	4153.11
688.082	4099.86
688.272	4280.08
688.461	4097.81
688.651	4124.44
688.841	3897.11
689.03	3974.94
689.22	3983.13
689.41	3870.49
689.599	3890.97
689.789	3837.72
689.979	3981.08
690.168	3936.03
690.358	4087.57
690.547	3825.43
690.737	3745.56
690.926	3870.49
691.116	3823.39
691.305	3739.42
691.495	3766.04
691.684	3710.75
691.874	3708.7
692.063	3745.56
692.252	3725.08
692.442	3634.97
692.631	3682.08
692.82	3557.15
693.01	3677.98
693.199	3675.93
693.388	3544.86
693.578	3516.19
693.767	3522.34
693.956	3493.66
694.146	3622.69
694.335	3577.63
694.524	3579.68
694.713	3534.62
694.902	3530.53
695.092	3452.7
695.281	3481.38
695.47	3372.83
695.659	3430.18
695.848	3501.86
696.037	3526.43
696.226	3301.15
696.415	3426.08
696.604	3508
696.793	3362.59
696.982	3317.54
697.171	3383.07
697.36	3331.87
697.549	3385.12
697.738	3356.45
697.927	3327.78
698.116	3292.96
698.305	3264.29
698.494	3270.44
698.683	3209
698.872	3249.96
699.061	3256.1
699.25	3331.87
699.438	3362.59
699.627	3227.43
699.816	3252
700.005	3096.36
700.193	3223.33
700.382	3295.01
700.571	3221.28
700.76	3340.07
700.948	3200.8
701.137	3258.15
701.326	3229.48
701.514	3153.7
701.703	3268.39
701.892	3135.27
702.08	3196.71
702.269	3247.91
702.457	3206.95
702.646	3202.85
702.834	2993.96
703.023	3094.31
703.212	3170.08
703.4	3215.14
703.589	3073.83
703.777	3084.07
703.965	3108.65
704.154	3241.76
704.342	3039.01
704.531	3217.19
704.719	3073.83
704.907	3194.66
705.096	3047.21
705.284	3073.83
705.472	3182.37
705.661	3141.41
705.849	3258.15
706.037	3077.93
706.226	3094.31
706.414	3016.49
706.602	3086.12
706.79	3131.17
706.979	3153.7
707.167	3202.85
707.355	3118.89
707.543	3145.51
707.731	3172.13
707.919	2969.38
708.107	3180.32
708.296	3096.36
708.484	3030.82
708.672	3192.61
708.86	3094.31
709.048	3008.3
709.236	3112.74
709.424	3139.37
709.612	3010.34
709.8	2985.77
709.988	2961.19
710.176	3004.2
710.364	3159.85
710.551	3067.69
710.739	2963.24
710.927	3114.79
711.115	3022.63
711.303	3116.84
711.491	3004.2
711.679	3161.89
711.866	3002.15
712.054	3061.54
712.242	2928.42
712.43	3151.65
712.617	2961.19
712.805	3125.03
712.993	2881.32
713.181	2965.29
713.368	3139.37
713.556	2948.9
713.744	2936.62
713.931	3127.08
714.119	3002.15
714.306	3014.44
714.494	2944.81
714.682	2963.24
714.869	2924.33
715.057	3039.01
715.244	3045.16
715.432	3053.35
715.619	3071.78
715.807	3065.64
715.994	3004.2
716.182	2985.77
716.369	2942.76
716.556	3059.49
716.744	3041.06
716.931	2971.43
717.119	3073.83
717.306	3049.25
717.493	3049.25
717.681	3125.03
717.868	3047.21
718.055	3045.16
718.242	3102.5
718.43	2979.62
718.617	3065.64
718.804	3065.64
718.991	2969.38
719.179	3133.22
719.366	2907.94
719.553	2920.23
719.74	3012.39
719.927	3008.3
720.114	3135.27
720.301	3098.41
720.488	3030.82
720.676	3110.69
720.863	3010.34
721.05	3020.58
721.237	3067.69
721.424	2920.23
721.611	2944.81
721.798	3022.63
721.985	2987.82
722.172	2897.71
722.358	3163.94
722.545	2883.37
722.732	3047.21
722.919	3104.55
723.106	2940.71
723.293	3026.73
723.48	2950.95
723.667	2987.82
723.853	3090.21
724.04	3055.4
724.227	3084.07
724.414	3008.3
724.6	2957.1
724.787	2924.33
724.974	3092.26
725.161	2912.04
725.347	3018.54
725.534	3016.49
725.72	3002.15
725.907	3063.59
726.094	2989.86
726.28	3022.63
726.467	2975.53
726.653	2944.81
726.84	3180.32
727.027	3135.27
727.213	3030.82
727.4	2912.04
727.586	2869.03
727.773	2932.52
727.959	2866.99
728.145	3006.25
728.332	2963.24
728.518	2895.66
728.705	3032.87
728.891	2803.5
729.077	2975.53
729.264	3014.44
729.45	2869.03
729.636	3016.49
729.823	3006.25
730.009	2940.71
730.195	3028.78
730.382	3024.68
730.568	2942.76
730.754	2926.38
730.94	2916.14
731.126	2987.82
731.313	2916.14
731.499	3004.2
731.685	3020.58
731.871	2907.94
732.057	3077.93
732.243	3006.25
732.429	2895.66
732.615	2909.99
732.801	2912.04
732.987	2791.21
733.173	3043.11
733.359	2879.27
733.545	2930.47
733.731	2897.71
733.917	3018.54
734.103	3055.4
734.289	2887.47
734.475	2893.61
734.661	3004.2
734.847	2844.46
735.033	2873.13
735.219	2883.37
735.404	2877.23
735.59	2924.33
735.776	2830.12
735.962	2885.42
736.148	2920.23
736.333	2883.37
736.519	2828.07
736.705	2975.53
736.89	2817.83
737.076	2932.52
737.262	3008.3
737.447	2834.22
737.633	2967.34
737.819	2944.81
738.004	2754.35
738.19	2830.12
738.375	2826.03
738.561	2846.51
738.747	2899.75
738.932	2834.22
739.118	3006.25
739.303	2840.36
739.489	2854.7
739.674	2756.4
739.859	2823.98
740.045	2742.06
740.23	2740.01
740.416	2828.07
740.601	2975.53
740.786	2805.55
740.972	2783.02
741.157	2805.55
741.342	2764.59
741.528	2699.05
741.713	2692.91
741.898	2697
742.084	2717.48
742.269	2723.63
742.454	2672.43
742.639	2619.18
742.824	2740.01
743.01	2690.86
743.195	2643.76
743.38	2658.09
743.565	2670.38
743.75	2672.43
743.935	2477.87
744.12	2533.17
744.305	2545.45
744.49	2590.51
744.675	2678.57
744.86	2617.13
745.045	2537.26
745.23	2555.69
745.415	2461.49
745.6	2481.97
745.785	2502.45
745.97	2455.34
746.155	2486.06
746.34	2445.1
746.525	2434.86
746.71	2408.24
746.895	2418.48
747.079	2377.52
747.264	2273.07
747.449	2479.92
747.634	2332.47
747.819	2395.95
748.003	2334.51
748.188	2283.31
748.373	2428.72
748.557	2275.12
748.742	2236.21
748.927	2170.68
749.111	2266.93
749.296	2230.07
749.481	2318.13
749.665	2215.73
749.85	2148.15
750.034	2266.93
750.219	2244.4
750.404	2217.78
750.588	2105.14
750.773	2033.46
750.957	2172.72
751.141	2111.29
751.326	2019.13
751.51	2010.93
751.695	2043.7
751.879	2070.33
752.064	2037.56
752.248	2015.03
752.432	2137.91
752.617	2064.18
752.801	1941.3
752.985	1904.44
753.17	1996.6
753.354	1892.15
753.538	1965.88
753.722	1931.06
753.907	1861.43
754.091	1740.6
754.275	1883.96
754.459	1914.68
754.643	1820.47
754.828	1834.81
755.012	1738.55
755.196	1865.53
755.38	1799.99
755.564	1810.23
755.748	1763.13
755.932	1812.28
756.116	1728.31
756.3	1693.5
756.484	1697.6
756.668	1787.71
756.852	1843
757.036	1668.92
757.22	1677.12
757.404	1613.63
757.588	1625.92
757.772	1679.16
757.956	1666.88
758.14	1668.92
758.323	1664.83
758.507	1519.42
758.691	1552.19
758.875	1625.92
759.059	1640.25
759.242	1513.28
759.426	1613.63
759.61	1640.25
759.794	1615.68
759.977	1509.18
760.161	1537.85
760.345	1578.81
760.528	1445.7
760.712	1464.13
760.895	1550.14
761.079	1431.36
761.263	1437.5
761.446	1429.31
761.63	1445.7
761.813	1531.71
761.997	1470.27
762.18	1298.24
762.364	1425.22
762.547	1316.67
762.731	1374.02
762.914	1333.06
763.098	1388.35
763.281	1406.78
763.464	1382.21
763.648	1445.7
763.831	1396.54
764.015	1300.29
764.198	1371.97
764.381	1412.93
764.564	1369.92
764.748	1302.34
764.931	1255.23
765.114	1210.18
765.297	1255.23
765.481	1238.85
765.664	1240.9
765.847	1224.51
766.03	1228.61
766.213	1263.43
766.397	1281.86
766.58	1204.03
766.763	1173.32
766.946	1220.42
767.129	1136.45
767.312	1187.65
767.495	1183.56
767.678	1138.5
767.861	1132.36
768.044	1244.99
768.227	1283.91
768.41	1193.8
768.593	1130.31
768.776	1228.61
768.959	1161.03
769.142	1185.6
769.324	1210.18
769.507	1197.89
769.69	1124.16
769.873	1132.36
770.056	1236.8
770.239	1027.91
770.421	1140.55
770.604	1021.77
770.787	1204.03
770.97	1115.97
771.152	1175.36
771.335	1097.54
771.518	1075.01
771.7	1158.98
771.883	1142.6
772.066	1066.82
772.248	1054.53
772.431	1089.35
772.613	1101.64
772.796	1068.87
772.978	1130.31
773.161	1072.96
773.343	993.09
773.526	1025.86
773.708	972.61
773.891	919.37
774.073	997.19
774.256	989
774.438	1003.33
774.621	991.05
774.803	976.71
774.985	966.47
775.168	913.22
775.35	1044.29
775.532	980.81
775.715	1017.67
775.897	892.74
776.079	878.41
776.261	905.03
776.444	984.9
776.626	878.41
776.808	794.44
776.99	919.37
777.173	884.55
777.355	859.98
777.537	909.13
777.719	939.85
777.901	919.37
778.083	843.59
778.265	878.41
778.447	911.18
778.629	798.54
778.811	755.53
778.993	800.59
779.175	849.74
779.357	841.54
779.539	702.28
779.721	825.16
779.903	767.82
780.085	798.54
780.267	722.76
780.449	739.15
780.631	733
780.812	726.86
780.994	749.39
781.176	776.01
781.358	712.52
781.54	730.95
781.721	814.92
781.903	698.19
782.085	683.85
782.267	671.56
782.448	687.95
782.63	708.43
782.812	665.42
782.993	630.6
783.175	722.76
783.357	671.56
783.538	733
783.72	624.46
783.901	677.71
784.083	710.47
784.264	630.6
784.446	565.07
784.627	606.03
784.809	683.85
784.99	581.45
785.172	663.37
785.353	624.46
785.535	663.37
785.716	653.13
785.897	515.92
786.079	595.79
786.26	571.21
786.441	552.78
786.623	550.73
786.804	530.25
786.985	608.08
787.167	567.12
787.348	573.26
787.529	542.54
787.71	591.69
787.891	558.92
788.073	542.54
788.254	458.57
788.435	618.32
788.616	591.69
788.797	563.02
788.978	591.69
789.159	444.24
789.34	532.3
789.522	470.86
789.703	483.15
789.884	511.82
790.065	493.39
790.246	536.4
790.427	511.82
790.607	464.72
790.788	522.06
790.969	460.62
791.15	421.71
791.331	489.29
791.512	477.01
791.693	444.24
791.874	436.05
792.054	505.68
792.235	511.82
792.416	376.66
792.597	440.14
792.778	384.85
792.958	417.61
793.139	409.42
793.32	417.61
793.5	376.66
793.681	407.38
793.862	505.68
794.042	462.67
794.223	376.66
794.404	423.76
794.584	390.99
794.765	335.7
794.945	374.61
795.126	434
795.306	411.47
795.487	386.9
795.667	372.56
795.848	401.23
796.028	399.18
796.209	376.66
796.389	307.02
796.57	409.42
796.75	290.64
796.93	409.42
797.111	407.38
797.291	347.98
797.471	337.74
797.652	374.61
797.832	364.37
798.012	358.22
798.192	339.79
798.373	350.03
798.553	290.64
798.733	315.22
798.913	360.27
799.093	311.12
799.274	407.38
799.454	397.14
799.634	370.51
799.814	276.31
799.994	335.7
800.174	356.18
800.354	350.03
800.534	247.63
800.714	270.16
800.894	276.31
801.074	329.55
801.254	341.84
801.434	372.56
801.614	255.83
801.794	317.26
801.974	741.19
802.154	331.6
802.334	286.54
802.514	296.78
802.693	372.56
802.873	337.74
803.053	395.09
803.233	374.61
803.413	204.63
803.592	264.02
803.772	335.7
803.952	395.09
804.131	325.46
804.311	264.02
804.491	280.4
804.67	249.68
804.85	294.74
805.03	278.35
805.209	298.83
805.389	243.54
805.568	163.67
805.748	214.87
805.928	251.73
806.107	321.36
806.287	210.77
806.466	245.59
806.646	208.72
806.825	208.72
807.004	311.12
807.184	227.15
807.363	216.91
807.543	339.79
807.722	304.98
807.901	337.74
808.081	235.35
808.26	272.21
808.439	335.7
808.619	212.82
808.798	266.07
808.977	239.44
809.156	315.22
809.336	286.54
809.515	212.82
809.694	223.06
809.873	266.07
810.052	366.42
810.231	274.26
810.411	272.21
810.59	227.15
810.769	280.4
810.948	280.4
811.127	151.38
811.306	249.68
811.485	198.48
811.664	253.78
811.843	231.25
812.022	251.73
812.201	243.54
812.38	296.78
812.559	190.29
812.737	243.54
812.916	85.84
813.095	257.87
813.274	245.59
813.453	214.87
813.632	253.78
813.811	188.24
813.989	200.53
814.168	202.58
814.347	210.77
814.526	223.06
814.704	196.43
814.883	202.58
815.062	249.68
815.24	237.39
815.419	235.35
815.598	155.47
815.776	159.57
815.955	290.64
816.133	143.19
816.312	180.05
816.49	184.15
816.669	190.29
816.847	161.62
817.026	169.81
817.204	153.43
817.383	180.05
817.561	132.95
817.74	192.34
817.918	159.57
818.097	175.95
818.275	159.57
818.453	255.83
818.632	175.95
818.81	194.39
818.988	151.38
819.167	192.34
819.345	171.86
819.523	151.38
819.701	67.41
819.879	122.71
820.058	163.67
820.236	157.52
820.414	137.04
820.592	139.09
820.77	216.91
820.948	141.14
821.127	204.63
821.305	175.95
821.483	190.29
821.661	202.58
821.839	122.71
822.017	77.65
822.195	98.13
822.373	106.32
822.551	124.76
822.729	151.38
822.907	104.28
823.085	196.43
823.262	178
823.44	126.8
823.618	190.29
823.796	184.15
823.974	231.25
824.152	122.71
824.329	108.37
824.507	159.57
824.685	202.58
824.863	210.77
825.04	227.15
825.218	182.1
825.396	73.56
825.574	208.72
825.751	137.04
825.929	159.57
826.107	118.61
826.284	149.33
826.462	165.71
826.639	167.76
826.817	40.79
826.994	155.47
827.172	63.32
827.349	120.66
827.527	106.32
827.704	149.33
827.882	108.37
828.059	108.37
828.237	120.66
828.414	118.61
828.591	69.46
828.769	196.43
828.946	137.04
829.124	59.22
829.301	216.91
829.478	147.28
829.655	122.71
829.833	200.53
830.01	57.17
830.187	165.71
830.364	112.47
830.542	184.15
830.719	104.28
830.896	149.33
831.073	96.08
831.25	200.53
831.427	96.08
831.604	104.28
831.782	114.52
831.959	104.28
832.136	165.71
832.313	110.42
832.49	122.71
832.667	114.52
832.844	126.8
833.021	155.47
833.198	124.76
833.374	91.99
833.551	104.28
833.728	46.93
833.905	104.28
834.082	116.56
834.259	57.17
834.436	89.94
834.612	108.37
834.789	169.81
834.966	102.23
835.143	106.32
835.319	112.47
835.496	132.95
835.673	77.65
835.85	167.76
836.026	198.48
836.203	147.28
836.38	130.9
836.556	102.23
836.733	147.28
836.909	42.84
837.086	87.89
837.262	59.22
837.439	155.47
837.616	96.08
837.792	75.6
837.968	120.66
838.145	65.36
838.321	36.69
838.498	112.47
838.674	135
838.851	122.71
839.027	79.7
839.203	151.38
839.38	132.95
839.556	124.76
839.732	116.56
839.909	55.12
840.085	126.8
840.261	102.23
840.437	114.52
840.614	57.17
840.79	110.42
840.966	104.28
841.142	112.47
841.318	120.66
841.494	139.09
841.671	22.36
841.847	51.03
842.023	40.79
842.199	77.65
842.375	137.04
842.551	69.46
842.727	102.23
842.903	132.95
843.079	81.75
843.255	104.28
843.431	139.09
843.607	139.09
843.783	34.64
843.959	157.52
844.134	51.03
844.31	65.36
844.486	53.08
844.662	118.61
844.838	48.98
845.013	102.23
845.189	143.19
845.365	55.12
845.541	135
845.716	128.85
845.892	89.94
846.068	110.42
846.244	-22.7
846.419	44.88
846.595	53.08
846.77	85.84
846.946	139.09
847.122	53.08
847.297	114.52
847.473	102.23
847.648	34.64
847.824	55.12
847.999	114.52
848.175	12.12
848.35	108.37
848.526	48.98
848.701	42.84
848.876	77.65
849.052	69.46
849.227	110.42
849.403	85.84
849.578	38.74
849.753	116.56
849.929	34.64
850.104	48.98
850.279	81.75
850.454	73.56
850.63	77.65
850.805	114.52
850.98	122.71
851.155	5.97
851.33	104.28
851.505	8.02
851.681	118.61
851.856	100.18
852.031	59.22
852.206	-16.55
852.381	81.75
852.556	51.03
852.731	81.75
852.906	87.89
853.081	96.08
853.256	69.46
853.431	83.8
853.606	73.56
853.781	16.21
853.956	51.03
854.131	71.51
854.305	36.69
854.48	69.46
854.655	16.21
854.83	85.84
855.005	87.89
855.18	55.12
855.354	120.66
855.529	32.6
855.704	14.17
855.879	106.32
856.053	8.02
856.228	81.75
856.403	28.5
856.577	59.22
856.752	98.13
856.926	98.13
857.101	24.4
857.276	96.08
857.45	61.27
857.625	79.7
857.799	91.99
857.974	79.7
858.148	40.79
858.323	108.37
858.497	38.74
858.672	83.8
858.846	48.98
859.02	63.32
859.195	67.41
859.369	100.18
859.543	48.98
859.718	48.98
859.892	83.8
860.066	44.88
860.241	83.8
860.415	-53.42
860.589	63.32
860.763	-20.65
860.938	-4.27
861.112	87.89
861.286	53.08
861.46	79.7
861.634	130.9
861.808	67.41
861.982	20.31
862.157	116.56
862.331	102.23
862.505	126.8
862.679	-14.51
862.853	51.03
863.027	20.31
863.201	91.99
863.375	5.97
863.549	122.71
863.722	18.26
863.896	116.56
864.07	24.4
864.244	53.08
864.418	157.52
864.592	18.26
864.766	32.6
864.939	69.46
865.113	32.6
865.287	40.79
865.461	-10.41
865.634	79.7
865.808	-45.23
865.982	22.36
866.156	1.88
866.329	-2.22
866.503	77.65
866.676	40.79
866.85	32.6
867.024	73.56
867.197	106.32
867.371	16.21
867.544	28.5
867.718	26.45
867.891	85.84
868.065	24.4
868.238	26.45
868.412	126.8
868.585	28.5
868.759	26.45
868.932	106.32
869.105	10.07
869.279	130.9
869.452	36.69
869.625	85.84
869.799	69.46
869.972	-0.17
870.145	40.79
870.319	69.46
870.492	165.71
870.665	59.22
870.838	63.32
871.011	42.84
871.185	87.89
871.358	-34.99
871.531	57.17
871.704	87.89
871.877	1.88
872.05	46.93
872.223	36.69
872.396	63.32
872.569	-4.27
872.742	40.79
872.915	83.8
873.088	38.74
873.261	32.6
873.434	65.36
873.607	48.98
873.78	8.02
873.953	28.5
874.126	-2.22
874.299	77.65
874.471	-47.27
874.644	5.97
874.817	79.7
874.99	53.08
875.163	46.93
875.335	98.13
875.508	1.88
875.681	100.18
875.853	79.7
876.026	48.98
876.199	-2.22
876.371	46.93
876.544	116.56
876.717	96.08
876.889	71.51
877.062	44.88
877.234	42.84
877.407	98.13
877.579	73.56
877.752	3.93
877.924	8.02
878.097	63.32
878.269	22.36
878.442	36.69
878.614	12.12
878.786	20.31
878.959	30.55
879.131	3.93
879.303	28.5
879.476	120.66
879.648	-0.17
879.82	81.75
879.993	59.22
880.165	-4.27
880.337	69.46
880.509	46.93
880.681	18.26
880.854	36.69
881.026	65.36
881.198	53.08
881.37	26.45
881.542	65.36
881.714	69.46
881.886	5.97
882.058	108.37
882.23	96.08
882.402	75.6
882.574	32.6
882.746	79.7
882.918	59.22
883.09	44.88
883.262	8.02
883.434	-28.84
883.606	-22.7
883.778	30.55
883.95	1.88
884.122	-34.99
884.293	46.93
884.465	75.6
884.637	108.37
884.809	53.08
884.98	71.51
885.152	32.6
885.324	48.98
885.496	44.88
885.667	-75.95
885.839	18.26
886.011	94.04
886.182	5.97
886.354	-0.17
886.525	65.36
886.697	65.36
886.869	75.6
887.04	3.93
887.212	-39.08
887.383	36.69
887.555	94.04
887.726	16.21
887.897	36.69
888.069	51.03
888.24	20.31
888.412	8.02
888.583	-16.55
888.754	-4.27
888.926	36.69
889.097	102.23
889.268	-30.89
889.44	81.75
889.611	-32.94
889.782	61.27
889.953	85.84
890.125	102.23
890.296	-8.36
890.467	44.88
890.638	5.97
890.809	42.84
890.98	12.12
891.151	8.02
891.323	73.56
891.494	106.32
891.665	28.5
891.836	34.64
892.007	16.21
892.178	122.71
892.349	51.03
892.52	-37.03
892.691	40.79
892.862	-6.31
893.032	1.88
893.203	51.03
893.374	71.51
893.545	26.45
893.716	-14.51
893.887	10.07
894.057	44.88
894.228	-12.46
894.399	18.26
894.57	42.84
894.74	67.41
894.911	69.46
895.082	-0.17
895.253	-47.27
895.423	3.93
895.594	102.23
895.764	-24.75
895.935	-12.46
896.106	96.08
896.276	91.99
896.447	-26.79
896.617	26.45
896.788	-53.42
896.958	51.03
897.129	36.69
897.299	16.21
897.47	32.6
897.64	32.6
897.81	32.6
897.981	-20.65
898.151	81.75
898.322	24.4
898.492	28.5
898.662	34.64
898.832	3.93
899.003	36.69
899.173	-8.36
899.343	28.5
899.513	-34.99
