Data from USB4F104151__74__12-27-48-931.txt Node

Date: Fri Mar 14 12:27:48 EDT 2025
User: louis
Spectrometer: USB4F10415
Trigger mode: 4
Integration Time (sec): 2.000000E-2
Scans to average: 1
Electric dark correction enabled: true
Nonlinearity correction enabled: false
Boxcar width: 0
XAxis mode: Wavelengths
Number of Pixels in Spectrum: 3648
>>>>>Begin Spectral Data<<<<<
178.204	-49.66
178.424	-49.66
178.644	-49.66
178.864	-90.62
179.084	-100.86
179.304	-39.42
179.524	-0.51
179.744	-45.57
179.964	60.93
180.184	-14.85
180.404	65.02
180.624	-37.38
180.844	-12.8
181.064	-55.81
181.283	1.54
181.503	30.21
181.723	48.64
181.943	28.16
182.163	42.5
182.383	62.98
182.602	67.07
182.822	28.16
183.042	95.74
183.262	56.83
183.482	46.59
183.701	24.06
183.921	-47.62
184.141	32.26
184.361	-4.61
184.58	81.41
184.8	28.16
185.02	-2.56
185.239	85.5
185.459	56.83
185.679	46.59
185.898	-2.56
186.118	58.88
186.338	11.78
186.557	46.59
186.777	46.59
186.997	-29.18
187.216	30.21
187.436	60.93
187.655	-12.8
187.875	69.12
188.095	-12.8
188.314	81.41
188.534	71.17
188.753	-18.94
188.973	24.06
189.192	93.69
189.412	-2.56
189.631	15.87
189.851	38.4
190.07	48.64
190.29	-23.04
190.509	-53.76
190.729	40.45
190.948	11.78
191.168	95.74
191.387	-6.66
191.607	7.68
191.826	26.11
192.045	-29.18
192.265	-2.56
192.484	30.21
192.704	73.21
192.923	-49.66
193.142	77.31
193.362	81.41
193.581	36.35
193.8	69.12
194.02	42.5
194.239	3.58
194.458	40.45
194.678	-16.9
194.897	40.45
195.116	50.69
195.335	77.31
195.555	28.16
195.774	17.92
195.993	9.73
196.212	36.35
196.432	-12.8
196.651	138.75
196.87	-10.75
197.089	71.17
197.308	50.69
197.528	7.68
197.747	69.12
197.966	3.58
198.185	7.68
198.404	48.64
198.623	71.17
198.842	22.02
199.062	36.35
199.281	67.07
199.5	126.46
199.719	32.26
199.938	-16.9
200.157	36.35
200.376	103.93
200.595	-18.94
200.814	9.73
201.033	124.41
201.252	24.06
201.471	54.78
201.69	93.69
201.909	-25.09
202.128	32.26
202.347	34.3
202.566	19.97
202.785	105.98
203.004	17.92
203.223	15.87
203.442	105.98
203.661	-6.66
203.879	46.59
204.098	54.78
204.317	71.17
204.536	58.88
204.755	3.58
204.974	73.21
205.193	62.98
205.411	65.02
205.63	54.78
205.849	73.21
206.068	-10.75
206.287	36.35
206.505	24.06
206.724	34.3
206.943	-66.05
207.162	-0.51
207.381	69.12
207.599	81.41
207.818	48.64
208.037	48.64
208.255	42.5
208.474	19.97
208.693	112.13
208.911	5.63
209.13	52.74
209.349	79.36
209.567	3.58
209.786	73.21
210.005	30.21
210.223	60.93
210.442	-53.76
210.661	48.64
210.879	40.45
211.098	38.4
211.316	46.59
211.535	-18.94
211.753	19.97
211.972	24.06
212.191	83.45
212.409	-23.04
212.628	81.41
212.846	56.83
213.065	97.79
213.283	87.55
213.502	26.11
213.72	52.74
213.938	24.06
214.157	105.98
214.375	-16.9
214.594	48.64
214.812	38.4
215.031	-33.28
215.249	85.5
215.467	34.3
215.686	-0.51
215.904	48.64
216.122	-16.9
216.341	34.3
216.559	46.59
216.778	85.5
216.996	54.78
217.214	44.54
217.432	3.58
217.651	67.07
217.869	91.65
218.087	50.69
218.306	91.65
218.524	42.5
218.742	22.02
218.96	54.78
219.179	-0.51
219.397	42.5
219.615	32.26
219.833	9.73
220.051	97.79
220.27	26.11
220.488	19.97
220.706	-0.51
220.924	-14.85
221.142	22.02
221.36	60.93
221.578	5.63
221.796	30.21
222.015	58.88
222.233	26.11
222.451	97.79
222.669	17.92
222.887	-25.09
223.105	13.82
223.323	-23.04
223.541	15.87
223.759	69.12
223.977	3.58
224.195	40.45
224.413	-25.09
224.631	7.68
224.849	7.68
225.067	97.79
225.285	36.35
225.503	42.5
225.721	26.11
225.939	-0.51
226.157	13.82
226.375	103.93
226.592	9.73
226.81	48.64
227.028	36.35
227.246	65.02
227.464	-20.99
227.682	77.31
227.9	34.3
228.117	-31.23
228.335	-16.9
228.553	87.55
228.771	38.4
228.989	34.3
229.206	77.31
229.424	54.78
229.642	26.11
229.86	73.21
230.077	-6.66
230.295	32.26
230.513	132.61
230.731	13.82
230.948	114.17
231.166	108.03
231.384	-10.75
231.601	-16.9
231.819	81.41
232.037	-10.75
232.254	9.73
232.472	56.83
232.689	77.31
232.907	42.5
233.125	32.26
233.342	-18.94
233.56	5.63
233.777	58.88
233.995	65.02
234.213	99.84
234.43	81.41
234.648	9.73
234.865	15.87
235.083	93.69
235.3	95.74
235.518	28.16
235.735	19.97
235.953	75.26
236.17	58.88
236.388	40.45
236.605	-2.56
236.822	-10.75
237.04	17.92
237.257	19.97
237.475	32.26
237.692	17.92
237.909	15.87
238.127	22.02
238.344	103.93
238.562	87.55
238.779	-70.14
238.996	-8.7
239.214	30.21
239.431	32.26
239.648	54.78
239.865	50.69
240.083	91.65
240.3	85.5
240.517	9.73
240.735	-14.85
240.952	28.16
241.169	67.07
241.386	34.3
241.603	97.79
241.821	50.69
242.038	56.83
242.255	67.07
242.472	-61.95
242.689	-53.76
242.907	3.58
243.124	9.73
243.341	7.68
243.558	-14.85
243.775	52.74
243.992	17.92
244.209	101.89
244.426	75.26
244.643	13.82
244.86	58.88
245.078	71.17
245.295	126.46
245.512	24.06
245.729	67.07
245.946	73.21
246.163	32.26
246.38	58.88
246.597	7.68
246.814	46.59
247.031	48.64
247.248	75.26
247.464	44.54
247.681	67.07
247.898	67.07
248.115	34.3
248.332	-23.04
248.549	5.63
248.766	79.36
248.983	42.5
249.2	77.31
249.417	77.31
249.633	3.58
249.85	75.26
250.067	36.35
250.284	-14.85
250.501	67.07
250.717	44.54
250.934	-6.66
251.151	-8.7
251.368	-0.51
251.585	22.02
251.801	38.4
252.018	52.74
252.235	62.98
252.451	58.88
252.668	-27.14
252.885	-0.51
253.102	46.59
253.318	36.35
253.535	54.78
253.752	65.02
253.968	54.78
254.185	28.16
254.401	11.78
254.618	3.58
254.835	-23.04
255.051	65.02
255.268	42.5
255.484	-25.09
255.701	89.6
255.917	69.12
256.134	24.06
256.351	-10.75
256.567	38.4
256.784	38.4
257	3.58
257.217	83.45
257.433	44.54
257.65	17.92
257.866	130.56
258.082	-31.23
258.299	17.92
258.515	17.92
258.732	67.07
258.948	-68.09
259.165	34.3
259.381	11.78
259.597	3.58
259.814	60.93
260.03	28.16
260.246	36.35
260.463	93.69
260.679	50.69
260.895	46.59
261.112	28.16
261.328	38.4
261.544	22.02
261.761	36.35
261.977	17.92
262.193	38.4
262.409	67.07
262.626	15.87
262.842	48.64
263.058	11.78
263.274	108.03
263.49	91.65
263.707	34.3
263.923	40.45
264.139	-27.14
264.355	-47.62
264.571	75.26
264.787	13.82
265.004	73.21
265.22	34.3
265.436	44.54
265.652	69.12
265.868	71.17
266.084	42.5
266.3	40.45
266.516	17.92
266.732	3.58
266.948	-41.47
267.164	-18.94
267.38	118.27
267.596	48.64
267.812	130.56
268.028	1.54
268.244	28.16
268.46	60.93
268.676	54.78
268.892	44.54
269.108	-18.94
269.324	-8.7
269.54	40.45
269.756	-2.56
269.972	56.83
270.188	34.3
270.403	73.21
270.619	81.41
270.835	-18.94
271.051	26.11
271.267	77.31
271.483	-23.04
271.698	22.02
271.914	40.45
272.13	42.5
272.346	62.98
272.562	-51.71
272.777	7.68
272.993	-23.04
273.209	60.93
273.425	56.83
273.64	9.73
273.856	128.51
274.072	50.69
274.287	3.58
274.503	-6.66
274.719	62.98
274.934	103.93
275.15	28.16
275.366	69.12
275.581	1.54
275.797	34.3
276.012	108.03
276.228	40.45
276.444	67.07
276.659	26.11
276.875	124.41
277.09	36.35
277.306	22.02
277.521	52.74
277.737	67.07
277.952	58.88
278.168	67.07
278.383	-66.05
278.599	5.63
278.814	42.5
279.03	22.02
279.245	28.16
279.461	-35.33
279.676	17.92
279.892	3.58
280.107	91.65
280.322	-37.38
280.538	15.87
280.753	-20.99
280.969	42.5
281.184	56.83
281.399	30.21
281.615	40.45
281.83	42.5
282.045	38.4
282.26	71.17
282.476	1.54
282.691	110.08
282.906	52.74
283.122	60.93
283.337	56.83
283.552	85.5
283.767	-0.51
283.983	85.5
284.198	30.21
284.413	13.82
284.628	71.17
284.843	56.83
285.058	36.35
285.274	48.64
285.489	81.41
285.704	118.27
285.919	62.98
286.134	32.26
286.349	85.5
286.564	85.5
286.779	85.5
286.995	26.11
287.21	-0.51
287.425	42.5
287.64	13.82
287.855	-25.09
288.07	5.63
288.285	50.69
288.5	73.21
288.715	62.98
288.93	13.82
289.145	26.11
289.36	101.89
289.575	1.54
289.79	15.87
290.004	-29.18
290.219	75.26
290.434	67.07
290.649	36.35
290.864	65.02
291.079	3.58
291.294	58.88
291.509	38.4
291.724	40.45
291.938	-49.66
292.153	73.21
292.368	42.5
292.583	-6.66
292.798	24.06
293.012	-53.76
293.227	-10.75
293.442	-6.66
293.657	38.4
293.871	48.64
294.086	77.31
294.301	26.11
294.516	95.74
294.73	108.03
294.945	-2.56
295.16	138.75
295.374	77.31
295.589	81.41
295.804	-6.66
296.018	54.78
296.233	46.59
296.447	-4.61
296.662	50.69
296.877	56.83
297.091	81.41
297.306	140.8
297.52	56.83
297.735	-4.61
297.949	3.58
298.164	-68.09
298.378	75.26
298.593	89.6
298.807	-6.66
299.022	120.32
299.236	65.02
299.451	3.58
299.665	46.59
299.88	1.54
300.094	19.97
300.309	5.63
300.523	30.21
300.737	-2.56
300.952	77.31
301.166	79.36
301.381	22.02
301.595	15.87
301.809	40.45
302.024	46.59
302.238	-29.18
302.452	67.07
302.667	-35.33
302.881	28.16
303.095	58.88
303.309	17.92
303.524	-25.09
303.738	58.88
303.952	62.98
304.166	65.02
304.381	11.78
304.595	101.89
304.809	30.21
305.023	15.87
305.237	67.07
305.452	26.11
305.666	101.89
305.88	-14.85
306.094	11.78
306.308	54.78
306.522	116.22
306.736	-10.75
306.95	105.98
307.164	81.41
307.379	7.68
307.593	52.74
307.807	-0.51
308.021	95.74
308.235	91.65
308.449	-0.51
308.663	5.63
308.877	50.69
309.091	-27.14
309.305	40.45
309.519	-37.38
309.733	71.17
309.947	42.5
310.161	17.92
310.374	13.82
310.588	22.02
310.802	17.92
311.016	50.69
311.23	62.98
311.444	56.83
311.658	69.12
311.872	77.31
312.085	24.06
312.299	30.21
312.513	-25.09
312.727	11.78
312.941	40.45
313.154	44.54
313.368	67.07
313.582	89.6
313.796	28.16
314.009	69.12
314.223	69.12
314.437	83.45
314.651	56.83
314.864	30.21
315.078	5.63
315.292	52.74
315.505	46.59
315.719	105.98
315.933	17.92
316.146	5.63
316.36	19.97
316.573	97.79
316.787	83.45
317.001	-35.33
317.214	24.06
317.428	26.11
317.641	22.02
317.855	22.02
318.068	48.64
318.282	97.79
318.495	24.06
318.709	42.5
318.922	54.78
319.136	73.21
319.349	58.88
319.563	85.5
319.776	67.07
319.99	13.82
320.203	24.06
320.417	28.16
320.63	58.88
320.843	116.22
321.057	93.69
321.27	42.5
321.483	-10.75
321.697	42.5
321.91	93.69
322.124	132.61
322.337	71.17
322.55	-6.66
322.763	-8.7
322.977	73.21
323.19	44.54
323.403	85.5
323.617	26.11
323.83	97.79
324.043	17.92
324.256	9.73
324.469	50.69
324.683	38.4
324.896	58.88
325.109	15.87
325.322	-8.7
325.535	91.65
325.748	50.69
325.962	19.97
326.175	32.26
326.388	60.93
326.601	-6.66
326.814	5.63
327.027	46.59
327.24	56.83
327.453	-70.14
327.666	60.93
327.879	46.59
328.092	-0.51
328.305	15.87
328.518	40.45
328.731	40.45
328.944	67.07
329.157	54.78
329.37	73.21
329.583	67.07
329.796	32.26
330.009	9.73
330.222	22.02
330.435	48.64
330.648	38.4
330.861	-16.9
331.073	54.78
331.286	-0.51
331.499	105.98
331.712	-4.61
331.925	52.74
332.138	34.3
332.35	40.45
332.563	77.31
332.776	89.6
332.989	-8.7
333.202	1.54
333.414	58.88
333.627	85.5
333.84	81.41
334.053	36.35
334.265	42.5
334.478	48.64
334.691	40.45
334.903	81.41
335.116	75.26
335.329	56.83
335.541	-8.7
335.754	101.89
335.966	56.83
336.179	5.63
336.392	65.02
336.604	36.35
336.817	112.13
337.029	169.47
337.242	58.88
337.454	73.21
337.667	62.98
337.88	56.83
338.092	103.93
338.305	73.21
338.517	3.58
338.729	79.36
338.942	3.58
339.154	110.08
339.367	30.21
339.579	42.5
339.792	15.87
340.004	112.13
340.217	-2.56
340.429	24.06
340.641	58.88
340.854	-55.81
341.066	9.73
341.278	79.36
341.491	75.26
341.703	52.74
341.915	73.21
342.128	7.68
342.34	48.64
342.552	73.21
342.764	30.21
342.977	15.87
343.189	54.78
343.401	7.68
343.613	42.5
343.826	124.41
344.038	58.88
344.25	34.3
344.462	30.21
344.674	50.69
344.886	-8.7
345.099	136.7
345.311	54.78
345.523	103.93
345.735	-0.51
345.947	32.26
346.159	77.31
346.371	99.84
346.583	13.82
346.795	155.13
347.007	13.82
347.219	83.45
347.431	24.06
347.643	36.35
347.855	54.78
348.067	108.03
348.279	11.78
348.491	40.45
348.703	17.92
348.915	56.83
349.127	83.45
349.339	5.63
349.551	34.3
349.763	34.3
349.975	58.88
350.187	7.68
350.399	67.07
350.61	24.06
350.822	-12.8
351.034	138.75
351.246	5.63
351.458	81.41
351.669	75.26
351.881	83.45
352.093	40.45
352.305	40.45
352.517	110.08
352.728	34.3
352.94	103.93
353.152	58.88
353.363	69.12
353.575	97.79
353.787	54.78
353.999	97.79
354.21	38.4
354.422	36.35
354.633	116.22
354.845	54.78
355.057	138.75
355.268	65.02
355.48	101.89
355.692	48.64
355.903	52.74
356.115	17.92
356.326	48.64
356.538	116.22
356.749	71.17
356.961	48.64
357.172	69.12
357.384	81.41
357.595	110.08
357.807	3.58
358.018	-0.51
358.23	19.97
358.441	17.92
358.653	87.55
358.864	75.26
359.075	67.07
359.287	146.94
359.498	73.21
359.709	50.69
359.921	85.5
360.132	42.5
360.344	91.65
360.555	15.87
360.766	56.83
360.977	-4.61
361.189	40.45
361.4	38.4
361.611	120.32
361.823	42.5
362.034	75.26
362.245	-18.94
362.456	22.02
362.667	22.02
362.879	15.87
363.09	60.93
363.301	52.74
363.512	32.26
363.723	1.54
363.935	22.02
364.146	36.35
364.357	50.69
364.568	62.98
364.779	44.54
364.99	44.54
365.201	73.21
365.412	83.45
365.623	-10.75
365.834	58.88
366.045	44.54
366.256	65.02
366.467	13.82
366.678	42.5
366.889	15.87
367.1	124.41
367.311	-37.38
367.522	85.5
367.733	67.07
367.944	-10.75
368.155	89.6
368.366	89.6
368.577	48.64
368.788	7.68
368.999	-0.51
369.209	89.6
369.42	71.17
369.631	60.93
369.842	65.02
370.053	58.88
370.264	99.84
370.474	130.56
370.685	38.4
370.896	38.4
371.107	17.92
371.317	132.61
371.528	91.65
371.739	103.93
371.95	52.74
372.16	62.98
372.371	83.45
372.582	101.89
372.792	48.64
373.003	91.65
373.214	69.12
373.424	22.02
373.635	-23.04
373.846	75.26
374.056	120.32
374.267	44.54
374.477	30.21
374.688	89.6
374.898	67.07
375.109	71.17
375.319	93.69
375.53	114.17
375.74	-0.51
375.951	32.26
376.161	69.12
376.372	65.02
376.582	3.58
376.793	153.09
377.003	73.21
377.214	65.02
377.424	46.59
377.635	-2.56
377.845	34.3
378.055	108.03
378.266	36.35
378.476	-0.51
378.686	71.17
378.897	108.03
379.107	71.17
379.317	19.97
379.528	48.64
379.738	-12.8
379.948	28.16
380.158	19.97
380.369	65.02
380.579	-43.52
380.789	97.79
380.999	77.31
381.21	77.31
381.42	69.12
381.63	62.98
381.84	71.17
382.05	62.98
382.261	101.89
382.471	124.41
382.681	89.6
382.891	85.5
383.101	85.5
383.311	54.78
383.521	44.54
383.731	62.98
383.941	71.17
384.151	71.17
384.361	151.04
384.571	116.22
384.781	46.59
384.991	32.26
385.201	77.31
385.411	71.17
385.621	48.64
385.831	73.21
386.041	108.03
386.251	26.11
386.461	116.22
386.671	-0.51
386.881	71.17
387.091	48.64
387.301	91.65
387.511	11.78
387.72	112.13
387.93	54.78
388.14	36.35
388.35	67.07
388.56	81.41
388.769	38.4
388.979	77.31
389.189	32.26
389.399	108.03
389.609	93.69
389.818	130.56
390.028	81.41
390.238	87.55
390.447	110.08
390.657	91.65
390.867	42.5
391.076	62.98
391.286	30.21
391.496	56.83
391.705	91.65
391.915	89.6
392.125	60.93
392.334	7.68
392.544	32.26
392.753	67.07
392.963	38.4
393.172	81.41
393.382	97.79
393.591	134.65
393.801	112.13
394.01	91.65
394.22	114.17
394.429	85.5
394.639	52.74
394.848	83.45
395.058	120.32
395.267	5.63
395.477	83.45
395.686	89.6
395.895	60.93
396.105	112.13
396.314	122.37
396.524	52.74
396.733	85.5
396.942	17.92
397.152	81.41
397.361	124.41
397.57	148.99
397.78	71.17
397.989	28.16
398.198	112.13
398.407	124.41
398.617	62.98
398.826	101.89
399.035	146.94
399.244	101.89
399.453	108.03
399.663	54.78
399.872	108.03
400.081	26.11
400.29	130.56
400.499	9.73
400.708	132.61
400.917	179.71
401.127	114.17
401.336	124.41
401.545	187.9
401.754	126.46
401.963	165.37
402.172	46.59
402.381	140.8
402.59	69.12
402.799	140.8
403.008	69.12
403.217	118.27
403.426	128.51
403.635	89.6
403.844	126.46
404.053	99.84
404.262	167.42
404.471	79.36
404.68	155.13
404.888	93.69
405.097	167.42
405.306	163.33
405.515	130.56
405.724	181.76
405.933	208.38
406.142	148.99
406.35	181.76
406.559	140.8
406.768	95.74
406.977	97.79
407.185	148.99
407.394	208.38
407.603	192
407.812	204.28
408.02	132.61
408.229	192
408.438	132.61
408.646	232.96
408.855	151.04
409.064	230.91
409.272	185.85
409.481	245.24
409.69	177.66
409.898	222.72
410.107	370.17
410.315	275.96
410.524	298.49
410.733	239.1
410.941	327.16
411.15	247.29
411.358	376.31
411.567	302.59
411.775	331.26
411.984	333.31
412.192	318.97
412.401	361.98
412.609	433.66
412.818	452.09
413.026	476.66
413.234	374.27
413.443	441.85
413.651	439.8
413.86	392.7
414.068	507.38
414.276	566.78
414.485	450.04
414.693	556.54
414.901	579.06
415.11	538.1
415.318	609.78
415.526	617.97
415.734	669.17
415.943	605.69
416.151	691.7
416.359	636.41
416.567	669.17
416.776	718.33
416.984	716.28
417.192	757.24
417.4	808.44
417.608	814.58
417.817	759.28
418.025	835.06
418.233	976.37
418.441	828.92
418.649	980.47
418.857	1062.38
419.065	992.75
419.273	990.7
419.481	1015.28
419.689	1097.2
419.897	1236.46
420.105	1144.3
420.313	1267.18
420.521	1215.98
420.729	1265.13
420.937	1373.68
421.145	1492.46
421.353	1471.98
421.561	1557.99
421.769	1514.98
421.977	1656.29
422.185	1576.42
422.393	1719.78
422.601	1824.23
422.809	1742.31
423.017	1824.23
423.224	1930.72
423.432	2031.07
423.64	1945.06
423.848	2110.94
424.056	2135.52
424.263	2227.68
424.471	2287.07
424.679	2250.21
424.887	2362.84
425.094	2444.76
425.302	2528.73
425.51	2651.61
425.718	2741.72
425.925	2698.71
426.133	2819.54
426.341	2870.74
426.548	3106.26
426.756	3042.77
426.964	3028.43
427.171	3237.33
427.379	3284.43
427.586	3380.68
427.794	3546.57
428.001	3685.83
428.209	3833.29
428.417	3907.01
428.624	4033.99
428.832	4126.15
429.039	4023.75
429.247	4072.9
429.454	4449.72
429.662	4785.59
429.869	4480.44
430.076	4799.93
430.284	4603.32
430.491	4816.31
430.699	5103.03
430.906	5262.77
431.114	5170.61
431.321	5434.8
431.528	5483.95
431.736	5864.87
431.943	6086.05
432.15	5969.32
432.358	5918.12
432.565	6321.57
432.772	6137.25
432.979	6624.67
433.187	6774.17
433.394	6755.74
433.601	7142.8
433.808	7181.71
434.016	7212.43
434.223	7474.57
434.43	7939.46
434.637	7931.27
434.844	8344.96
435.052	8480.13
435.259	8619.39
435.466	8580.48
435.673	8473.98
435.88	8691.07
436.087	9540.97
436.294	9741.68
436.501	9311.6
436.708	9262.45
436.915	9569.65
437.122	10089.83
437.329	10118.5
437.537	10489.18
437.743	10538.34
437.95	10503.52
438.157	11265.36
438.364	11466.07
438.571	11769.16
438.778	11556.18
438.985	12584.26
439.192	12119.37
439.399	12393.79
439.606	12131.65
439.813	12760.38
440.02	13419.83
440.227	13299
440.433	13399.35
440.64	13821.23
440.847	13491.51
441.054	13937.96
441.261	15064.35
441.467	14843.17
441.674	15041.82
441.881	15703.31
442.088	15799.57
442.294	15394.07
442.501	15899.92
442.708	16512.26
442.914	16768.26
443.121	17583.35
443.328	17048.83
443.534	18203.88
443.741	17865.97
443.948	17405.17
444.154	18937.06
444.361	18853.09
444.568	18894.05
444.774	18922.72
444.981	18988.25
445.187	19678.42
445.394	20718.79
445.6	20317.39
445.807	22279.34
446.013	21306.55
446.22	21716.15
446.426	22576.3
446.633	22668.45
446.839	23606.42
447.046	22553.77
447.252	23899.28
447.459	23860.37
447.665	23796.88
447.871	25101.44
448.078	26063.99
448.284	24812.68
448.491	25302.14
448.697	26514.54
448.903	26721.38
449.11	26905.7
449.316	26825.83
449.522	26829.93
449.728	27839.58
449.935	27960.41
450.141	27876.44
450.347	28443.73
450.553	27823.19
450.76	28128.34
450.966	28910.66
451.172	28759.11
451.378	29334.59
451.584	28886.09
451.791	29946.94
451.997	29482.05
452.203	30221.36
452.409	29969.46
452.615	29893.69
452.821	28738.63
453.027	28593.23
453.233	30100.53
453.44	28968.01
453.646	29248.58
453.852	29350.98
454.058	29674.56
454.264	28976.2
454.47	29750.33
454.676	28740.68
454.882	29660.22
455.088	27202.66
455.294	27706.46
455.5	27909.21
455.705	28326.99
455.911	27196.51
456.117	26748.01
456.323	26602.6
456.529	25267.33
456.735	25934.96
456.941	25304.19
457.147	24886.4
457.352	24251.53
457.558	23911.57
457.764	23934.1
457.97	23620.76
458.176	23047.33
458.381	23006.37
458.587	21974.19
458.793	21775.54
458.999	20821.19
459.204	22199.47
459.41	21769.4
459.616	20151.5
459.821	20141.26
460.027	20421.83
460.233	19711.19
460.438	18959.58
460.644	19123.42
460.85	18312.42
461.055	17974.51
461.261	17968.37
461.466	16405.77
461.672	15965.45
461.878	17057.02
462.083	15869.2
462.289	15566.1
462.494	15486.23
462.7	14877.98
462.905	14685.47
463.111	14884.12
463.316	15037.72
463.522	14703.9
463.727	15064.35
463.932	14732.58
464.138	14611.75
464.343	14738.72
464.549	14230.82
464.754	14757.15
464.959	14423.33
465.165	14458.15
465.37	13866.28
465.575	13350.2
465.781	14015.79
465.986	14222.63
466.191	13686.06
466.397	13272.37
466.602	12920.12
466.807	13014.33
467.012	13067.58
467.218	12965.18
467.423	12895.55
467.628	13028.67
467.833	13503.79
468.038	13247.8
468.244	12473.67
468.449	13186.36
468.654	12821.82
468.859	12578.11
469.064	12651.84
469.269	12186.95
469.474	12244.29
469.679	12191.05
469.885	12145.99
470.09	12272.96
470.295	12098.89
470.5	11971.91
470.705	12062.02
470.91	11765.07
471.115	11658.57
471.32	11941.19
471.525	11744.59
471.73	11695.44
471.935	11472.21
472.139	11031.9
472.344	11173.21
472.549	11056.47
472.754	10939.74
472.959	10620.25
473.164	10722.65
473.369	10480.99
473.574	10528.1
473.778	10726.75
473.983	10470.75
474.188	10628.45
474.393	10063.21
474.598	10173.8
474.802	9993.58
475.007	9790.83
475.212	10085.73
475.417	9543.02
475.621	9551.21
475.826	9758.06
476.031	9549.17
476.235	9325.94
476.44	9299.31
476.645	9141.62
476.849	9260.4
477.054	9174.39
477.259	9045.37
477.463	8934.78
477.668	8809.85
477.872	9053.56
478.077	8682.88
478.282	8433.02
478.486	8461.69
478.691	8461.69
478.895	8349.06
479.1	8387.97
479.304	8344.96
479.509	8045.96
479.713	8271.23
479.918	8234.37
480.122	7900.55
480.326	8111.49
480.531	8211.84
480.735	7982.47
480.94	7847.3
481.144	8134.02
481.348	7669.13
481.553	7767.43
481.757	7691.66
481.961	7824.78
482.166	7843.21
482.37	7841.16
482.574	7558.54
482.778	7656.84
482.983	7945.61
483.187	7712.14
483.391	7818.63
483.595	7798.15
483.8	7572.88
484.004	7757.19
484.208	7769.48
484.412	7804.3
484.616	7783.82
484.821	7787.91
485.025	7517.58
485.229	7648.65
485.433	7654.8
485.637	7798.15
485.841	7888.26
486.045	7822.73
486.249	7712.14
486.453	7705.99
486.657	7894.41
486.861	7843.21
487.065	7640.46
487.269	7755.15
487.473	7558.54
487.677	7892.36
487.881	7716.23
488.085	7759.24
488.289	7853.45
488.493	7767.43
488.697	7763.34
488.901	7839.11
489.105	7689.61
489.309	7902.6
489.512	7921.03
489.716	7902.6
489.92	7839.11
490.124	7900.55
490.328	7994.76
490.531	7773.58
490.735	8043.91
490.939	8082.82
491.143	8000.9
491.346	8078.72
491.55	8168.84
491.754	8035.72
491.958	8088.96
492.161	8211.84
492.365	8136.07
492.569	8152.45
492.772	8238.47
492.976	8316.29
493.18	8138.12
493.383	8422.78
493.587	8484.22
493.79	8576.38
493.994	8504.7
494.197	8459.65
494.401	8594.81
494.605	8619.39
494.808	8635.77
495.012	8811.9
495.215	8777.08
495.419	8869.24
495.622	8908.15
495.825	8936.82
496.029	9006.45
496.232	9237.88
496.436	9151.86
496.639	9450.86
496.843	9317.75
497.046	9604.46
497.249	9682.28
497.453	9727.34
497.656	9549.17
497.859	9753.96
498.063	9860.46
498.266	10159.46
498.469	10347.87
498.673	10339.68
498.876	10290.53
499.079	10311.01
499.282	10425.7
499.485	10628.45
499.689	10784.09
499.892	10870.11
500.095	10720.6
500.298	11191.64
500.501	11056.47
500.705	11310.42
500.908	11580.75
501.111	11750.73
501.314	11681.1
501.517	11795.79
501.72	11910.47
501.923	11844.94
502.126	12395.84
502.329	12551.49
502.532	12340.55
502.735	12563.78
502.938	12748.09
503.141	12864.83
503.344	13026.62
503.547	13190.45
503.75	13260.09
503.953	13382.96
504.156	13460.79
504.359	13774.13
504.562	13772.08
504.765	14054.7
504.968	14288.17
505.17	14443.81
505.373	14550.31
505.576	14638.37
505.779	14798.11
505.982	14966.04
506.185	15142.17
506.387	15240.47
506.59	15359.25
506.793	15504.66
506.996	15828.24
507.198	15869.2
507.401	16102.67
507.604	15899.92
507.807	16631.04
508.009	16370.95
508.212	16551.17
508.415	16915.71
508.617	16999.68
508.82	17229.05
509.022	17044.73
509.225	17399.03
509.428	17589.49
509.63	17865.97
509.833	17708.27
510.035	18005.23
510.238	18089.2
510.44	18410.73
510.643	18943.2
510.845	18857.18
511.048	18787.55
511.25	19148
511.453	19188.96
511.655	19866.83
511.858	19725.52
512.06	19848.4
512.262	19963.09
512.465	20067.53
512.667	20546.76
512.87	20546.76
513.072	20860.1
513.274	21083.33
513.477	21269.69
513.679	21411
513.881	21707.96
514.084	21679.29
514.286	22060.21
514.488	22267.05
514.69	22686.89
514.893	22701.22
515.095	22774.95
515.297	22721.7
515.499	23151.77
515.701	23403.67
515.904	23772.31
516.106	23598.23
516.308	23948.43
516.51	24081.55
516.712	24011.92
516.914	24415.37
517.116	24913.03
517.318	24822.92
517.52	25345.15
517.722	25336.96
517.925	25664.63
518.127	25711.74
518.329	26264.69
518.531	25961.59
518.733	26602.6
518.935	26657.9
519.136	26713.19
519.338	27235.42
519.54	27053.16
519.742	27380.83
519.944	27425.89
520.146	27868.25
520.348	28167.25
520.55	27876.44
520.752	28107.86
520.954	28726.35
521.155	28429.39
521.357	28982.34
521.559	29406.27
521.761	29424.7
521.963	29836.34
522.164	29809.72
522.366	29901.88
522.568	30155.83
522.77	30346.29
522.971	30762.03
523.173	30495.79
523.375	30710.83
523.576	31005.73
523.778	31026.21
523.98	31323.17
524.181	31353.89
524.383	31570.97
524.584	31566.88
524.786	31855.64
524.988	31630.37
525.189	32330.77
525.391	32091.16
525.592	32371.73
525.794	32523.28
525.995	32517.14
526.197	32877.58
526.398	33106.95
526.6	33238.02
526.801	33430.53
527.003	33127.43
527.204	33293.32
527.406	33938.43
527.607	33950.71
527.808	33823.74
528.01	33287.17
528.211	33780.73
528.412	34700.27
528.614	34151.41
528.815	34431.99
529.016	34774
529.218	34206.71
529.419	34493.43
529.62	34421.75
529.822	34839.53
530.023	34524.15
530.224	34606.06
530.425	34520.05
530.626	34481.14
530.828	34518
531.029	35478.5
531.23	34771.95
531.431	35120.1
531.632	34986.99
531.833	35425.25
532.035	35230.69
532.236	35527.65
532.437	36123.61
532.638	35154.92
532.839	35537.89
533.04	35808.22
533.241	35503.07
533.442	35967.96
533.643	35687.39
533.844	35435.49
534.045	35740.64
534.246	35423.2
534.447	35859.42
534.648	35421.16
534.849	35822.56
535.05	35408.87
535.251	36064.22
535.451	35429.35
535.652	35757.02
535.853	35746.78
536.054	36019.16
536.255	35886.04
536.456	35347.43
536.657	35781.6
536.857	35597.28
537.058	35879.9
537.259	35865.56
537.46	35986.39
537.66	35800.03
537.861	35847.13
538.062	35773.41
538.263	35800.03
538.463	35681.25
538.664	35679.2
538.865	35834.85
539.065	35771.36
539.266	35943.39
539.466	35832.8
539.667	35498.98
539.868	36240.34
540.068	35687.39
540.269	35582.95
540.469	36191.19
540.67	35736.54
540.87	35986.39
541.071	35716.06
541.271	36082.65
541.472	35800.03
541.672	35671.01
541.873	35797.98
542.073	35367.91
542.274	36183
542.474	35892.19
542.675	35566.56
542.875	36305.88
543.075	35742.69
543.276	35761.12
543.476	35998.68
543.676	35619.81
543.877	36013.02
544.077	35875.8
544.277	35589.09
544.478	35566.56
544.678	35812.32
544.878	35765.21
545.078	36385.75
545.279	35390.44
545.479	35548.13
545.679	35951.58
545.879	36084.7
546.079	35648.48
546.28	35818.46
546.48	35521.51
546.68	36023.26
546.88	35734.49
547.08	35836.89
547.28	35718.11
547.48	35621.86
547.68	35879.9
547.88	35959.77
548.081	35808.22
548.281	35625.95
548.481	35314.66
548.681	35920.86
548.881	36031.45
549.081	35736.54
549.28	35668.96
549.48	35685.34
549.68	35603.42
549.88	36367.32
550.08	35591.14
550.28	35650.53
550.48	35681.25
550.68	35816.41
550.88	35384.29
551.08	35419.11
551.279	35646.43
551.479	35058.67
551.679	35474.4
551.879	35496.93
552.079	35605.47
552.278	35572.71
552.478	35605.47
552.678	35480.55
552.878	36088.79
553.077	35326.95
553.277	35302.37
553.477	35902.43
553.676	35527.65
553.876	35433.44
554.076	35576.8
554.275	35427.3
554.475	35326.95
554.674	35453.92
554.874	35269.61
555.074	35376.1
555.273	35376.1
555.473	35711.97
555.672	35294.18
555.872	35322.85
556.071	35021.8
556.271	35625.95
556.47	35193.83
556.67	34931.69
556.869	34839.53
557.068	35339.24
557.268	35091.43
557.467	35355.62
557.667	34991.08
557.866	35146.73
558.065	35007.47
558.265	34710.51
558.464	34614.26
558.663	35109.86
558.863	34806.76
559.062	35339.24
559.261	34829.29
559.461	34943.98
559.66	34444.27
559.859	34530.29
560.058	34335.73
560.258	34847.72
560.457	34241.53
560.656	34532.34
560.855	34511.86
561.054	34456.56
561.253	34601.97
561.453	34673.65
561.652	34497.52
561.851	34669.55
562.05	34096.12
562.249	33854.46
562.448	34413.55
562.647	34206.71
562.846	34155.51
563.045	34180.09
563.244	33866.75
563.443	34274.29
563.642	33537.02
563.841	34028.54
564.04	33844.22
564.239	33997.82
564.438	33588.22
564.637	33807.36
564.836	33752.06
565.035	33307.65
565.234	33485.83
565.432	33467.39
565.631	33346.56
565.83	33524.74
566.029	33283.08
566.228	33182.73
566.427	33266.69
566.625	32914.44
566.824	32597.01
567.023	33139.72
567.222	33002.5
567.42	33457.15
567.619	32680.97
567.818	32574.48
568.016	32332.82
568.215	33078.28
568.414	32701.45
568.612	32703.5
568.811	32832.52
569.01	32826.38
569.208	32224.28
569.407	32807.95
569.605	32058.39
569.804	32574.48
570.002	32230.42
570.201	32257.04
570.4	32177.17
570.598	31976.47
570.797	31730.72
570.995	32263.19
571.193	31515.68
571.392	31933.46
571.59	31419.42
571.789	31407.14
571.987	31638.56
572.186	31487.01
572.384	31419.42
572.582	31427.62
572.781	31378.47
572.979	31253.54
573.177	31239.2
573.376	31400.99
573.574	30991.4
573.772	31474.72
573.971	31296.55
574.169	30798.89
574.367	30807.08
574.565	30741.55
574.763	30827.56
574.962	30561.33
575.16	30368.82
575.358	30667.82
575.556	30174.26
575.754	30966.82
575.952	30239.79
576.151	30673.96
576.349	30452.78
576.547	29977.65
576.745	30356.53
576.943	30393.39
577.141	29766.71
577.339	30032.95
577.537	29684.8
577.735	30012.47
577.933	29826.1
578.131	29563.96
578.329	29406.27
578.527	29432.89
578.725	29559.87
578.923	29545.53
579.121	29277.25
579.319	29135.94
579.516	29430.85
579.714	29236.29
579.912	29072.45
580.11	28918.85
580.308	29072.45
580.506	28779.59
580.704	28904.52
580.901	28750.92
581.099	29199.43
581.297	28671.05
581.495	28664.91
581.692	28879.94
581.89	28335.18
582.088	28769.35
582.285	28503.12
582.483	28619.85
582.681	28628.04
582.878	28171.35
583.076	28034.13
583.274	28249.17
583.471	27702.36
583.669	28058.71
583.866	27681.88
584.064	28109.91
584.262	27735.13
584.459	27876.44
584.657	27442.27
584.854	27876.44
585.052	27395.17
585.249	27511.9
585.447	27440.22
585.644	27311.2
585.841	26938.47
586.039	27329.63
586.236	27167.84
586.434	27331.68
586.631	26655.85
586.828	27135.07
587.026	26893.41
587.223	26692.71
587.42	27112.55
587.618	26668.14
587.815	26637.42
588.012	26477.68
588.21	26420.33
588.407	26588.27
588.604	26584.17
588.801	26150
588.999	26694.76
589.196	26371.18
589.393	26301.55
589.59	26121.33
589.787	26391.66
589.984	25803.89
590.182	25848.95
590.379	25963.64
590.576	25494.65
590.773	25760.89
590.97	25818.23
591.167	25654.39
591.364	25070.72
591.561	25783.41
591.758	25044.1
591.955	25396.35
592.152	25357.44
592.349	24886.4
592.546	24953.99
592.743	25152.64
592.94	24708.23
593.137	25138.3
593.334	24974.47
593.531	24599.69
593.727	24788.1
593.924	24532.11
594.121	24235.15
594.318	24544.39
594.515	24378.51
594.712	24229.01
594.908	24149.14
595.105	24345.74
595.302	24040.59
595.499	24136.85
595.696	24304.78
595.892	24016.02
596.089	23800.98
596.286	23805.08
596.482	23719.06
596.679	23671.96
596.876	23893.14
597.072	23659.67
597.269	23776.41
597.466	23581.85
597.662	23448.73
597.859	23428.25
598.055	23340.19
598.252	23149.73
598.448	23223.45
598.645	23186.59
598.841	22824.1
599.038	23288.99
599.234	22979.75
599.431	22586.54
599.627	22942.88
599.824	22930.59
600.02	22838.44
600.217	22795.43
600.413	22645.93
600.609	22467.75
600.806	22273.2
601.002	22297.77
601.198	22439.08
601.395	22367.4
601.591	22037.68
601.787	22160.56
601.984	22406.31
602.18	22334.64
602.376	21884.08
602.572	22119.6
602.769	21828.79
602.965	21927.09
603.161	22043.82
603.357	21705.91
603.553	21712.05
603.75	21959.86
603.946	21568.69
604.142	21433.53
604.338	21324.99
604.534	21542.07
604.73	21380.28
604.926	21298.36
605.122	21304.51
605.318	21015.74
605.514	21208.25
605.71	21083.33
605.906	21013.7
606.102	20999.36
606.298	20917.44
606.494	20769.99
606.69	20776.13
606.886	20757.7
607.082	20505.8
607.278	20675.78
607.474	20729.03
607.67	20739.27
607.866	19979.47
608.062	20620.49
608.257	20212.94
608.453	20440.26
608.649	20270.28
608.845	20438.22
609.041	20389.06
609.236	20489.42
609.432	20303.05
609.628	20067.53
609.824	19766.48
610.019	19928.27
610.215	19950.8
610.411	20307.15
610.606	19915.98
610.802	20239.56
610.998	19961.04
611.193	20053.2
611.389	19774.67
611.584	19817.68
611.78	19604.69
611.976	19815.63
612.171	19653.84
612.367	19700.95
612.562	19576.02
612.758	19494.1
612.953	19487.96
613.149	19473.62
613.344	19432.66
613.539	19877.07
613.735	19428.57
613.93	19447
614.126	19178.72
614.321	19455.19
614.517	19139.8
614.712	19428.57
614.907	19381.46
615.103	19510.49
615.298	18982.11
615.493	19375.32
615.688	18980.06
615.884	19436.76
616.079	18953.44
616.274	19115.23
616.47	18994.4
616.665	19219.67
616.86	19031.26
617.055	18990.3
617.25	18652.39
617.445	19234.01
617.641	18400.49
617.836	19023.07
618.031	18539.75
618.226	18805.99
618.421	18373.86
618.616	18640.1
618.811	18402.54
619.006	18498.79
619.201	18363.62
619.396	18361.58
619.591	18148.59
619.786	18089.2
619.981	18293.99
620.176	18437.35
620.371	17947.89
620.566	18076.91
620.761	17923.31
620.956	18160.87
621.151	17974.51
621.346	17806.58
621.541	17460.47
621.735	17595.64
621.93	17175.8
622.125	17468.66
622.32	17114.36
622.515	17362.17
622.709	16979.2
622.904	17319.16
623.099	16966.91
623.294	16774.4
623.488	16653.57
623.683	16798.98
623.878	16518.4
624.072	16442.63
624.267	16588.03
624.462	16569.6
624.656	16338.18
624.851	16137.48
625.046	16246.02
625.24	16305.42
625.435	15918.35
625.629	16096.52
625.824	15643.92
626.018	15881.49
626.213	15371.54
626.407	15734.03
626.602	15316.25
626.796	15342.87
626.991	15228.18
627.185	15465.75
627.38	15228.18
627.574	14988.57
627.768	14927.13
627.963	14812.45
628.157	14787.87
628.352	14796.06
628.546	14503.2
628.74	14773.53
628.935	14122.28
629.129	14556.45
629.323	14388.52
629.517	14404.9
629.712	14214.44
629.906	14189.86
630.1	14026.03
630.294	13983.02
630.489	13757.74
630.683	14267.69
630.877	13690.16
631.071	13751.6
631.265	13598
631.459	13438.26
631.653	13495.6
631.848	13354.29
632.042	13632.82
632.236	13460.79
632.43	13206.84
632.624	13184.31
632.818	13212.98
633.012	13073.72
633.206	13038.91
633.4	12936.51
633.594	12692.8
633.788	12932.41
633.982	12956.99
634.176	12885.31
634.369	12531.01
634.563	12721.47
634.757	12537.15
634.951	12627.26
635.145	12516.67
635.339	12412.23
635.533	12191.05
635.726	12420.42
635.92	12014.92
636.114	12197.19
636.308	11963.72
636.501	12076.36
636.695	11912.52
636.889	11711.82
637.083	11767.12
637.276	11830.6
637.47	11771.21
637.664	11519.31
637.857	11640.14
638.051	11619.66
638.244	11416.91
638.438	11435.35
638.632	11261.27
638.825	11111.77
639.019	11380.05
639.212	11079
639.406	11132.25
639.599	10921.31
639.793	11001.18
639.986	10884.44
640.18	10855.77
640.373	10874.2
640.567	10677.6
640.76	10870.11
640.954	10571.1
641.147	10671.45
641.34	10397.03
641.534	10530.14
641.727	10505.57
641.92	10413.41
642.114	10343.78
642.307	10280.29
642.5	10300.77
642.694	10132.84
642.887	10048.87
643.08	10319.2
643.273	9995.62
643.467	9930.09
643.66	9887.08
643.853	9717.1
644.046	9786.73
644.239	9977.19
644.432	9817.45
644.626	9885.03
644.819	9670
645.012	9618.8
645.205	9602.41
645.398	9538.93
645.591	9469.3
645.784	9342.32
645.977	9207.16
646.17	9246.07
646.363	9370.99
646.556	9151.86
646.749	9174.39
646.942	9190.77
647.135	8897.91
647.328	9057.65
647.521	9024.89
647.714	9008.5
647.907	8936.82
648.099	8934.78
648.292	8961.4
648.485	8766.84
648.678	8631.68
648.871	8568.19
649.064	8574.33
649.256	8482.17
649.449	8562.05
649.642	8301.95
649.835	8373.63
650.027	8426.88
650.22	8523.13
650.413	8424.83
650.605	8500.61
650.798	8301.95
650.991	8285.57
651.183	8334.72
651.376	8224.13
651.568	8177.03
651.761	8240.51
651.954	7925.13
652.146	8033.67
652.339	7990.66
652.531	7902.6
652.724	7875.98
652.916	7724.43
653.109	7892.36
653.301	7671.18
653.494	7697.8
653.686	7710.09
653.879	7755.15
654.071	7634.32
654.263	7605.64
654.456	7591.31
654.648	7458.19
654.84	7406.99
655.033	7357.84
655.225	7406.99
655.417	7216.53
655.61	7462.29
655.802	7351.7
655.994	7200.15
656.186	7337.36
656.379	7280.02
656.571	7214.48
656.763	7040.4
656.955	7032.21
657.148	6731.16
657.34	7083.41
657.532	7132.56
657.724	6952.34
657.916	7007.64
658.108	6804.89
658.3	6708.63
658.492	6886.81
658.684	6653.34
658.876	6856.09
659.068	6528.41
659.26	6548.89
659.452	6612.38
659.644	6679.96
659.836	6518.17
660.028	6649.24
660.22	6491.55
660.412	6458.78
660.604	6440.35
660.796	6430.11
660.988	6569.37
661.18	6430.11
661.372	6497.69
661.563	6512.03
661.755	6272.42
661.947	6360.48
662.139	6049.19
662.331	6217.12
662.522	5997.99
662.714	6139.3
662.906	6077.86
663.097	6131.11
663.289	6030.76
663.481	6067.62
663.673	5924.26
663.864	5879.21
664.056	5930.41
664.247	5871.01
664.439	5967.27
664.631	5995.94
664.822	5895.59
665.014	5639.59
665.205	5774.76
665.397	5674.41
665.588	5780.9
665.78	5582.25
665.971	5754.28
666.163	5541.29
666.354	5655.98
666.546	5635.5
666.737	5586.35
666.929	5647.79
667.12	5500.33
667.311	5469.61
667.503	5500.33
667.694	5379.5
667.885	5367.21
668.077	5565.87
668.268	5295.54
668.459	5373.36
668.651	5508.52
668.842	5465.52
669.033	5193.14
669.224	5227.95
669.416	5305.78
669.607	5385.65
669.798	5299.63
669.989	5238.19
670.18	5223.86
670.371	5166.51
670.563	5146.03
670.754	5129.65
670.945	5225.9
671.136	5107.12
671.327	5062.07
671.518	4984.24
671.709	5021.11
671.9	4982.2
672.091	5045.68
672.282	4822.45
672.473	4947.38
672.664	4922.8
672.855	5098.93
673.046	5070.26
673.237	4832.69
673.428	4873.65
673.619	4871.61
673.809	4787.64
674	4705.72
674.191	4963.76
674.382	4828.6
674.573	4646.33
674.764	4810.17
674.954	4832.69
675.145	4689.34
675.336	4779.45
675.527	4709.82
675.717	4844.98
675.908	4617.66
676.099	4816.31
676.289	4584.89
676.48	4490.68
676.671	4738.49
676.861	4685.24
677.052	4558.27
677.243	4464.06
677.433	4605.37
677.624	4564.41
677.814	4652.47
678.005	4529.59
678.195	4570.55
678.386	4675
678.576	4568.51
678.767	4500.92
678.957	4566.46
679.148	4376
679.338	4464.06
679.529	4394.43
679.719	4459.96
679.909	4535.74
680.1	4519.36
680.29	4431.29
680.481	4365.76
680.671	4492.73
680.861	4363.71
681.052	4486.59
681.242	4416.96
681.432	4441.53
681.622	4199.87
681.813	4376
682.003	4396.48
682.193	4400.57
682.383	4412.86
682.573	4318.65
682.764	4447.68
682.954	4416.96
683.144	4285.89
683.334	4328.89
683.524	4222.4
683.714	4318.65
683.904	4431.29
684.094	4388.29
684.284	4076.99
684.474	4076.99
684.664	4212.16
684.854	4158.91
685.044	4132.29
685.234	4165.06
685.424	4128.19
685.614	4117.95
685.804	4146.62
685.994	4001.22
686.184	4210.11
686.374	4109.76
686.564	4083.14
686.753	4040.13
686.943	4056.51
687.133	4199.87
687.323	3882.44
687.513	3925.44
687.702	3972.55
687.892	3976.64
688.082	3870.15
688.272	3872.2
688.461	3958.21
688.651	3937.73
688.841	3816.9
689.03	3833.29
689.22	3630.54
689.41	3773.89
689.599	3679.69
689.789	3960.26
689.979	3761.61
690.168	3757.51
690.358	3702.22
690.547	3710.41
690.737	3628.49
690.926	3872.2
691.116	3634.63
691.305	3642.82
691.495	3550.67
691.684	3614.15
691.874	3562.95
692.063	3534.28
692.252	3648.97
692.442	3569.1
692.631	3433.93
692.82	3579.34
693.01	3499.47
693.199	3438.03
693.388	3403.21
693.578	3364.3
693.767	3438.03
693.956	3333.58
694.146	3399.12
694.335	3552.71
694.524	3395.02
694.713	3356.11
694.902	3360.2
695.092	3188.18
695.281	3292.62
695.47	3251.66
695.659	3313.1
695.848	3247.57
696.037	3241.42
696.226	3268.05
696.415	3177.94
696.604	3251.66
696.793	3200.46
696.982	3194.32
697.171	3222.99
697.36	3126.74
697.549	3247.57
697.738	3151.31
697.927	3155.41
698.116	3087.82
698.305	3198.42
698.494	3102.16
698.683	3093.97
698.872	3075.54
699.061	3188.18
699.25	3147.22
699.438	3102.16
699.627	3227.09
699.816	3225.04
700.005	3022.29
700.193	3087.82
700.382	3063.25
700.571	3028.43
700.76	2960.85
700.948	3020.24
701.137	3118.54
701.326	3130.83
701.514	3005.91
701.703	3079.63
701.892	3059.15
702.08	3044.82
702.269	3053.01
702.457	3065.3
702.646	2926.04
702.834	2897.36
703.023	2993.62
703.212	3075.54
703.4	3005.91
703.589	3018.19
703.777	2938.32
703.965	3085.78
704.154	2932.18
704.342	2946.52
704.531	2866.64
704.719	3055.06
704.907	2923.99
705.096	2905.56
705.284	2983.38
705.472	2999.76
705.661	2987.47
705.849	2985.43
706.037	2919.89
706.226	2921.94
706.414	2952.66
706.602	2969.04
706.79	2921.94
706.979	2936.28
707.167	2948.56
707.355	2956.75
707.543	3040.72
707.731	3007.95
707.919	2889.17
708.107	2977.23
708.296	2944.47
708.484	2833.88
708.672	2948.56
708.86	3116.5
709.048	2985.43
709.236	2921.94
709.424	2833.88
709.612	3001.81
709.8	2952.66
709.988	2971.09
710.176	2932.18
710.364	3104.21
710.551	2844.12
710.739	2969.04
710.927	2960.85
711.115	2975.19
711.303	2862.55
711.491	2921.94
711.679	2891.22
711.866	2946.52
712.054	2958.8
712.242	2923.99
712.43	2940.37
712.617	2966.99
712.805	2907.6
712.993	3024.34
713.181	3077.59
713.368	2987.47
713.556	3014.1
713.744	2858.45
713.931	2977.23
714.119	2915.8
714.306	3018.19
714.494	2944.47
714.682	2936.28
714.869	2864.6
715.057	2852.31
715.244	2938.32
715.432	2907.6
715.619	2878.93
715.807	2872.79
715.994	2936.28
716.182	2815.45
716.369	2842.07
716.556	2899.41
716.744	2907.6
716.931	2911.7
717.119	3053.01
717.306	2776.53
717.493	2876.88
717.681	2911.7
717.868	2940.37
718.055	2846.16
718.242	2749.91
718.43	2889.17
718.617	2893.27
718.804	2866.64
718.991	2983.38
719.179	2987.47
719.366	3012.05
719.553	2860.5
719.74	3044.82
719.927	2831.83
720.114	2966.99
720.301	2895.32
720.488	2846.16
720.676	2923.99
720.863	2923.99
721.05	2893.27
721.237	2956.75
721.424	3075.54
721.611	2913.75
721.798	2952.66
721.985	2956.75
722.172	2835.92
722.358	2860.5
722.545	2989.52
722.732	2864.6
722.919	2837.97
723.106	2899.41
723.293	2983.38
723.48	2948.56
723.667	2825.68
723.853	2923.99
724.04	2815.45
724.227	2911.7
724.414	2848.21
724.6	2815.45
724.787	2903.51
724.974	2942.42
725.161	2817.49
725.347	2899.41
725.534	2901.46
725.72	3012.05
725.907	2854.36
726.094	2983.38
726.28	2944.47
726.467	2995.67
726.653	2913.75
726.84	3005.91
727.027	2983.38
727.213	2991.57
727.4	2745.81
727.586	2966.99
727.773	2921.94
727.959	2948.56
728.145	2975.19
728.332	2942.42
728.518	2975.19
728.705	3016.15
728.891	2831.83
729.077	2837.97
729.264	2829.78
729.45	2889.17
729.636	2962.9
729.823	2932.18
730.009	3003.86
730.195	2883.03
730.382	2864.6
730.568	2825.68
730.754	2872.79
730.94	2864.6
731.126	2915.8
731.313	2870.74
731.499	2745.81
731.685	2977.23
731.871	2921.94
732.057	2864.6
732.243	2749.91
732.429	2930.13
732.615	2926.04
732.801	2919.89
732.987	2864.6
733.173	2913.75
733.359	3030.48
733.545	2858.45
733.731	2823.64
733.917	2878.93
734.103	2993.62
734.289	2928.08
734.475	2743.77
734.661	2870.74
734.847	2977.23
735.033	2835.92
735.219	2913.75
735.404	2913.75
735.59	2944.47
735.776	2778.58
735.962	2704.85
736.148	2899.41
736.333	2719.19
736.519	2811.35
736.705	2848.21
736.89	2862.55
737.076	2909.65
737.262	2831.83
737.447	2991.57
737.633	2713.05
737.819	2805.21
738.004	2770.39
738.19	2846.16
738.375	2659.8
738.561	2825.68
738.747	2743.77
738.932	2827.73
739.118	2809.3
739.303	2807.25
739.489	2866.64
739.674	2813.4
739.859	2700.76
740.045	2815.45
740.23	2807.25
740.416	2719.19
740.601	2749.91
740.786	2708.95
740.972	2754.01
741.157	2639.32
741.342	2688.47
741.528	2719.19
741.713	2741.72
741.898	2645.46
742.084	2729.43
742.269	2698.71
742.454	2606.55
742.639	2735.57
742.824	2801.11
743.01	2489.82
743.195	2627.03
743.38	2545.11
743.565	2702.81
743.75	2663.9
743.935	2620.89
744.12	2614.74
744.305	2401.76
744.49	2547.16
744.675	2543.07
744.86	2442.71
745.045	2524.63
745.23	2545.11
745.415	2477.53
745.6	2440.67
745.785	2452.95
745.97	2469.34
746.155	2342.36
746.34	2440.67
746.525	2405.85
746.71	2375.13
746.895	2536.92
747.079	2471.39
747.264	2379.23
747.449	2364.89
747.634	2250.21
747.819	2407.9
748.003	2252.25
748.188	2280.93
748.373	2282.97
748.557	2338.27
748.742	2209.25
748.927	2250.21
749.111	2289.12
749.296	2258.4
749.481	2176.48
749.665	2156
749.85	2219.49
750.034	2143.71
750.219	2153.95
750.404	2043.36
750.588	2102.75
750.773	2162.14
750.957	2135.52
751.141	1963.49
751.326	2129.38
751.51	2043.36
751.695	2002.4
751.879	1992.16
752.064	2094.56
752.248	1986.02
752.432	1910.24
752.617	1988.07
752.801	1934.82
752.985	1922.53
753.17	1914.34
753.354	1887.72
753.538	1930.72
753.722	1848.8
753.907	1799.65
754.091	1973.73
754.275	1818.08
754.459	1830.37
754.643	1773.03
754.828	1795.56
755.012	1844.71
755.196	1807.84
755.38	1750.5
755.564	1779.17
755.748	1746.41
755.932	1836.52
756.116	1676.77
756.3	1664.49
756.484	1703.4
756.668	1639.91
756.852	1605.1
757.036	1623.53
757.22	1646.05
757.404	1641.96
757.588	1625.58
757.772	1730.02
757.956	1592.81
758.14	1568.23
758.323	1533.42
758.507	1572.33
758.691	1580.52
758.875	1564.14
759.059	1506.79
759.242	1519.08
759.426	1535.46
759.61	1443.31
759.794	1474.03
759.977	1488.36
760.161	1541.61
760.345	1484.27
760.528	1512.94
760.712	1461.74
760.895	1353.2
761.079	1365.48
761.263	1490.41
761.446	1494.51
761.63	1461.74
761.813	1416.68
761.997	1304.04
762.18	1373.68
762.364	1437.16
762.547	1304.04
762.731	1269.23
762.914	1394.15
763.098	1342.96
763.281	1392.11
763.464	1332.72
763.648	1232.37
763.831	1279.47
764.015	1332.72
764.198	1289.71
764.381	1322.48
764.564	1293.8
764.748	1375.72
764.931	1304.04
765.114	1234.41
765.297	1324.52
765.481	1248.75
765.664	1289.71
765.847	1177.07
766.03	1242.61
766.213	1263.08
766.397	1256.94
766.58	1224.17
766.763	1236.46
766.946	1215.98
767.129	1162.73
767.312	1228.27
767.495	1117.68
767.678	1220.08
767.861	1299.95
768.044	1152.49
768.227	1218.03
768.41	1195.5
768.593	1119.73
768.776	1156.59
768.959	1107.44
769.142	1158.64
769.324	1043.95
769.507	1191.41
769.69	1148.4
769.873	1089.01
770.056	1183.21
770.239	1117.68
770.421	1091.06
770.604	1089.01
770.787	1070.58
770.97	1095.15
771.152	974.32
771.335	1160.69
771.518	1011.18
771.7	1095.15
771.883	1115.63
772.066	1091.06
772.248	1048.05
772.431	1015.28
772.613	1013.23
772.796	1084.91
772.978	1043.95
773.161	1023.47
773.343	968.18
773.526	929.27
773.708	998.9
773.891	945.65
774.073	968.18
774.256	914.93
774.438	1046
774.621	914.93
774.803	919.03
774.985	943.6
775.168	1031.66
775.35	841.2
775.532	921.07
775.715	779.76
775.897	892.4
776.079	824.82
776.261	902.64
776.444	855.54
776.626	892.4
776.808	871.92
776.99	896.5
777.173	886.26
777.355	869.87
777.537	828.92
777.719	779.76
777.901	830.96
778.083	777.72
778.265	849.4
778.447	800.24
778.629	744.95
778.811	800.24
778.993	785.91
779.175	833.01
779.357	910.83
779.539	718.33
779.721	767.48
779.903	763.38
780.085	773.62
780.267	833.01
780.449	726.52
780.631	767.48
780.812	728.56
780.994	751.09
781.176	677.37
781.358	685.56
781.54	681.46
781.721	671.22
781.903	683.51
782.085	671.22
782.267	638.45
782.448	687.61
782.63	677.37
782.812	689.65
782.993	689.65
783.175	667.13
783.357	593.4
783.538	644.6
783.72	679.41
783.901	609.78
784.083	593.4
784.264	570.87
784.446	521.72
784.627	615.93
784.809	603.64
784.99	599.54
785.172	562.68
785.353	622.07
785.535	624.12
785.716	562.68
785.897	531.96
786.079	503.29
786.26	632.31
786.441	626.17
786.623	568.82
786.804	509.43
786.985	529.91
787.167	562.68
787.348	499.19
787.529	566.78
787.71	474.62
787.891	548.34
788.073	515.58
788.254	519.67
788.435	460.28
788.616	441.85
788.797	482.81
788.978	554.49
789.159	491
789.34	529.91
789.522	562.68
789.703	491
789.884	398.84
790.065	519.67
790.246	462.33
790.427	546.3
790.607	486.9
790.788	478.71
790.969	402.94
791.15	423.42
791.331	398.84
791.512	425.47
791.693	413.18
791.874	460.28
792.054	531.96
792.235	534.01
792.416	394.75
792.597	411.13
792.778	357.88
792.958	407.03
793.139	425.47
793.32	374.27
793.5	476.66
793.681	527.86
793.862	392.7
794.042	439.8
794.223	392.7
794.404	368.12
794.584	415.23
794.765	312.83
794.945	415.23
795.126	398.84
795.306	472.57
795.487	347.64
795.667	288.25
795.848	361.98
796.028	339.45
796.209	341.5
796.389	404.99
796.57	384.51
796.75	341.5
796.93	404.99
797.111	374.27
797.291	347.64
797.471	357.88
797.652	370.17
797.832	327.16
798.012	402.94
798.192	398.84
798.373	349.69
798.553	310.78
798.733	282.11
798.913	349.69
799.093	341.5
799.274	368.12
799.454	314.88
799.634	355.83
799.814	361.98
799.994	353.79
800.174	306.68
800.354	314.88
800.534	382.46
800.714	294.4
800.894	284.16
801.074	253.44
801.254	265.72
801.434	265.72
801.614	187.9
801.794	308.73
801.974	656.89
802.154	366.07
802.334	321.02
802.514	292.35
802.693	361.98
802.873	255.48
803.053	286.2
803.233	298.49
803.413	318.97
803.592	308.73
803.772	194.05
803.952	255.48
804.131	364.03
804.311	282.11
804.491	232.96
804.67	265.72
804.85	210.43
805.03	204.28
805.209	308.73
805.389	208.38
805.568	271.87
805.748	298.49
805.928	192
806.107	321.02
806.287	249.34
806.466	288.25
806.646	124.41
806.825	239.1
807.004	220.67
807.184	282.11
807.363	259.58
807.543	245.24
807.722	302.59
807.901	245.24
808.081	169.47
808.26	222.72
808.439	259.58
808.619	249.34
808.798	259.58
808.977	273.92
809.156	265.72
809.336	198.14
809.515	325.12
809.694	200.19
809.873	163.33
810.052	210.43
810.231	247.29
810.411	280.06
810.59	192
810.769	230.91
810.948	269.82
811.127	202.24
811.306	222.72
811.485	165.37
811.664	316.92
811.843	198.14
812.022	198.14
812.201	253.44
812.38	146.94
812.559	202.24
812.737	206.33
812.916	161.28
813.095	171.52
813.274	200.19
813.453	239.1
813.632	251.39
813.811	243.2
813.989	206.33
814.168	245.24
814.347	247.29
814.526	179.71
814.704	157.18
814.883	259.58
815.062	163.33
815.24	206.33
815.419	206.33
815.598	173.57
815.776	134.65
815.955	204.28
816.133	77.31
816.312	144.89
816.49	151.04
816.669	159.23
816.847	175.61
817.026	218.62
817.204	192
817.383	192
817.561	142.85
817.74	235
817.918	159.23
818.097	146.94
818.275	126.46
818.453	196.09
818.632	200.19
818.81	173.57
818.988	245.24
819.167	167.42
819.345	116.22
819.523	132.61
819.701	187.9
819.879	85.5
820.058	183.81
820.236	222.72
820.414	230.91
820.592	161.28
820.77	165.37
820.948	67.07
821.127	132.61
821.305	136.7
821.483	136.7
821.661	222.72
821.839	116.22
822.017	167.42
822.195	128.51
822.373	89.6
822.551	173.57
822.729	130.56
822.907	144.89
823.085	132.61
823.262	101.89
823.44	173.57
823.618	91.65
823.796	177.66
823.974	128.51
824.152	218.62
824.329	167.42
824.507	161.28
824.685	103.93
824.863	177.66
825.04	153.09
825.218	167.42
825.396	179.71
825.574	105.98
825.751	167.42
825.929	118.27
826.107	34.3
826.284	165.37
826.462	118.27
826.639	62.98
826.817	114.17
826.994	148.99
827.172	42.5
827.349	185.85
827.527	138.75
827.704	181.76
827.882	169.47
828.059	198.14
828.237	87.55
828.414	173.57
828.591	144.89
828.769	112.13
828.946	42.5
829.124	173.57
829.301	118.27
829.478	112.13
829.655	91.65
829.833	151.04
830.01	65.02
830.187	93.69
830.364	93.69
830.542	173.57
830.719	87.55
830.896	159.23
831.073	73.21
831.25	116.22
831.427	140.8
831.604	120.32
831.782	105.98
831.959	196.09
832.136	132.61
832.313	165.37
832.49	110.08
832.667	155.13
832.844	52.74
833.021	44.54
833.198	118.27
833.374	93.69
833.551	95.74
833.728	185.85
833.905	161.28
834.082	62.98
834.259	130.56
834.436	118.27
834.612	114.17
834.789	114.17
834.966	124.41
835.143	163.33
835.319	112.13
835.496	56.83
835.673	75.26
835.85	157.18
836.026	171.52
836.203	101.89
836.38	101.89
836.556	122.37
836.733	87.55
836.909	79.36
837.086	52.74
837.262	130.56
837.439	134.65
837.616	101.89
837.792	83.45
837.968	34.3
838.145	19.97
838.321	67.07
838.498	44.54
838.674	67.07
838.851	56.83
839.027	52.74
839.203	97.79
839.38	128.51
839.556	97.79
839.732	169.47
839.909	56.83
840.085	114.17
840.261	73.21
840.437	155.13
840.614	77.31
840.79	65.02
840.966	69.12
841.142	38.4
841.318	65.02
841.494	42.5
841.671	114.17
841.847	42.5
842.023	48.64
842.199	95.74
842.375	79.36
842.551	91.65
842.727	28.16
842.903	103.93
843.079	36.35
843.255	54.78
843.431	67.07
843.607	116.22
843.783	-6.66
843.959	105.98
844.134	44.54
844.31	93.69
844.486	79.36
844.662	3.58
844.838	87.55
845.013	128.51
845.189	40.45
845.365	103.93
845.541	54.78
845.716	87.55
845.892	89.6
846.068	56.83
846.244	69.12
846.419	48.64
846.595	32.26
846.77	71.17
846.946	95.74
847.122	81.41
847.297	85.5
847.473	124.41
847.648	22.02
847.824	175.61
847.999	19.97
848.175	95.74
848.35	69.12
848.526	52.74
848.701	105.98
848.876	101.89
849.052	38.4
849.227	81.41
849.403	46.59
849.578	126.46
849.753	134.65
849.929	153.09
850.104	9.73
850.279	87.55
850.454	9.73
850.63	73.21
850.805	73.21
850.98	91.65
851.155	30.21
851.33	60.93
851.505	87.55
851.681	34.3
851.856	-2.56
852.031	52.74
852.206	79.36
852.381	7.68
852.556	38.4
852.731	116.22
852.906	1.54
853.081	118.27
853.256	52.74
853.431	54.78
853.606	44.54
853.781	48.64
853.956	56.83
854.131	116.22
854.305	19.97
854.48	52.74
854.655	22.02
854.83	77.31
855.005	7.68
855.18	56.83
855.354	40.45
855.529	-10.75
855.704	89.6
855.879	-0.51
856.053	-18.94
856.228	42.5
856.403	56.83
856.577	105.98
856.752	44.54
856.926	62.98
857.101	185.85
857.276	-10.75
857.45	42.5
857.625	36.35
857.799	93.69
857.974	44.54
858.148	17.92
858.323	19.97
858.497	69.12
858.672	19.97
858.846	120.32
859.02	65.02
859.195	38.4
859.369	38.4
859.543	34.3
859.718	17.92
859.892	13.82
860.066	73.21
860.241	50.69
860.415	17.92
860.589	50.69
860.763	34.3
860.938	-72.19
861.112	65.02
861.286	60.93
861.46	-35.33
861.634	-2.56
861.808	87.55
861.982	13.82
862.157	65.02
862.331	103.93
862.505	58.88
862.679	-14.85
862.853	50.69
863.027	-16.9
863.201	65.02
863.375	3.58
863.549	24.06
863.722	60.93
863.896	5.63
864.07	-37.38
864.244	17.92
864.418	42.5
864.592	75.26
864.766	73.21
864.939	1.54
865.113	-12.8
865.287	36.35
865.461	28.16
865.634	171.52
865.808	-37.38
865.982	103.93
866.156	-23.04
866.329	65.02
866.503	65.02
866.676	38.4
866.85	89.6
867.024	-6.66
867.197	81.41
867.371	48.64
867.544	89.6
867.718	65.02
867.891	46.59
868.065	7.68
868.238	7.68
868.412	34.3
868.585	26.11
868.759	19.97
868.932	-8.7
869.105	38.4
869.279	26.11
869.452	36.35
869.625	54.78
869.799	69.12
869.972	13.82
870.145	38.4
870.319	3.58
870.492	19.97
870.665	56.83
870.838	38.4
871.011	69.12
871.185	46.59
871.358	73.21
871.531	-18.94
871.704	26.11
871.877	26.11
872.05	24.06
872.223	11.78
872.396	34.3
872.569	-14.85
872.742	44.54
872.915	58.88
873.088	52.74
873.261	67.07
873.434	38.4
873.607	24.06
873.78	83.45
873.953	69.12
874.126	93.69
874.299	-4.61
874.471	11.78
874.644	34.3
874.817	62.98
874.99	116.22
875.163	71.17
875.335	-10.75
875.508	-33.28
875.681	77.31
875.853	65.02
876.026	-23.04
876.199	56.83
876.371	15.87
876.544	81.41
876.717	3.58
876.889	30.21
877.062	79.36
877.234	15.87
877.407	67.07
877.579	71.17
877.752	-29.18
877.924	67.07
878.097	9.73
878.269	46.59
878.442	26.11
878.614	124.41
878.786	50.69
878.959	-0.51
879.131	11.78
879.303	15.87
879.476	36.35
879.648	83.45
879.82	58.88
879.993	17.92
880.165	-23.04
880.337	-27.14
880.509	38.4
880.681	-6.66
880.854	5.63
881.026	3.58
881.198	58.88
881.37	1.54
881.542	9.73
881.714	-27.14
881.886	52.74
882.058	24.06
882.23	42.5
882.402	32.26
882.574	69.12
882.746	-8.7
882.918	19.97
883.09	93.69
883.262	19.97
883.434	3.58
883.606	-53.76
883.778	-8.7
883.95	48.64
884.122	34.3
884.293	-2.56
884.465	11.78
884.637	9.73
884.809	1.54
884.98	1.54
885.152	85.5
885.324	-8.7
885.496	52.74
885.667	-2.56
885.839	-4.61
886.011	60.93
886.182	65.02
886.354	15.87
886.525	58.88
886.697	-10.75
886.869	62.98
887.04	-6.66
887.212	75.26
887.383	81.41
887.555	5.63
887.726	15.87
887.897	-55.81
888.069	42.5
888.24	54.78
888.412	-78.33
888.583	46.59
888.754	89.6
888.926	-25.09
889.097	44.54
889.268	1.54
889.44	-14.85
889.611	7.68
889.782	87.55
889.953	-20.99
890.125	38.4
890.296	-41.47
890.467	30.21
890.638	28.16
890.809	36.35
890.98	24.06
891.151	-47.62
891.323	19.97
891.494	-12.8
891.665	99.84
891.836	110.08
892.007	22.02
892.178	69.12
892.349	-35.33
892.52	-2.56
892.691	30.21
892.862	15.87
893.032	9.73
893.203	56.83
893.374	13.82
893.545	5.63
893.716	13.82
893.887	7.68
894.057	46.59
894.228	101.89
894.399	48.64
894.57	32.26
894.74	17.92
894.911	89.6
895.082	13.82
895.253	-2.56
895.423	42.5
895.594	77.31
895.764	-64
895.935	99.84
896.106	-43.52
896.276	-31.23
896.447	-27.14
896.617	65.02
896.788	-25.09
896.958	-20.99
897.129	-2.56
897.299	75.26
897.47	97.79
897.64	-2.56
897.81	15.87
897.981	-31.23
898.151	87.55
898.322	11.78
898.492	44.54
898.662	91.65
898.832	28.16
899.003	50.69
899.173	26.11
899.343	28.16
899.513	26.11
