Data from USB4F104151__13__12-27-02-236.txt Node

Date: Fri Mar 14 12:27:02 EDT 2025
User: louis
Spectrometer: USB4F10415
Trigger mode: 4
Integration Time (sec): 2.000000E-2
Scans to average: 1
Electric dark correction enabled: true
Nonlinearity correction enabled: false
Boxcar width: 0
XAxis mode: Wavelengths
Number of Pixels in Spectrum: 3648
>>>>>Begin Spectral Data<<<<<
178.204	-63.83
178.424	-63.83
178.644	-63.83
178.864	-33.11
179.084	-63.83
179.304	9.9
179.524	-20.82
179.744	26.28
179.964	24.23
180.184	-24.92
180.404	-35.16
180.624	46.76
180.844	-4.44
181.064	-14.68
181.283	-33.11
181.503	-37.2
181.723	63.15
181.943	-0.34
182.163	42.67
182.383	5.8
182.602	48.81
182.822	83.63
183.042	34.47
183.262	18.09
183.482	91.82
183.701	1.71
183.921	67.24
184.141	-8.53
184.361	77.48
184.58	28.33
184.8	48.81
185.02	5.8
185.239	50.86
185.459	28.33
185.679	13.99
185.898	-24.92
186.118	22.19
186.338	57
186.557	34.47
186.777	63.15
186.997	24.23
187.216	42.67
187.436	63.15
187.655	-8.53
187.875	89.77
188.095	-18.77
188.314	-4.44
188.534	50.86
188.753	44.71
188.973	75.43
189.192	63.15
189.412	28.33
189.631	114.34
189.851	81.58
190.07	73.39
190.29	77.48
190.509	-22.87
190.729	22.19
190.948	104.11
191.168	93.87
191.387	28.33
191.607	5.8
191.826	161.45
192.045	5.8
192.265	-43.35
192.484	38.57
192.704	-0.34
192.923	32.43
193.142	106.15
193.362	81.58
193.581	32.43
193.8	44.71
194.02	13.99
194.239	-12.63
194.458	48.81
194.678	67.24
194.897	18.09
195.116	36.52
195.335	32.43
195.555	50.86
195.774	54.95
195.993	97.96
196.212	77.48
196.432	-39.25
196.651	-2.39
196.87	13.99
197.089	95.91
197.308	-4.44
197.528	48.81
197.747	-10.58
197.966	1.71
198.185	102.06
198.404	40.62
198.623	3.75
198.842	18.09
199.062	24.23
199.281	52.91
199.5	22.19
199.719	71.34
199.938	34.47
200.157	40.62
200.376	32.43
200.595	153.26
200.814	87.72
201.033	24.23
201.252	46.76
201.471	30.38
201.69	22.19
201.909	95.91
202.128	108.2
202.347	44.71
202.566	-10.58
202.785	63.15
203.004	61.1
203.223	149.16
203.442	-2.39
203.661	44.71
203.879	-4.44
204.098	36.52
204.317	-4.44
204.536	11.95
204.755	-4.44
204.974	26.28
205.193	50.86
205.411	95.91
205.63	100.01
205.849	143.02
206.068	48.81
206.287	30.38
206.505	52.91
206.724	40.62
206.943	36.52
207.162	83.63
207.381	81.58
207.599	-20.82
207.818	40.62
208.037	-2.39
208.255	38.57
208.474	46.76
208.693	32.43
208.911	42.67
209.13	50.86
209.349	18.09
209.567	22.19
209.786	143.02
210.005	87.72
210.223	44.71
210.442	67.24
210.661	61.1
210.879	7.85
211.098	85.67
211.316	89.77
211.535	54.95
211.753	-41.3
211.972	65.19
212.191	71.34
212.409	71.34
212.628	20.14
212.846	38.57
213.065	32.43
213.283	26.28
213.502	69.29
213.72	36.52
213.938	-22.87
214.157	36.52
214.375	79.53
214.594	75.43
214.812	69.29
215.031	32.43
215.249	34.47
215.467	32.43
215.686	116.39
215.904	16.04
216.122	69.29
216.341	108.2
216.559	73.39
216.778	69.29
216.996	108.2
217.214	75.43
217.432	40.62
217.651	69.29
217.869	24.23
218.087	52.91
218.306	61.1
218.524	120.49
218.742	16.04
218.96	18.09
219.179	54.95
219.397	24.23
219.615	108.2
219.833	95.91
220.051	52.91
220.27	30.38
220.488	54.95
220.706	57
220.924	1.71
221.142	52.91
221.36	59.05
221.578	71.34
221.796	65.19
222.015	69.29
222.233	38.57
222.451	-2.39
222.669	50.86
222.887	59.05
223.105	38.57
223.323	71.34
223.541	93.87
223.759	140.97
223.977	67.24
224.195	114.34
224.413	87.72
224.631	106.15
224.849	44.71
225.067	22.19
225.285	87.72
225.503	48.81
225.721	-4.44
225.939	34.47
226.157	42.67
226.375	116.39
226.592	-10.58
226.81	52.91
227.028	40.62
227.246	104.11
227.464	34.47
227.682	42.67
227.9	18.09
228.117	9.9
228.335	22.19
228.553	63.15
228.771	44.71
228.989	-29.01
229.206	65.19
229.424	65.19
229.642	24.23
229.86	38.57
230.077	69.29
230.295	16.04
230.513	11.95
230.731	130.73
230.948	9.9
231.166	5.8
231.384	69.29
231.601	48.81
231.819	63.15
232.037	-0.34
232.254	50.86
232.472	67.24
232.689	24.23
232.907	54.95
233.125	-14.68
233.342	42.67
233.56	89.77
233.777	32.43
233.995	26.28
234.213	71.34
234.43	-0.34
234.648	91.82
234.865	73.39
235.083	67.24
235.3	30.38
235.518	16.04
235.735	79.53
235.953	67.24
236.17	7.85
236.388	65.19
236.605	28.33
236.822	36.52
237.04	-6.49
237.257	52.91
237.475	18.09
237.692	65.19
237.909	57
238.127	44.71
238.344	95.91
238.562	9.9
238.779	48.81
238.996	54.95
239.214	69.29
239.431	16.04
239.648	75.43
239.865	34.47
240.083	-2.39
240.3	61.1
240.517	38.57
240.735	75.43
240.952	-0.34
241.169	54.95
241.386	116.39
241.603	57
241.821	-4.44
242.038	77.48
242.255	126.63
242.472	63.15
242.689	61.1
242.907	71.34
243.124	24.23
243.341	67.24
243.558	50.86
243.775	13.99
243.992	11.95
244.209	34.47
244.426	89.77
244.643	114.34
244.86	-2.39
245.078	67.24
245.295	36.52
245.512	42.67
245.729	52.91
245.946	87.72
246.163	42.67
246.38	9.9
246.597	114.34
246.814	-10.58
247.031	20.14
247.248	87.72
247.464	126.63
247.681	75.43
247.898	-22.87
248.115	36.52
248.332	79.53
248.549	9.9
248.766	71.34
248.983	75.43
249.2	85.67
249.417	67.24
249.633	69.29
249.85	13.99
250.067	1.71
250.284	54.95
250.501	22.19
250.717	46.76
250.934	30.38
251.151	71.34
251.368	-35.16
251.585	85.67
251.801	36.52
252.018	38.57
252.235	110.25
252.451	13.99
252.668	57
252.885	-10.58
253.102	108.2
253.318	9.9
253.535	3.75
253.752	87.72
253.968	97.96
254.185	57
254.401	24.23
254.618	106.15
254.835	50.86
255.051	71.34
255.268	67.24
255.484	73.39
255.701	-31.06
255.917	-6.49
256.134	44.71
256.351	11.95
256.567	59.05
256.784	73.39
257	-18.77
257.217	61.1
257.433	75.43
257.65	67.24
257.866	73.39
258.082	38.57
258.299	30.38
258.515	102.06
258.732	65.19
258.948	136.87
259.165	63.15
259.381	69.29
259.597	9.9
259.814	-6.49
260.03	22.19
260.246	22.19
260.463	91.82
260.679	93.87
260.895	18.09
261.112	69.29
261.328	-57.68
261.544	-16.73
261.761	81.58
261.977	87.72
262.193	54.95
262.409	42.67
262.626	69.29
262.842	73.39
263.058	46.76
263.274	77.48
263.49	89.77
263.707	52.91
263.923	61.1
264.139	-29.01
264.355	67.24
264.571	155.3
264.787	48.81
265.004	63.15
265.22	24.23
265.436	34.47
265.652	48.81
265.868	-4.44
266.084	71.34
266.3	50.86
266.516	5.8
266.732	-0.34
266.948	50.86
267.164	91.82
267.38	136.87
267.596	54.95
267.812	163.5
268.028	40.62
268.244	30.38
268.46	120.49
268.676	24.23
268.892	13.99
269.108	7.85
269.324	28.33
269.54	89.77
269.756	63.15
269.972	48.81
270.188	69.29
270.403	-8.53
270.619	122.54
270.835	54.95
271.051	28.33
271.267	-2.39
271.483	54.95
271.698	77.48
271.914	63.15
272.13	32.43
272.346	20.14
272.562	63.15
272.777	28.33
272.993	-8.53
273.209	61.1
273.425	46.76
273.64	122.54
273.856	87.72
274.072	97.96
274.287	79.53
274.503	69.29
274.719	91.82
274.934	120.49
275.15	5.8
275.366	73.39
275.581	59.05
275.797	1.71
276.012	73.39
276.228	44.71
276.444	7.85
276.659	69.29
276.875	-8.53
277.09	87.72
277.306	36.52
277.521	114.34
277.737	36.52
277.952	38.57
278.168	153.26
278.383	108.2
278.599	5.8
278.814	112.3
279.03	89.77
279.245	118.44
279.461	20.14
279.676	104.11
279.892	16.04
280.107	91.82
280.322	24.23
280.538	85.67
280.753	38.57
280.969	20.14
281.184	120.49
281.399	140.97
281.615	57
281.83	44.71
282.045	48.81
282.26	69.29
282.476	97.96
282.691	57
282.906	40.62
283.122	140.97
283.337	-33.11
283.552	16.04
283.767	44.71
283.983	118.44
284.198	97.96
284.413	42.67
284.628	48.81
284.843	145.06
285.058	54.95
285.274	-16.73
285.489	54.95
285.704	52.91
285.919	69.29
286.134	22.19
286.349	28.33
286.564	69.29
286.779	-6.49
286.995	32.43
287.21	9.9
287.425	81.58
287.64	32.43
287.855	147.11
288.07	-0.34
288.285	30.38
288.5	97.96
288.715	110.25
288.93	9.9
289.145	-20.82
289.36	38.57
289.575	-6.49
289.79	54.95
290.004	13.99
290.219	52.91
290.434	59.05
290.649	97.96
290.864	-8.53
291.079	71.34
291.294	71.34
291.509	38.57
291.724	63.15
291.938	34.47
292.153	79.53
292.368	-14.68
292.583	50.86
292.798	-2.39
293.012	91.82
293.227	-4.44
293.442	-12.63
293.657	32.43
293.871	79.53
294.086	3.75
294.301	110.25
294.516	93.87
294.73	57
294.945	42.67
295.16	106.15
295.374	100.01
295.589	100.01
295.804	48.81
296.018	46.76
296.233	16.04
296.447	138.92
296.662	-18.77
296.877	77.48
297.091	65.19
297.306	116.39
297.52	89.77
297.735	44.71
297.949	32.43
298.164	65.19
298.378	52.91
298.593	48.81
298.807	46.76
299.022	110.25
299.236	34.47
299.451	5.8
299.665	61.1
299.88	138.92
300.094	22.19
300.309	-4.44
300.523	81.58
300.737	16.04
300.952	91.82
301.166	112.3
301.381	91.82
301.595	126.63
301.809	108.2
302.024	38.57
302.238	116.39
302.452	46.76
302.667	11.95
302.881	87.72
303.095	83.63
303.309	77.48
303.524	11.95
303.738	97.96
303.952	42.67
304.166	102.06
304.381	-47.44
304.595	89.77
304.809	50.86
305.023	22.19
305.237	57
305.452	106.15
305.666	7.85
305.88	38.57
306.094	-4.44
306.308	52.91
306.522	114.34
306.736	36.52
306.95	32.43
307.164	-0.34
307.379	-102.74
307.593	114.34
307.807	34.47
308.021	67.24
308.235	34.47
308.449	48.81
308.663	36.52
308.877	81.58
309.091	38.57
309.305	50.86
309.519	7.85
309.733	-6.49
309.947	-18.77
310.161	95.91
310.374	65.19
310.588	69.29
310.802	59.05
311.016	59.05
311.23	75.43
311.444	34.47
311.658	38.57
311.872	128.68
312.085	7.85
312.299	65.19
312.513	112.3
312.727	93.87
312.941	48.81
313.154	95.91
313.368	5.8
313.582	126.63
313.796	44.71
314.009	32.43
314.223	95.91
314.437	59.05
314.651	97.96
314.864	81.58
315.078	63.15
315.292	81.58
315.505	71.34
315.719	85.67
315.933	65.19
316.146	44.71
316.36	46.76
316.573	149.16
316.787	122.54
317.001	73.39
317.214	59.05
317.428	61.1
317.641	100.01
317.855	59.05
318.068	42.67
318.282	40.62
318.495	59.05
318.709	28.33
318.922	50.86
319.136	95.91
319.349	93.87
319.563	11.95
319.776	65.19
319.99	54.95
320.203	140.97
320.417	106.15
320.63	32.43
320.843	77.48
321.057	130.73
321.27	65.19
321.483	110.25
321.697	118.44
321.91	34.47
322.124	67.24
322.337	134.82
322.55	71.34
322.763	13.99
322.977	11.95
323.19	32.43
323.403	140.97
323.617	24.23
323.83	100.01
324.043	59.05
324.256	54.95
324.469	52.91
324.683	95.91
324.896	87.72
325.109	93.87
325.322	9.9
325.535	126.63
325.748	93.87
325.962	46.76
326.175	89.77
326.388	138.92
326.601	59.05
326.814	153.26
327.027	77.48
327.24	138.92
327.453	9.9
327.666	128.68
327.879	54.95
328.092	57
328.305	28.33
328.518	65.19
328.731	67.24
328.944	77.48
329.157	24.23
329.37	97.96
329.583	61.1
329.796	87.72
330.009	61.1
330.222	63.15
330.435	-10.58
330.648	5.8
330.861	81.58
331.073	106.15
331.286	48.81
331.499	67.24
331.712	34.47
331.925	106.15
332.138	77.48
332.35	118.44
332.563	91.82
332.776	69.29
332.989	20.14
333.202	83.63
333.414	91.82
333.627	100.01
333.84	77.48
334.053	114.34
334.265	18.09
334.478	71.34
334.691	85.67
334.903	40.62
335.116	73.39
335.329	48.81
335.541	114.34
335.754	102.06
335.966	5.8
336.179	26.28
336.392	75.43
336.604	143.02
336.817	112.3
337.029	50.86
337.242	132.78
337.454	83.63
337.667	69.29
337.88	118.44
338.092	59.05
338.305	54.95
338.517	57
338.729	83.63
338.942	110.25
339.154	102.06
339.367	48.81
339.579	112.3
339.792	-20.82
340.004	106.15
340.217	1.71
340.429	116.39
340.641	24.23
340.854	50.86
341.066	22.19
341.278	106.15
341.491	100.01
341.703	77.48
341.915	67.24
342.128	106.15
342.34	5.8
342.552	122.54
342.764	73.39
342.977	91.82
343.189	83.63
343.401	36.52
343.613	67.24
343.826	18.09
344.038	-0.34
344.25	59.05
344.462	75.43
344.674	69.29
344.886	136.87
345.099	77.48
345.311	26.28
345.523	81.58
345.735	50.86
345.947	87.72
346.159	24.23
346.371	116.39
346.583	108.2
346.795	87.72
347.007	100.01
347.219	24.23
347.431	22.19
347.643	149.16
347.855	28.33
348.067	128.68
348.279	57
348.491	63.15
348.703	79.53
348.915	61.1
349.127	63.15
349.339	-6.49
349.551	22.19
349.763	81.58
349.975	24.23
350.187	95.91
350.399	24.23
350.61	89.77
350.822	77.48
351.034	75.43
351.246	26.28
351.458	5.8
351.669	87.72
351.881	67.24
352.093	132.78
352.305	95.91
352.517	38.57
352.728	44.71
352.94	50.86
353.152	40.62
353.363	52.91
353.575	122.54
353.787	118.44
353.999	81.58
354.21	130.73
354.422	100.01
354.633	65.19
354.845	95.91
355.057	50.86
355.268	83.63
355.48	145.06
355.692	91.82
355.903	77.48
356.115	69.29
356.326	65.19
356.538	132.78
356.749	71.34
356.961	57
357.172	16.04
357.384	75.43
357.595	114.34
357.807	1.71
358.018	32.43
358.23	132.78
358.441	128.68
358.653	75.43
358.864	-10.58
359.075	108.2
359.287	34.47
359.498	71.34
359.709	79.53
359.921	93.87
360.132	48.81
360.344	34.47
360.555	50.86
360.766	-6.49
360.977	54.95
361.189	110.25
361.4	118.44
361.611	108.2
361.823	11.95
362.034	83.63
362.245	18.09
362.456	91.82
362.667	91.82
362.879	48.81
363.09	9.9
363.301	20.14
363.512	89.77
363.723	65.19
363.935	34.47
364.146	97.96
364.357	147.11
364.568	52.91
364.779	71.34
364.99	91.82
365.201	54.95
365.412	81.58
365.623	52.91
365.834	30.38
366.045	48.81
366.256	81.58
366.467	50.86
366.678	67.24
366.889	79.53
367.1	114.34
367.311	214.7
367.522	87.72
367.733	75.43
367.944	36.52
368.155	50.86
368.366	91.82
368.577	36.52
368.788	52.91
368.999	85.67
369.209	106.15
369.42	151.21
369.631	81.58
369.842	171.69
370.053	50.86
370.264	112.3
370.474	57
370.685	61.1
370.896	81.58
371.107	11.95
371.317	69.29
371.528	59.05
371.739	153.26
371.95	97.96
372.16	122.54
372.371	65.19
372.582	188.07
372.792	120.49
373.003	112.3
373.214	63.15
373.424	42.67
373.635	-22.87
373.846	40.62
374.056	7.85
374.267	65.19
374.477	124.58
374.688	71.34
374.898	71.34
375.109	100.01
375.319	61.1
375.53	59.05
375.74	147.11
375.951	73.39
376.161	120.49
376.372	89.77
376.582	57
376.793	89.77
377.003	132.78
377.214	83.63
377.424	130.73
377.635	95.91
377.845	100.01
378.055	124.58
378.266	-0.34
378.476	110.25
378.686	54.95
378.897	118.44
379.107	108.2
379.317	91.82
379.528	102.06
379.738	181.93
379.948	89.77
380.158	100.01
380.369	102.06
380.579	7.85
380.789	91.82
380.999	91.82
381.21	93.87
381.42	114.34
381.63	57
381.84	102.06
382.05	126.63
382.261	114.34
382.471	114.34
382.681	71.34
382.891	116.39
383.101	102.06
383.311	116.39
383.521	26.28
383.731	50.86
383.941	93.87
384.151	11.95
384.361	75.43
384.571	132.78
384.781	75.43
384.991	81.58
385.201	120.49
385.411	63.15
385.621	149.16
385.831	87.72
386.041	138.92
386.251	100.01
386.461	149.16
386.671	97.96
386.881	140.97
387.091	48.81
387.301	110.25
387.511	59.05
387.72	77.48
387.93	163.5
388.14	87.72
388.35	67.24
388.56	136.87
388.769	93.87
388.979	95.91
389.189	120.49
389.399	93.87
389.609	73.39
389.818	165.54
390.028	89.77
390.238	57
390.447	85.67
390.657	126.63
390.867	67.24
391.076	85.67
391.286	61.1
391.496	93.87
391.705	100.01
391.915	118.44
392.125	132.78
392.334	91.82
392.544	130.73
392.753	112.3
392.963	54.95
393.172	89.77
393.382	102.06
393.591	122.54
393.801	67.24
394.01	140.97
394.22	63.15
394.429	147.11
394.639	79.53
394.848	69.29
395.058	145.06
395.267	69.29
395.477	30.38
395.686	124.58
395.895	145.06
396.105	159.4
396.314	175.78
396.524	130.73
396.733	126.63
396.942	120.49
397.152	83.63
397.361	145.06
397.57	77.48
397.78	179.88
397.989	157.35
398.198	155.3
398.407	87.72
398.617	95.91
398.826	116.39
399.035	132.78
399.244	130.73
399.453	124.58
399.663	122.54
399.872	202.41
400.081	122.54
400.29	167.59
400.499	181.93
400.708	114.34
400.917	85.67
401.127	171.69
401.336	143.02
401.545	155.3
401.754	186.02
401.963	247.46
402.172	143.02
402.381	132.78
402.59	118.44
402.799	169.64
403.008	188.07
403.217	210.6
403.426	151.21
403.635	183.98
403.844	167.59
404.053	169.64
404.262	153.26
404.471	183.98
404.68	155.3
404.888	202.41
405.097	198.31
405.306	169.64
405.515	288.42
405.724	233.13
405.933	245.41
406.142	200.36
406.35	278.18
406.559	298.66
406.768	249.51
406.977	274.09
407.185	267.94
407.394	239.27
407.603	253.61
407.812	239.27
408.02	310.95
408.229	231.08
408.438	265.89
408.646	243.37
408.855	313
409.064	294.57
409.272	267.94
409.481	351.91
409.69	337.57
409.898	351.91
410.107	382.63
410.315	421.54
410.524	358.05
410.733	358.05
410.941	435.88
411.15	464.55
411.358	489.12
411.567	513.7
411.775	491.17
411.984	478.88
412.192	566.95
412.401	530.08
412.609	472.74
412.818	642.72
413.026	523.94
413.234	644.77
413.443	583.33
413.651	579.23
413.86	638.62
414.068	710.3
414.276	769.69
414.485	784.03
414.693	710.3
414.901	796.32
415.11	861.85
415.318	822.94
415.526	976.54
415.734	798.37
415.943	1007.26
416.151	994.97
416.359	976.54
416.567	1005.21
416.776	1048.22
416.984	1201.82
417.192	1203.86
417.4	1177.24
417.608	1089.18
417.817	1193.62
418.025	1267.35
418.233	1279.64
418.441	1302.17
418.649	1361.56
418.857	1547.92
419.065	1609.36
419.273	1466
419.481	1642.13
419.689	1752.72
419.897	1730.19
420.105	1820.3
420.313	1824.4
420.521	1971.85
420.729	1963.66
420.937	1973.9
421.145	2088.59
421.353	2145.93
421.561	2285.19
421.769	2410.12
421.977	2442.89
422.185	2526.85
422.393	2633.35
422.601	2629.25
422.809	2610.82
423.017	2817.66
423.224	2850.43
423.432	2893.44
423.64	2942.59
423.848	3157.63
424.056	3133.05
424.263	3380.86
424.471	3399.29
424.679	3430.01
424.887	3604.08
425.094	3767.92
425.302	3626.61
425.51	3972.72
425.718	4034.16
425.925	4101.74
426.133	4224.62
426.341	4431.46
426.548	4560.49
426.756	4720.23
426.964	4877.92
427.171	5062.24
427.379	5031.52
427.586	5367.38
427.794	5449.3
428.001	5566.04
428.209	5836.37
428.417	5570.13
428.624	6069.84
428.832	6258.25
429.039	6127.18
429.247	6153.8
429.454	6807.11
429.662	7288.38
429.869	6723.14
430.076	7102.01
430.284	7011.9
430.491	7183.93
430.699	7632.44
430.906	7638.58
431.114	7786.04
431.321	8218.16
431.528	8408.62
431.736	8623.66
431.943	9104.93
432.15	9055.78
432.358	9059.87
432.565	9483.8
432.772	9612.82
432.979	10077.71
433.187	10255.89
433.394	10323.47
433.601	11060.74
433.808	10841.61
434.016	11134.46
434.223	11412.99
434.43	12223.98
434.637	11974.13
434.844	12910.05
435.052	12887.53
435.259	12672.49
435.466	12758.5
435.673	12723.69
435.88	13854.17
436.087	14394.83
436.294	14527.95
436.501	14071.25
436.708	14341.58
436.915	15140.29
437.122	15570.37
437.329	15392.19
437.537	15885.75
437.743	16412.08
437.95	16229.81
438.157	16889.26
438.364	17462.69
438.571	17429.92
438.778	17829.27
438.985	19234.18
439.192	18328.98
439.399	19111.3
439.606	18675.09
439.813	19551.62
440.02	21065.07
440.227	20391.28
440.433	20526.45
440.64	21054.83
440.847	21185.9
441.054	21577.06
441.261	22992.2
441.467	22545.75
441.674	23065.93
441.881	23723.33
442.088	24032.57
442.294	23620.93
442.501	24476.98
442.708	24888.62
442.914	25675.04
443.121	26987.79
443.328	26277.15
443.534	28112.13
443.741	27559.17
443.948	27266.31
444.154	29191.41
444.361	28550.39
444.568	28775.67
444.774	28841.2
444.981	29412.59
445.187	30012.64
445.394	31620.3
445.6	31010
445.807	33727.66
446.013	32246.97
446.22	33084.59
446.426	34624.67
446.633	34768.02
446.839	35847.3
447.046	34862.23
447.252	36185.22
447.459	36308.1
447.665	36293.76
447.871	38194.28
448.078	39623.76
448.284	37868.65
448.491	38362.21
448.697	40225.86
448.903	40813.63
449.11	40942.65
449.316	40303.68
449.522	41264.18
449.728	42263.59
449.935	42775.58
450.141	42308.65
450.347	43762.7
450.553	42456.1
450.76	42929.18
450.966	44112.91
451.172	44092.43
451.378	44835.84
451.584	43691.02
451.791	45177.85
451.997	44790.78
452.203	45564.92
452.409	45655.03
452.615	45321.21
452.821	43801.61
453.027	43377.68
453.233	45468.66
453.44	43508.75
453.646	44407.81
453.852	44674.05
454.058	45349.88
454.264	44354.57
454.47	44657.67
454.676	43709.46
454.882	45347.83
455.088	41571.38
455.294	41931.82
455.5	42578.98
455.705	43258.9
455.911	41733.17
456.117	41018.42
456.323	40422.47
456.529	38288.48
456.735	39625.81
456.941	38949.98
457.147	38112.36
457.352	37115
457.558	36320.38
457.764	36488.32
457.97	36031.62
458.176	34983.06
458.381	35304.59
458.587	33301.68
458.793	33520.81
458.999	31708.36
459.204	34090.15
459.41	33203.38
459.616	31081.68
459.821	30657.75
460.027	30665.94
460.233	30049.5
460.438	28759.28
460.644	29140.21
460.85	27962.62
461.055	27350.28
461.261	27444.49
461.466	25304.36
461.672	24390.97
461.878	26428.7
462.083	24606
462.289	24130.87
462.494	23934.27
462.7	23059.79
462.905	22222.17
463.111	22918.48
463.316	23262.54
463.522	22562.13
463.727	22627.67
463.932	22537.55
464.138	22508.88
464.343	22486.36
464.549	21771.61
464.754	22566.23
464.959	22472.02
465.165	22134.1
465.37	21284.2
465.575	20696.43
465.781	21693.79
465.986	21861.73
466.191	20909.42
466.397	20227.45
466.602	19463.55
466.807	20335.99
467.012	20387.19
467.218	20182.39
467.423	20123
467.628	20100.47
467.833	20821.36
468.038	19950.97
468.244	19737.98
468.449	20350.32
468.654	19658.11
468.859	19258.76
469.064	19438.98
469.269	18922.89
469.474	18900.36
469.679	19334.53
469.885	18939.27
470.09	19148.17
470.295	19105.16
470.5	18425.23
470.705	18824.59
470.91	18173.33
471.115	17837.47
471.32	18189.72
471.525	17982.87
471.73	17849.75
471.935	17696.16
472.139	16917.93
472.344	17274.28
472.549	16895.4
472.754	16917.93
472.959	16432.56
473.164	16215.48
473.369	16045.49
473.574	16616.88
473.778	16299.44
473.983	16317.87
474.188	16442.8
474.393	15404.48
474.598	15564.22
474.802	15308.23
475.007	15283.65
475.212	15314.37
475.417	14587.34
475.621	14687.69
475.826	14759.37
476.031	14579.15
476.235	14202.32
476.44	14620.11
476.645	14368.21
476.849	14091.73
477.054	13936.09
477.259	13831.64
477.463	13704.67
477.668	13649.37
477.872	13780.44
478.077	13508.06
478.282	13213.15
478.486	13204.96
478.691	12877.29
478.895	13063.65
479.1	12817.9
479.304	12815.85
479.509	12514.8
479.713	12721.64
479.918	12615.15
480.122	12195.31
480.326	12477.93
480.531	12398.06
480.735	11959.8
480.94	12213.74
481.144	12490.22
481.348	11941.36
481.553	12150.26
481.757	11775.48
481.961	12058.1
482.166	12135.92
482.37	12166.64
482.574	11900.41
482.778	12000.76
482.983	12201.46
483.187	12035.57
483.391	11881.97
483.595	11863.54
483.8	11687.42
484.004	12125.68
484.208	12140.02
484.412	11828.73
484.616	11945.46
484.821	12054
485.025	11763.19
485.229	11675.13
485.433	11732.47
485.637	11892.21
485.841	11877.88
486.045	11818.49
486.249	11929.08
486.453	11961.84
486.657	12097.01
486.861	11967.99
487.065	11785.72
487.269	12121.59
487.473	11640.31
487.677	11785.72
487.881	12029.43
488.085	11922.93
488.289	11935.22
488.493	11990.52
488.697	12051.95
488.901	11802.1
489.105	11922.93
489.309	11922.93
489.512	12158.45
489.716	12070.39
489.92	12039.67
490.124	12092.91
490.328	12461.55
490.531	12238.32
490.735	12307.95
490.939	12144.11
491.143	12248.56
491.346	11990.52
491.55	12584.43
491.754	12443.12
491.958	12695.02
492.161	12451.31
492.365	12762.6
492.569	12477.93
492.772	12649.96
492.976	12895.72
493.18	12799.46
493.383	13030.88
493.587	13075.94
493.79	12953.06
493.994	12778.98
494.197	13258.21
494.401	13135.33
494.605	13219.3
494.808	13444.57
495.012	13518.3
495.215	13581.79
495.419	13841.88
495.622	13671.9
495.825	13809.11
496.029	13860.31
496.232	14200.27
496.436	14052.82
496.639	14351.82
496.843	14294.48
497.046	14609.87
497.249	14808.52
497.453	14831.05
497.656	15195.59
497.859	14966.21
498.063	15201.73
498.266	15465.92
498.469	15410.62
498.673	15871.42
498.876	16055.73
499.079	16164.28
499.282	16020.92
499.485	16227.76
499.689	16391.6
499.892	16926.12
500.095	17008.04
500.298	17053.09
500.501	17132.97
500.705	17569.18
500.908	17526.18
501.111	17812.89
501.314	17862.04
501.517	18136.47
501.72	18523.54
501.923	18384.27
502.126	18664.85
502.329	19205.51
502.532	19182.98
502.735	19191.17
502.938	19713.41
503.141	19596.67
503.344	20051.32
503.547	19893.63
503.75	20374.9
503.953	20653.42
504.156	21050.73
504.359	21173.61
504.562	21118.31
504.765	21575.01
504.968	21953.88
505.17	22041.95
505.373	21976.41
505.576	22453.59
505.779	22820.17
505.982	23016.78
506.185	23274.82
506.387	23577.92
506.59	23264.58
506.793	24096.06
506.996	23938.37
507.198	24454.45
507.401	24253.75
507.604	24786.22
507.807	25382.18
508.009	25197.87
508.212	25427.24
508.415	25660.71
508.617	25963.81
508.82	26363.16
509.022	26000.67
509.225	26809.62
509.428	26965.26
509.63	27258.12
509.833	27256.07
510.035	27917.57
510.238	28058.88
510.44	28396.79
510.643	28509.43
510.845	28949.74
511.048	28278.01
511.25	29007.09
511.453	29162.73
511.655	30258.4
511.858	29826.28
512.06	30129.37
512.262	30657.75
512.465	30661.85
512.667	31200.46
512.87	31620.3
513.072	31511.75
513.274	32189.63
513.477	32371.9
513.679	32554.17
513.881	32879.8
514.084	33035.44
514.286	33385.65
514.488	33270.96
514.69	34362.53
514.893	34436.25
515.095	34595.99
515.297	34884.76
515.499	35136.66
515.701	35349.65
515.904	35396.75
516.106	35800.2
516.308	36449.41
516.51	36342.91
516.712	36603
516.914	36856.95
517.116	37635.18
517.318	37475.44
517.52	37868.65
517.722	38315.11
517.925	38474.85
518.127	39167.06
518.329	39203.92
518.531	39255.12
518.733	39765.07
518.935	39660.62
519.136	40399.94
519.338	40569.92
519.54	40553.54
519.742	41337.91
519.944	41282.61
520.146	41925.67
520.348	42413.09
520.55	42341.41
520.752	42271.78
520.954	42916.89
521.155	42621.98
521.357	43576.34
521.559	43408.4
521.761	44309.51
521.963	43936.78
522.164	44248.07
522.366	44618.75
522.568	44897.28
522.77	44909.57
522.971	45868.01
523.173	45204.47
523.375	45796.34
523.576	45833.2
523.778	46048.24
523.98	46695.39
524.181	46724.07
524.383	46855.14
524.584	47616.98
524.786	47102.94
524.988	47375.32
525.189	47692.75
525.391	47946.7
525.592	48128.97
525.794	48518.09
525.995	48321.48
526.197	48354.25
526.398	48651.2
526.6	49224.64
526.801	48841.67
527.003	48853.95
527.204	49060.8
527.406	49552.31
527.607	49464.25
527.808	49968.05
528.01	49116.09
528.211	49861.55
528.412	50430.89
528.614	50496.42
528.815	50058.16
529.016	50447.27
529.218	50178.99
529.419	50852.77
529.62	50527.14
529.822	50381.74
530.023	50869.15
530.224	50961.31
530.425	50793.38
530.626	50850.72
530.828	50394.03
531.029	51579.8
531.23	51202.97
531.431	50877.35
531.632	51145.63
531.833	51063.71
532.035	51245.98
532.236	51356.57
532.437	51700.63
532.638	51370.91
532.839	51575.7
533.04	51700.63
533.241	51508.12
533.442	52192.14
533.643	51921.81
533.844	51760.02
534.045	51856.28
534.246	51377.05
534.447	51737.49
534.648	51755.92
534.849	51854.23
535.05	51606.42
535.251	51665.81
535.451	51233.69
535.652	51479.45
535.853	51565.46
536.054	52085.65
536.255	51985.3
536.456	51090.34
536.657	52341.64
536.857	51325.85
537.058	51415.96
537.259	52073.36
537.46	51690.39
537.66	51454.87
537.861	52151.18
538.062	51919.76
538.263	52130.7
538.463	51403.67
538.664	52067.22
538.865	51794.84
539.065	52112.27
539.266	51465.11
539.466	52120.46
539.667	51458.97
539.868	51721.11
540.068	51592.09
540.269	51725.21
540.469	51991.44
540.67	51956.63
540.87	52054.93
541.071	51807.12
541.271	51809.17
541.472	51448.73
541.672	51579.8
541.873	51635.09
542.073	51399.58
542.274	52122.51
542.474	51694.49
542.675	51422.11
542.875	52009.87
543.075	51557.27
543.276	51264.41
543.476	51876.76
543.676	51557.27
543.877	51667.86
544.077	51614.62
544.277	51596.18
544.478	50930.59
544.678	51999.63
544.878	51245.98
545.078	51321.76
545.279	51172.25
545.479	51266.46
545.679	51323.8
545.879	51946.39
546.079	51684.25
546.28	51458.97
546.48	51241.88
546.68	51405.72
546.88	51463.07
547.08	51704.73
547.28	51139.49
547.48	50807.72
547.68	51557.27
547.88	51319.71
548.081	51499.93
548.281	51315.61
548.481	51153.82
548.681	51596.18
548.881	51262.36
549.081	51209.12
549.28	51364.76
549.48	51401.63
549.68	51008.42
549.88	52093.84
550.08	51319.71
550.28	51422.11
550.48	51186.59
550.68	51499.93
550.88	50969.5
551.08	51536.79
551.279	51862.42
551.479	50731.94
551.679	51332
551.879	51522.46
552.079	51522.46
552.278	51063.71
552.478	51211.17
552.678	50619.3
552.878	51211.17
553.077	50641.83
553.277	50992.03
553.477	51897.23
553.676	50989.98
553.876	51016.61
554.076	50822.05
554.275	51090.34
554.475	50508.71
554.674	51016.61
554.874	51008.42
555.074	50607.01
555.273	51381.15
555.473	51254.17
555.672	50568.1
555.872	50559.91
556.071	50928.55
556.271	51286.94
556.47	50680.74
556.67	50604.97
556.869	50500.52
557.068	50922.4
557.268	50330.54
557.467	50531.24
557.667	50647.97
557.866	50455.46
558.065	50250.67
558.265	49963.95
558.464	49796.02
558.663	50496.42
558.863	49564.6
559.062	50906.02
559.261	49859.51
559.461	50750.37
559.66	49632.18
559.859	50291.63
560.058	49916.85
560.258	50107.31
560.457	49779.64
560.656	50424.75
560.855	49519.54
561.054	50271.15
561.253	49605.56
561.453	49628.09
561.652	50197.42
561.851	50109.36
562.05	49454.01
562.249	48982.98
562.448	49996.72
562.647	50023.34
562.846	49337.27
563.045	49527.73
563.244	49222.59
563.443	49773.49
563.642	48987.07
563.841	49435.58
564.04	48960.45
564.239	49687.48
564.438	48843.71
564.637	49001.41
564.836	49173.44
565.035	48190.41
565.234	48880.58
565.432	48473.03
565.631	48364.49
565.83	48868.29
566.029	48268.23
566.228	48520.13
566.427	48350.15
566.625	48169.93
566.824	47956.94
567.023	48141.26
567.222	47223.77
567.42	48372.68
567.619	47834.06
567.818	48122.83
568.016	48063.44
568.215	48114.64
568.414	47647.7
568.612	48128.97
568.811	47584.21
569.01	47803.35
569.208	46994.4
569.407	47768.53
569.605	46439.4
569.804	47668.18
570.002	47213.53
570.201	47412.18
570.4	46648.29
570.598	46789.6
570.797	46443.49
570.995	46988.25
571.193	46187.5
571.392	47078.36
571.59	46121.96
571.789	46568.42
571.987	45908.97
572.186	46431.21
572.384	45814.77
572.582	46291.94
572.781	46293.99
572.979	45677.55
573.177	45949.93
573.376	46099.44
573.574	45896.69
573.772	45743.09
573.971	46101.48
574.169	45702.13
574.367	45202.42
574.565	45634.55
574.763	45112.31
574.962	45466.61
575.16	45130.75
575.358	45560.82
575.556	44676.1
575.754	45329.4
575.952	44485.64
576.151	44895.23
576.349	44489.73
576.547	44635.14
576.745	44579.84
576.943	44274.7
577.141	44370.95
577.339	44682.24
577.537	44243.98
577.735	43926.54
577.933	44008.46
578.131	44297.22
578.329	43488.28
578.527	44076.04
578.725	43566.1
578.923	43963.4
579.121	43529.23
579.319	43299.86
579.516	43475.99
579.714	43402.26
579.912	43062.3
580.11	43146.26
580.308	43115.54
580.506	42708
580.704	42753.05
580.901	42937.37
581.099	43084.83
581.297	42658.85
581.495	42415.14
581.692	42834.97
581.89	42222.63
582.088	42542.11
582.285	42036.27
582.483	42359.84
582.681	41940.01
582.878	42052.65
583.076	41696.3
583.274	42515.49
583.471	41227.32
583.669	41546.8
583.866	41239.61
584.064	41489.46
584.262	40928.31
584.459	41563.18
584.657	41002.04
584.854	41241.65
585.052	40545.34
585.249	41202.74
585.447	40737.85
585.644	40643.65
585.841	40453.19
586.039	41006.14
586.236	40655.93
586.434	40381.51
586.631	40219.72
586.828	39933
587.026	40119.37
587.223	39916.62
587.42	39998.54
587.618	39699.53
587.815	39640.14
588.012	39365.71
588.21	39556.18
588.407	39699.53
588.604	39042.13
588.801	38874.2
588.999	39113.81
589.196	39021.66
589.393	38925.4
589.59	38894.68
589.787	38567.01
589.984	38585.44
590.182	38440.03
590.379	38337.63
590.576	38311.01
590.773	38210.66
590.97	37946.47
591.167	38169.7
591.364	37592.17
591.561	38075.49
591.758	37594.22
591.955	37651.56
592.152	38120.55
592.349	37280.88
592.546	37317.75
592.743	37987.43
592.94	36676.73
593.137	36879.48
593.334	37471.34
593.531	36842.62
593.727	37565.55
593.924	36799.61
594.121	36574.33
594.318	36748.41
594.515	36504.7
594.712	36365.44
594.908	36304
595.105	36514.94
595.302	36160.64
595.499	36291.71
595.696	35927.17
595.892	35486.86
596.089	35896.45
596.286	36037.76
596.482	35318.93
596.679	35591.31
596.876	35570.83
597.072	35030.16
597.269	35323.02
597.466	35056.79
597.662	34864.28
597.859	34888.85
598.055	34991.25
598.252	35009.68
598.448	34405.53
598.645	34575.52
598.841	34006.18
599.038	34507.93
599.234	34184.35
599.431	33858.73
599.627	33858.73
599.824	34258.08
600.02	33758.38
600.217	33770.66
600.413	33871.01
600.609	33944.74
600.806	33537.19
601.002	33733.8
601.198	33354.93
601.395	32699.58
601.591	33125.55
601.787	32963.76
601.984	32887.99
602.18	33246.38
602.376	32785.59
602.572	32863.41
602.769	32416.96
602.965	32322.75
603.161	32568.51
603.357	32183.49
603.553	32023.75
603.75	32314.56
603.946	32107.71
604.142	32353.47
604.338	31638.73
604.534	31745.22
604.73	31743.17
604.926	31605.96
605.122	31710.41
605.318	31773.89
605.514	31403.21
605.71	31515.85
605.906	31143.12
606.102	31286.48
606.298	31245.52
606.494	31124.69
606.69	31278.29
606.886	30741.72
607.082	30629.08
607.278	30797.01
607.474	30293.21
607.67	30694.61
607.866	30520.54
608.062	31179.98
608.257	30649.56
608.453	30633.18
608.649	30663.89
608.845	30153.95
609.041	30590.17
609.236	30203.1
609.432	30188.77
609.628	30467.29
609.824	29725.93
610.019	29805.8
610.215	30215.39
610.411	30072.03
610.606	29928.67
610.802	29895.91
610.998	29689.06
611.193	29660.39
611.389	29746.4
611.584	29459.69
611.78	29213.93
611.976	29705.45
612.171	29535.46
612.367	29349.1
612.562	29302
612.758	29091.05
612.953	29349.1
613.149	29549.8
613.344	28873.97
613.539	29701.35
613.735	29115.63
613.93	29091.05
614.126	28865.78
614.321	29115.63
614.517	29123.82
614.712	28781.81
614.907	28794.1
615.103	28728.56
615.298	28777.72
615.493	28871.92
615.688	28542.2
615.884	29136.11
616.079	28214.52
616.274	28415.23
616.47	28228.86
616.665	28583.16
616.86	28251.39
617.055	28085.5
617.25	28357.88
617.445	28466.42
617.641	27811.07
617.836	28189.95
618.031	27712.77
618.226	28038.4
618.421	27686.15
618.616	28069.12
618.811	27688.2
619.006	27874.56
619.201	27059.47
619.396	27378.95
619.591	26881.3
619.786	27301.13
619.981	26914.06
620.176	27165.96
620.371	26182.94
620.566	26879.25
620.761	26756.37
620.956	26754.32
621.151	26211.61
621.346	26594.58
621.541	26035.49
621.735	26236.19
621.93	25644.32
622.125	25928.99
622.32	25376.04
622.515	25623.84
622.709	25527.59
622.904	25353.51
623.099	25240.87
623.294	25175.34
623.488	24952.11
623.683	25103.66
623.878	24749.36
624.072	24974.64
624.267	24442.17
624.462	24343.86
624.656	24393.01
624.851	24337.72
625.046	24192.31
625.24	23956.8
625.435	23776.58
625.629	24141.11
625.824	23481.67
626.018	23352.65
626.213	23250.25
626.407	23364.93
626.602	22941
626.796	22893.9
626.991	22668.62
627.185	22525.27
627.38	22619.47
627.574	22441.3
627.768	22328.66
627.963	22256.98
628.157	22308.18
628.352	21994.84
628.546	21806.43
628.74	21964.12
628.935	21521.76
629.129	21671.26
629.323	21433.7
629.517	21364.07
629.712	21171.56
629.906	21218.66
630.1	20960.62
630.294	21030.25
630.489	20872.56
630.683	20890.99
630.877	20372.85
631.071	20383.09
631.265	20571.5
631.459	20245.88
631.653	20225.4
631.848	20292.98
632.042	20039.03
632.236	19715.45
632.43	19883.39
632.624	19723.65
632.818	19496.32
633.012	19510.66
633.206	19324.29
633.4	19477.89
633.594	18945.42
633.788	19150.21
633.982	19062.15
634.176	19010.95
634.369	19088.78
634.563	18843.02
634.757	18683.28
634.951	18906.51
635.145	18597.26
635.339	18496.91
635.533	18216.34
635.726	18378.13
635.92	18115.99
636.114	17898.91
636.308	17933.72
636.501	17620.38
636.695	18009.5
636.889	17855.9
637.083	17618.33
637.276	17483.17
637.47	17458.59
637.664	17434.02
637.857	17194.4
638.051	17022.37
638.244	16999.85
638.438	17157.54
638.632	16991.66
638.825	16704.94
639.019	16883.11
639.212	16657.84
639.406	16663.98
639.599	16391.6
639.793	16694.7
639.986	16049.59
640.18	16215.48
640.373	16102.84
640.567	16143.8
640.76	15879.61
640.954	15705.53
641.147	15953.34
641.34	15683
641.534	15764.92
641.727	15578.56
641.92	15672.76
642.114	15637.95
642.307	15310.27
642.5	15619.52
642.694	15236.55
642.887	15398.34
643.08	15078.85
643.273	15078.85
643.467	15091.14
643.66	14988.74
643.853	14998.98
644.046	14560.72
644.239	14511.57
644.432	14456.27
644.626	14323.15
644.819	14509.52
645.012	14603.72
645.205	14349.78
645.398	14265.81
645.591	13995.48
645.784	14382.54
645.977	13852.12
646.17	13921.75
646.363	13850.07
646.556	13604.32
646.749	13839.83
646.942	13706.71
647.135	13589.98
647.328	13643.23
647.521	13471.2
647.714	13180.39
647.907	13417.95
648.099	13139.43
648.292	13049.32
648.485	13043.17
648.678	12948.97
648.871	13061.6
649.064	12692.97
649.256	13008.36
649.449	12707.3
649.642	12479.98
649.835	12545.52
650.027	12713.45
650.22	12490.22
650.413	12459.5
650.605	12455.4
650.798	12318.19
650.991	12365.29
651.183	12287.47
651.376	12215.79
651.568	12123.63
651.761	11892.21
651.954	11931.12
652.146	12051.95
652.339	11818.49
652.531	11693.56
652.724	11625.98
652.916	11521.53
653.109	11576.83
653.301	11623.93
653.494	11558.39
653.686	11636.22
653.879	11634.17
654.071	11216.38
654.263	11156.99
654.456	11212.29
654.648	11232.77
654.84	10911.24
655.033	11126.27
655.225	11027.97
655.417	10952.2
655.61	10653.19
655.802	10845.7
655.994	10737.16
656.186	10862.08
656.379	10726.92
656.571	10614.28
656.763	10534.41
656.955	10462.73
657.148	10475.02
657.34	10446.35
657.532	10458.64
657.724	10137.1
657.916	10483.21
658.108	10192.4
658.3	10038.8
658.492	10055.19
658.684	9960.98
658.876	9958.93
659.068	9903.64
659.26	9651.74
659.452	9653.78
659.644	9676.31
659.836	9778.71
660.028	9567.77
660.22	9483.8
660.412	9737.75
660.604	9506.33
660.796	9479.71
660.988	9590.3
661.18	9205.28
661.372	9332.25
661.563	9336.35
661.755	9113.12
661.947	9137.7
662.139	9209.37
662.331	8992.29
662.522	8789.54
662.714	8926.75
662.906	8951.33
663.097	8828.45
663.289	8902.18
663.481	8732.2
663.673	8724.01
663.864	8764.96
664.056	8951.33
664.247	8637.99
664.439	8470.06
664.631	8814.12
664.822	8736.29
665.014	8574.5
665.205	8379.95
665.397	8459.82
665.588	8384.04
665.78	8164.91
665.971	8336.94
666.163	8465.96
666.354	8209.97
666.546	8240.68
666.737	8199.73
666.929	7970.35
667.12	8138.29
667.311	8140.33
667.503	7978.54
667.694	8023.6
667.885	7915.06
668.077	7945.78
668.268	7808.56
668.459	7638.58
668.651	7693.88
668.842	7810.61
669.033	7661.11
669.224	7530.04
669.416	7845.43
669.607	7441.98
669.798	7423.55
669.989	7591.48
670.18	7499.32
670.371	7300.67
670.563	7478.84
670.754	7437.88
670.945	7378.49
671.136	7321.15
671.327	7417.4
671.518	7226.94
671.709	7370.3
671.9	7370.3
672.091	7171.65
672.282	7179.84
672.473	6995.52
672.664	7165.5
672.855	7061.05
673.046	7042.62
673.237	6954.56
673.428	6831.68
673.619	6960.7
673.809	6938.18
674	6848.07
674.191	6813.25
674.382	6729.28
674.573	6747.72
674.764	6700.61
674.954	6776.39
675.145	6610.5
675.336	6780.48
675.527	6606.41
675.717	6542.92
675.908	6561.35
676.099	6616.65
676.289	6479.43
676.48	6616.65
676.671	6389.32
676.861	6368.84
677.052	6420.04
677.243	6243.92
677.433	6442.57
677.624	6456.9
677.814	6205
678.005	6428.23
678.195	6350.41
678.386	6272.59
678.576	6116.94
678.767	6190.67
678.957	6026.83
679.148	6377.03
679.338	6043.21
679.529	6172.24
679.719	6188.62
679.909	6043.21
680.1	6162
680.29	6121.04
680.481	6225.48
680.671	5916.24
680.861	5897.81
681.052	6028.88
681.242	5832.27
681.432	5985.87
681.622	5883.47
681.813	5822.03
682.003	5811.79
682.193	5774.93
682.383	5834.32
682.573	5924.43
682.764	5725.78
682.954	5703.25
683.144	5836.37
683.334	5789.27
683.524	5607
683.714	5695.06
683.904	5574.23
684.094	5684.82
684.284	5629.52
684.474	5471.83
684.664	5650
684.854	5623.38
685.044	5465.69
685.234	5488.21
685.424	5498.45
685.614	5443.16
685.804	5449.3
685.994	5477.98
686.184	5543.51
686.374	5328.47
686.564	5084.77
686.753	5264.99
686.943	5281.37
687.133	5445.21
687.323	5221.98
687.513	5385.82
687.702	5152.35
687.892	5064.29
688.082	5117.53
688.272	5332.57
688.461	5023.33
688.651	5125.72
688.841	5029.47
689.03	4986.46
689.22	4970.08
689.41	4931.17
689.599	5056.09
689.789	5029.47
689.979	4922.98
690.168	4839.01
690.358	4863.58
690.547	4843.1
690.737	4769.38
690.926	4839.01
691.116	4630.12
691.305	4740.71
691.495	4664.93
691.684	4746.85
691.874	4773.47
692.063	4771.43
692.252	4560.49
692.442	4603.49
692.631	4540.01
692.82	4634.21
693.01	4626.02
693.199	4554.34
693.388	4515.43
693.578	4546.15
693.767	4480.61
693.956	4335.21
694.146	4357.74
694.335	4427.37
694.524	4193.9
694.713	4486.76
694.902	4191.85
695.092	4220.52
695.281	4273.77
695.47	4408.94
695.659	4343.4
695.848	4185.71
696.037	4114.03
696.226	4197.99
696.415	4111.98
696.604	4224.62
696.793	4157.04
696.982	4007.53
697.171	4177.51
697.36	4079.21
697.549	4095.6
697.738	4013.68
697.927	4036.21
698.116	3919.47
698.305	4003.44
698.494	4015.73
698.683	4056.68
698.872	4089.45
699.061	3913.33
699.25	4091.5
699.438	3851.89
699.627	4054.64
699.816	4007.53
700.005	3944.05
700.193	3921.52
700.382	3841.65
700.571	3776.11
700.76	3888.75
700.948	3935.85
701.137	3755.63
701.326	3710.58
701.514	3767.92
701.703	3892.85
701.892	3767.92
702.08	3794.54
702.269	3780.21
702.457	3718.77
702.646	3804.78
702.834	3653.23
703.023	3769.97
703.212	3812.98
703.4	3675.76
703.589	3651.19
703.777	3710.58
703.965	3595.89
704.154	3716.72
704.342	3620.47
704.531	3587.7
704.719	3591.8
704.907	3526.26
705.096	3522.16
705.284	3653.23
705.472	3708.53
705.661	3655.28
705.849	3708.53
706.037	3507.83
706.226	3671.67
706.414	3530.36
706.602	3470.97
706.79	3565.17
706.979	3587.7
707.167	3573.36
707.355	3456.63
707.543	3526.26
707.731	3518.07
707.919	3587.7
708.107	3534.45
708.296	3477.11
708.484	3376.76
708.672	3548.79
708.86	3513.97
709.048	3427.96
709.236	3374.71
709.424	3548.79
709.612	3415.67
709.8	3524.21
709.988	3618.42
710.176	3495.54
710.364	3370.62
710.551	3427.96
710.739	3442.29
710.927	3399.29
711.115	3280.5
711.303	3407.48
711.491	3307.13
711.679	3446.39
711.866	3413.62
712.054	3421.81
712.242	3366.52
712.43	3266.17
712.617	3384.95
712.805	3452.53
712.993	3350.14
713.181	3319.42
713.368	3409.53
713.556	3348.09
713.744	3303.03
713.931	3458.68
714.119	3346.04
714.306	3245.69
714.494	3194.49
714.682	3354.23
714.869	3268.22
715.057	3257.98
715.244	3171.96
715.432	3319.42
715.619	3262.07
715.807	3352.18
715.994	3253.88
716.182	3346.04
716.369	3315.32
716.556	3290.74
716.744	3239.55
716.931	3286.65
717.119	3235.45
717.306	3159.67
717.493	3137.15
717.681	3303.03
717.868	3282.55
718.055	3233.4
718.242	3337.85
718.43	3182.2
718.617	3110.52
718.804	3251.83
718.991	3188.35
719.179	3354.23
719.366	3206.78
719.553	3186.3
719.74	3131
719.927	3126.91
720.114	3169.91
720.301	3143.29
720.488	3118.72
720.676	3104.38
720.863	3151.48
721.05	3194.49
721.237	3309.18
721.424	3151.48
721.611	3208.83
721.798	3083.9
721.985	3149.43
722.172	3001.98
722.358	3128.95
722.545	3161.72
722.732	2965.12
722.919	3088
723.106	3085.95
723.293	3176.06
723.48	3153.53
723.667	3006.08
723.853	2991.74
724.04	3198.59
724.227	2977.41
724.414	3114.62
724.6	3090.04
724.787	3108.48
724.974	3042.94
725.161	3186.3
725.347	2975.36
725.534	3053.18
725.72	3012.22
725.907	3208.83
726.094	3047.04
726.28	2989.69
726.467	3006.08
726.653	3085.95
726.84	3071.61
727.027	3028.6
727.213	3001.98
727.4	3040.89
727.586	2909.82
727.773	2954.88
727.959	3006.08
728.145	3128.95
728.332	2979.45
728.518	2805.38
728.705	3120.76
728.891	2920.06
729.077	2930.3
729.264	2903.68
729.45	2905.73
729.636	3008.12
729.823	2922.11
730.009	2877.05
730.195	2963.07
730.382	3020.41
730.568	2915.97
730.754	2915.97
730.94	2963.07
731.126	3008.12
731.313	2864.77
731.499	2875.01
731.685	2905.73
731.871	2856.58
732.057	2913.92
732.243	2926.21
732.429	3026.56
732.615	2946.69
732.801	2840.19
732.987	3063.42
733.173	2956.93
733.359	2969.21
733.545	2768.51
733.731	2766.46
733.917	2897.53
734.103	2832
734.289	2858.62
734.475	2813.57
734.661	2975.36
734.847	2829.95
735.033	3014.27
735.219	2895.49
735.404	2877.05
735.59	2764.42
735.776	2719.36
735.962	2895.49
736.148	2801.28
736.333	2827.9
736.519	2915.97
736.705	2784.9
736.89	2791.04
737.076	2846.34
737.262	2856.58
737.447	2782.85
737.633	2795.14
737.819	2821.76
738.004	2721.41
738.19	2797.18
738.375	2670.21
738.561	2764.42
738.747	2719.36
738.932	2709.12
739.118	2907.77
739.303	2684.55
739.489	2840.19
739.674	2680.45
739.859	2698.88
740.045	2737.79
740.23	2643.59
740.416	2621.06
740.601	2705.03
740.786	2567.81
740.972	2623.11
741.157	2563.72
741.342	2567.81
741.528	2600.58
741.713	2580.1
741.898	2582.15
742.084	2639.49
742.269	2590.34
742.454	2594.44
742.639	2739.84
742.824	2655.87
743.01	2500.23
743.195	2569.86
743.38	2569.86
743.565	2606.72
743.75	2508.42
743.935	2512.52
744.12	2526.85
744.305	2582.15
744.49	2358.92
744.675	2416.26
744.86	2487.94
745.045	2383.49
745.23	2514.56
745.415	2373.25
745.6	2440.84
745.785	2350.73
745.97	2428.55
746.155	2295.43
746.34	2444.93
746.525	2346.63
746.71	2371.21
746.895	2358.92
747.079	2348.68
747.264	2246.28
747.449	2254.47
747.634	2174.6
747.819	2236.04
748.003	2320.01
748.188	2205.32
748.373	2231.94
748.557	2178.7
748.742	2176.65
748.927	2158.22
749.111	2133.64
749.296	2045.58
749.481	2059.92
749.665	2211.46
749.85	2031.24
750.034	2219.66
750.219	2006.67
750.404	2129.55
750.588	2160.27
750.773	1998.48
750.957	2041.48
751.141	1967.76
751.326	1967.76
751.51	1920.65
751.695	2018.96
751.879	1998.48
752.064	1947.28
752.248	1969.8
752.432	1965.71
752.617	1918.61
752.801	1949.32
752.985	1953.42
753.17	1775.25
753.354	1898.13
753.538	1828.49
753.722	1777.3
753.907	1793.68
754.091	1834.64
754.275	1830.54
754.459	1767.06
754.643	1801.87
754.828	1765.01
755.012	1801.87
755.196	1771.15
755.38	1754.77
755.564	1672.85
755.748	1640.08
755.932	1767.06
756.116	1664.66
756.3	1545.88
756.484	1615.51
756.668	1695.38
756.852	1506.96
757.036	1646.23
757.22	1552.02
757.404	1554.07
757.588	1635.99
757.772	1560.21
757.956	1511.06
758.14	1474.2
758.323	1506.96
758.507	1482.39
758.691	1556.11
758.875	1541.78
759.059	1506.96
759.242	1423
759.426	1441.43
759.61	1492.63
759.794	1414.81
759.977	1443.48
760.161	1445.52
760.345	1582.74
760.528	1447.57
760.712	1445.52
760.895	1509.01
761.079	1468.05
761.263	1459.86
761.446	1388.18
761.63	1396.37
761.813	1427.09
761.997	1363.61
762.18	1291.93
762.364	1277.59
762.547	1220.25
762.731	1375.89
762.914	1355.41
763.098	1238.68
763.281	1402.52
763.464	1308.31
763.648	1371.8
763.831	1293.97
764.015	1246.87
764.198	1281.69
764.381	1330.84
764.564	1273.5
764.748	1189.53
764.931	1267.35
765.114	1242.78
765.297	1240.73
765.481	1222.3
765.664	1265.3
765.847	1197.72
766.03	1207.96
766.213	1230.49
766.397	1138.33
766.58	1083.03
766.763	1242.78
766.946	1179.29
767.129	1248.92
767.312	1199.77
767.495	1226.39
767.678	1136.28
767.861	1189.53
768.044	1179.29
768.227	1232.54
768.41	1167
768.593	1228.44
768.776	1167
768.959	1132.19
769.142	1097.37
769.324	1058.46
769.507	1136.28
769.69	1128.09
769.873	1212.06
770.056	1103.51
770.239	1142.43
770.421	1093.27
770.604	1068.7
770.787	1068.7
770.97	1064.6
771.152	1062.55
771.335	1138.33
771.518	1046.17
771.7	1058.46
771.883	1146.52
772.066	1064.6
772.248	1037.98
772.431	1058.46
772.613	1064.6
772.796	1080.99
772.978	1003.16
773.161	1017.5
773.343	988.83
773.526	972.44
773.708	982.68
773.891	935.58
774.073	984.73
774.256	925.34
774.438	968.35
774.621	951.96
774.803	941.72
774.985	900.76
775.168	994.97
775.35	962.2
775.532	876.19
775.715	972.44
775.897	878.24
776.079	820.89
776.261	960.16
776.444	898.72
776.626	829.09
776.808	853.66
776.99	833.18
777.173	843.42
777.355	861.85
777.537	868
777.719	814.75
777.901	824.99
778.083	755.36
778.265	775.84
778.447	968.35
778.629	892.57
778.811	808.61
778.993	786.08
779.175	835.23
779.357	820.89
779.539	784.03
779.721	749.22
779.903	720.54
780.085	736.93
780.267	691.87
780.449	865.95
780.631	753.31
780.812	765.6
780.994	683.68
781.176	736.93
781.358	687.78
781.54	722.59
781.721	663.2
781.903	655.01
782.085	669.34
782.267	663.2
782.448	652.96
782.63	687.78
782.812	634.53
782.993	642.72
783.175	736.93
783.357	521.89
783.538	702.11
783.72	702.11
783.901	642.72
784.083	716.45
784.264	595.62
784.446	589.47
784.627	585.38
784.809	585.38
784.99	587.43
785.172	634.53
785.353	691.87
785.535	700.06
785.716	589.47
785.897	525.99
786.079	622.24
786.26	550.56
786.441	575.14
786.623	587.43
786.804	513.7
786.985	542.37
787.167	568.99
787.348	568.99
787.529	491.17
787.71	577.19
787.891	571.04
788.073	505.51
788.254	478.88
788.435	554.66
788.616	482.98
788.797	497.32
788.978	521.89
789.159	521.89
789.34	552.61
789.522	482.98
789.703	458.4
789.884	468.64
790.065	509.6
790.246	507.55
790.427	517.79
790.607	566.95
790.788	525.99
790.969	413.35
791.15	468.64
791.331	519.84
791.512	452.26
791.693	427.68
791.874	452.26
792.054	419.49
792.235	454.31
792.416	374.44
792.597	448.16
792.778	429.73
792.958	491.17
793.139	421.54
793.32	464.55
793.5	374.44
793.681	495.27
793.862	417.44
794.042	433.83
794.223	386.72
794.404	421.54
794.584	378.53
794.765	321.19
794.945	392.87
795.126	372.39
795.306	380.58
795.487	343.72
795.667	435.88
795.848	429.73
796.028	329.38
796.209	421.54
796.389	370.34
796.57	351.91
796.75	310.95
796.93	454.31
797.111	306.85
797.291	278.18
797.471	341.67
797.652	349.86
797.832	296.61
798.012	366.25
798.192	372.39
798.373	294.57
798.553	356.01
798.733	300.71
798.913	298.66
799.093	421.54
799.274	343.72
799.454	319.14
799.634	329.38
799.814	302.76
799.994	308.9
800.174	349.86
800.354	392.87
800.534	351.91
800.714	349.86
800.894	347.81
801.074	251.56
801.254	251.56
801.434	349.86
801.614	255.65
801.794	282.28
801.974	700.06
802.154	237.22
802.334	282.28
802.514	323.24
802.693	308.9
802.873	294.57
803.053	337.57
803.233	274.09
803.413	284.33
803.592	269.99
803.772	249.51
803.952	255.65
804.131	237.22
804.311	300.71
804.491	321.19
804.67	341.67
804.85	310.95
805.03	257.7
805.209	261.8
805.389	237.22
805.568	245.41
805.748	253.61
805.928	280.23
806.107	302.76
806.287	319.14
806.466	267.94
806.646	267.94
806.825	288.42
807.004	241.32
807.184	300.71
807.363	251.56
807.543	233.13
807.722	212.65
807.901	204.46
808.081	259.75
808.26	272.04
808.439	286.37
808.619	278.18
808.798	259.75
808.977	263.85
809.156	351.91
809.336	226.98
809.515	249.51
809.694	245.41
809.873	261.8
810.052	239.27
810.231	257.7
810.411	269.99
810.59	265.89
810.769	253.61
810.948	247.46
811.127	226.98
811.306	251.56
811.485	151.21
811.664	317.09
811.843	226.98
812.022	196.26
812.201	243.37
812.38	265.89
812.559	153.26
812.737	179.88
812.916	196.26
813.095	196.26
813.274	245.41
813.453	296.61
813.632	243.37
813.811	251.56
813.989	171.69
814.168	218.79
814.347	214.7
814.526	274.09
814.704	237.22
814.883	263.85
815.062	175.78
815.24	179.88
815.419	122.54
815.598	122.54
815.776	140.97
815.955	181.93
816.133	190.12
816.312	253.61
816.49	190.12
816.669	188.07
816.847	226.98
817.026	198.31
817.204	188.07
817.383	231.08
817.561	155.3
817.74	175.78
817.918	179.88
818.097	112.3
818.275	143.02
818.453	179.88
818.632	173.74
818.81	130.73
818.988	147.11
819.167	239.27
819.345	159.4
819.523	226.98
819.701	231.08
819.879	177.83
820.058	216.74
820.236	143.02
820.414	169.64
820.592	151.21
820.77	229.03
820.948	140.97
821.127	165.54
821.305	122.54
821.483	179.88
821.661	196.26
821.839	126.63
822.017	173.74
822.195	104.11
822.373	167.59
822.551	157.35
822.729	89.77
822.907	100.01
823.085	210.6
823.262	122.54
823.44	165.54
823.618	136.87
823.796	159.4
823.974	130.73
824.152	128.68
824.329	175.78
824.507	192.17
824.685	159.4
824.863	237.22
825.04	114.34
825.218	138.92
825.396	136.87
825.574	198.31
825.751	116.39
825.929	130.73
826.107	171.69
826.284	118.44
826.462	128.68
826.639	143.02
826.817	110.25
826.994	73.39
827.172	132.78
827.349	216.74
827.527	75.43
827.704	149.16
827.882	128.68
828.059	91.82
828.237	104.11
828.414	194.22
828.591	116.39
828.769	171.69
828.946	116.39
829.124	161.45
829.301	124.58
829.478	97.96
829.655	247.46
829.833	143.02
830.01	128.68
830.187	183.98
830.364	93.87
830.542	179.88
830.719	134.82
830.896	83.63
831.073	120.49
831.25	132.78
831.427	149.16
831.604	138.92
831.782	87.72
831.959	147.11
832.136	85.67
832.313	151.21
832.49	120.49
832.667	59.05
832.844	73.39
833.021	71.34
833.198	124.58
833.374	145.06
833.551	85.67
833.728	208.55
833.905	147.11
834.082	87.72
834.259	46.76
834.436	153.26
834.612	104.11
834.789	97.96
834.966	48.81
835.143	91.82
835.319	116.39
835.496	136.87
835.673	114.34
835.85	118.44
836.026	91.82
836.203	147.11
836.38	114.34
836.556	97.96
836.733	24.23
836.909	118.44
837.086	126.63
837.262	106.15
837.439	143.02
837.616	87.72
837.792	100.01
837.968	171.69
838.145	65.19
838.321	48.81
838.498	95.91
838.674	126.63
838.851	87.72
839.027	116.39
839.203	87.72
839.38	89.77
839.556	124.58
839.732	89.77
839.909	97.96
840.085	106.15
840.261	71.34
840.437	153.26
840.614	157.35
840.79	-10.58
840.966	118.44
841.142	40.62
841.318	81.58
841.494	-12.63
841.671	147.11
841.847	69.29
842.023	106.15
842.199	104.11
842.375	177.83
842.551	73.39
842.727	118.44
842.903	112.3
843.079	97.96
843.255	93.87
843.431	134.82
843.607	79.53
843.783	81.58
843.959	153.26
844.134	106.15
844.31	143.02
844.486	-0.34
844.662	36.52
844.838	48.81
845.013	124.58
845.189	83.63
845.365	147.11
845.541	93.87
845.716	75.43
845.892	73.39
846.068	106.15
846.244	118.44
846.419	118.44
846.595	73.39
846.77	61.1
846.946	147.11
847.122	65.19
847.297	71.34
847.473	124.58
847.648	52.91
847.824	40.62
847.999	83.63
848.175	7.85
848.35	122.54
848.526	112.3
848.701	67.24
848.876	77.48
849.052	69.29
849.227	97.96
849.403	87.72
849.578	95.91
849.753	40.62
849.929	65.19
850.104	50.86
850.279	48.81
850.454	38.57
850.63	83.63
850.805	63.15
850.98	54.95
851.155	-14.68
851.33	71.34
851.505	28.33
851.681	69.29
851.856	61.1
852.031	32.43
852.206	73.39
852.381	9.9
852.556	63.15
852.731	114.34
852.906	34.47
853.081	95.91
853.256	93.87
853.431	7.85
853.606	69.29
853.781	73.39
853.956	20.14
854.131	1.71
854.305	36.52
854.48	7.85
854.655	16.04
854.83	54.95
855.005	63.15
855.18	38.57
855.354	-14.68
855.529	36.52
855.704	89.77
855.879	40.62
856.053	69.29
856.228	138.92
856.403	89.77
856.577	48.81
856.752	77.48
856.926	67.24
857.101	30.38
857.276	34.47
857.45	38.57
857.625	36.52
857.799	93.87
857.974	95.91
858.148	40.62
858.323	91.82
858.497	38.57
858.672	5.8
858.846	46.76
859.02	52.91
859.195	46.76
859.369	73.39
859.543	30.38
859.718	87.72
859.892	18.09
860.066	48.81
860.241	69.29
860.415	34.47
860.589	75.43
860.763	46.76
860.938	44.71
861.112	11.95
861.286	63.15
861.46	61.1
861.634	67.24
861.808	26.28
861.982	-18.77
862.157	9.9
862.331	7.85
862.505	110.25
862.679	52.91
862.853	11.95
863.027	52.91
863.201	100.01
863.375	114.34
863.549	120.49
863.722	44.71
863.896	89.77
864.07	112.3
864.244	-14.68
864.418	95.91
864.592	34.47
864.766	40.62
864.939	-22.87
865.113	-24.92
865.287	63.15
865.461	42.67
865.634	54.95
865.808	85.67
865.982	69.29
866.156	40.62
866.329	36.52
866.503	116.39
866.676	71.34
866.85	50.86
867.024	42.67
867.197	75.43
867.371	44.71
867.544	-18.77
867.718	46.76
867.891	57
868.065	46.76
868.238	61.1
868.412	93.87
868.585	97.96
868.759	34.47
868.932	-0.34
869.105	7.85
869.279	20.14
869.452	54.95
869.625	75.43
869.799	54.95
869.972	36.52
870.145	-33.11
870.319	28.33
870.492	75.43
870.665	87.72
870.838	32.43
871.011	-8.53
871.185	73.39
871.358	1.71
871.531	110.25
871.704	67.24
871.877	87.72
872.05	-8.53
872.223	42.67
872.396	79.53
872.569	52.91
872.742	-59.73
872.915	9.9
873.088	-31.06
873.261	7.85
873.434	9.9
873.607	46.76
873.78	46.76
873.953	1.71
874.126	57
874.299	69.29
874.471	54.95
874.644	83.63
874.817	63.15
874.99	52.91
875.163	30.38
875.335	108.2
875.508	3.75
875.681	36.52
875.853	63.15
876.026	5.8
876.199	71.34
876.371	97.96
876.544	52.91
876.717	-4.44
876.889	-69.97
877.062	40.62
877.234	20.14
877.407	50.86
877.579	16.04
877.752	26.28
877.924	36.52
878.097	48.81
878.269	20.14
878.442	102.06
878.614	-4.44
878.786	-4.44
878.959	38.57
879.131	52.91
879.303	26.28
879.476	24.23
879.648	46.76
879.82	40.62
879.993	40.62
880.165	38.57
880.337	75.43
880.509	3.75
880.681	63.15
880.854	-4.44
881.026	61.1
881.198	95.91
881.37	30.38
881.542	-29.01
881.714	24.23
881.886	69.29
882.058	34.47
882.23	-16.73
882.402	-63.83
882.574	40.62
882.746	83.63
882.918	-12.63
883.09	16.04
883.262	-45.4
883.434	69.29
883.606	-39.25
883.778	40.62
883.95	-4.44
884.122	65.19
884.293	34.47
884.465	48.81
884.637	34.47
884.809	59.05
884.98	59.05
885.152	69.29
885.324	54.95
885.496	-4.44
885.667	1.71
885.839	-16.73
886.011	79.53
886.182	30.38
886.354	38.57
886.525	67.24
886.697	91.82
886.869	-10.58
887.04	75.43
887.212	30.38
887.383	79.53
887.555	13.99
887.726	-0.34
887.897	1.71
888.069	69.29
888.24	40.62
888.412	3.75
888.583	28.33
888.754	-14.68
888.926	-0.34
889.097	59.05
889.268	-31.06
889.44	28.33
889.611	11.95
889.782	-31.06
889.953	-29.01
890.125	77.48
890.296	-39.25
890.467	18.09
890.638	46.76
890.809	97.96
890.98	18.09
891.151	89.77
891.323	85.67
891.494	30.38
891.665	5.8
891.836	46.76
892.007	73.39
892.178	34.47
892.349	24.23
892.52	-43.35
892.691	124.58
892.862	59.05
893.032	-14.68
893.203	24.23
893.374	9.9
893.545	95.91
893.716	34.47
893.887	28.33
894.057	30.38
894.228	93.87
894.399	22.19
894.57	16.04
894.74	32.43
894.911	54.95
895.082	36.52
895.253	46.76
895.423	-24.92
895.594	67.24
895.764	38.57
895.935	-26.96
896.106	46.76
896.276	44.71
896.447	28.33
896.617	54.95
896.788	-41.3
896.958	-0.34
897.129	-10.58
897.299	83.63
897.47	69.29
897.64	3.75
897.81	-61.78
897.981	-26.96
898.151	18.09
898.322	-2.39
898.492	-0.34
898.662	-24.92
898.832	54.95
899.003	5.8
899.173	1.71
899.343	52.91
899.513	69.29
