Data from USB4F104151__28__12-27-13-702.txt Node

Date: Fri Mar 14 12:27:13 EDT 2025
User: louis
Spectrometer: USB4F10415
Trigger mode: 4
Integration Time (sec): 2.000000E-2
Scans to average: 1
Electric dark correction enabled: true
Nonlinearity correction enabled: false
Boxcar width: 0
XAxis mode: Wavelengths
Number of Pixels in Spectrum: 3648
>>>>>Begin Spectral Data<<<<<
178.204	-92.67
178.424	-92.67
178.644	-92.67
178.864	-86.53
179.084	-68.09
179.304	22.02
179.524	-59.9
179.744	9.73
179.964	11.78
180.184	54.78
180.404	28.16
180.624	-41.47
180.844	56.83
181.064	-27.14
181.283	1.54
181.503	-57.86
181.723	1.54
181.943	-16.9
182.163	-12.8
182.383	3.58
182.602	-76.29
182.822	62.98
183.042	-16.9
183.262	50.69
183.482	-35.33
183.701	3.58
183.921	19.97
184.141	-12.8
184.361	40.45
184.58	-43.52
184.8	40.45
185.02	-49.66
185.239	83.45
185.459	-20.99
185.679	-49.66
185.898	-16.9
186.118	-23.04
186.338	-29.18
186.557	11.78
186.777	52.74
186.997	-12.8
187.216	-49.66
187.436	22.02
187.655	42.5
187.875	60.93
188.095	19.97
188.314	118.27
188.534	15.87
188.753	-41.47
188.973	13.82
189.192	-0.51
189.412	-4.61
189.631	-6.66
189.851	-14.85
190.07	87.55
190.29	-23.04
190.509	44.54
190.729	-29.18
190.948	24.06
191.168	97.79
191.387	11.78
191.607	-80.38
191.826	-20.99
192.045	-27.14
192.265	34.3
192.484	15.87
192.704	40.45
192.923	-33.28
193.142	85.5
193.362	-2.56
193.581	-8.7
193.8	-45.57
194.02	85.5
194.239	-18.94
194.458	22.02
194.678	5.63
194.897	-29.18
195.116	15.87
195.335	73.21
195.555	62.98
195.774	11.78
195.993	19.97
196.212	30.21
196.432	-4.61
196.651	-4.61
196.87	-23.04
197.089	13.82
197.308	-8.7
197.528	-8.7
197.747	19.97
197.966	13.82
198.185	7.68
198.404	-35.33
198.623	11.78
198.842	5.63
199.062	44.54
199.281	-55.81
199.5	-4.61
199.719	17.92
199.938	-16.9
200.157	44.54
200.376	-35.33
200.595	42.5
200.814	11.78
201.033	15.87
201.252	-10.75
201.471	-51.71
201.69	3.58
201.909	-25.09
202.128	15.87
202.347	-23.04
202.566	19.97
202.785	85.5
203.004	-0.51
203.223	91.65
203.442	-23.04
203.661	9.73
203.879	-51.71
204.098	-14.85
204.317	-6.66
204.536	60.93
204.755	-6.66
204.974	-0.51
205.193	1.54
205.411	19.97
205.63	58.88
205.849	7.68
206.068	-88.57
206.287	22.02
206.505	11.78
206.724	-33.28
206.943	-80.38
207.162	-16.9
207.381	-6.66
207.599	52.74
207.818	-10.75
208.037	-4.61
208.255	26.11
208.474	54.78
208.693	56.83
208.911	34.3
209.13	-0.51
209.349	71.17
209.567	19.97
209.786	7.68
210.005	77.31
210.223	56.83
210.442	-8.7
210.661	-47.62
210.879	-45.57
211.098	1.54
211.316	-23.04
211.535	38.4
211.753	-4.61
211.972	30.21
212.191	7.68
212.409	-27.14
212.628	48.64
212.846	-66.05
213.065	-49.66
213.283	48.64
213.502	-70.14
213.72	-49.66
213.938	11.78
214.157	-12.8
214.375	19.97
214.594	-27.14
214.812	28.16
215.031	11.78
215.249	28.16
215.467	-14.85
215.686	48.64
215.904	40.45
216.122	13.82
216.341	95.74
216.559	67.07
216.778	-41.47
216.996	-4.61
217.214	-33.28
217.432	5.63
217.651	-6.66
217.869	-12.8
218.087	-2.56
218.306	-6.66
218.524	-2.56
218.742	13.82
218.96	19.97
219.179	87.55
219.397	3.58
219.615	79.36
219.833	-20.99
220.051	46.59
220.27	-20.99
220.488	-8.7
220.706	65.02
220.924	-125.44
221.142	-31.23
221.36	13.82
221.578	-14.85
221.796	17.92
222.015	-29.18
222.233	-74.24
222.451	-8.7
222.669	-66.05
222.887	9.73
223.105	75.26
223.323	-4.61
223.541	5.63
223.759	38.4
223.977	-2.56
224.195	67.07
224.413	-12.8
224.631	3.58
224.849	-0.51
225.067	34.3
225.285	36.35
225.503	3.58
225.721	22.02
225.939	-29.18
226.157	-2.56
226.375	11.78
226.592	-2.56
226.81	26.11
227.028	24.06
227.246	62.98
227.464	34.3
227.682	54.78
227.9	-27.14
228.117	24.06
228.335	32.26
228.553	26.11
228.771	75.26
228.989	22.02
229.206	-39.42
229.424	-2.56
229.642	26.11
229.86	30.21
230.077	38.4
230.295	-55.81
230.513	62.98
230.731	32.26
230.948	36.35
231.166	-16.9
231.384	26.11
231.601	-37.38
231.819	58.88
232.037	-4.61
232.254	-0.51
232.472	-12.8
232.689	60.93
232.907	11.78
233.125	-6.66
233.342	-14.85
233.56	24.06
233.777	65.02
233.995	34.3
234.213	-2.56
234.43	17.92
234.648	15.87
234.865	-20.99
235.083	15.87
235.3	-2.56
235.518	56.83
235.735	44.54
235.953	46.59
236.17	-4.61
236.388	-10.75
236.605	24.06
236.822	30.21
237.04	48.64
237.257	105.98
237.475	46.59
237.692	-12.8
237.909	52.74
238.127	62.98
238.344	40.45
238.562	5.63
238.779	-20.99
238.996	26.11
239.214	19.97
239.431	118.27
239.648	-47.62
239.865	24.06
240.083	15.87
240.3	54.78
240.517	-59.9
240.735	50.69
240.952	79.36
241.169	26.11
241.386	44.54
241.603	-2.56
241.821	-27.14
242.038	-29.18
242.255	36.35
242.472	30.21
242.689	-8.7
242.907	-16.9
243.124	-2.56
243.341	26.11
243.558	36.35
243.775	-43.52
243.992	9.73
244.209	24.06
244.426	5.63
244.643	44.54
244.86	15.87
245.078	-2.56
245.295	60.93
245.512	-33.28
245.729	-8.7
245.946	52.74
246.163	13.82
246.38	58.88
246.597	62.98
246.814	5.63
247.031	-14.85
247.248	56.83
247.464	50.69
247.681	-57.86
247.898	56.83
248.115	67.07
248.332	-72.19
248.549	22.02
248.766	17.92
248.983	36.35
249.2	24.06
249.417	52.74
249.633	34.3
249.85	58.88
250.067	28.16
250.284	-6.66
250.501	-16.9
250.717	103.93
250.934	17.92
251.151	56.83
251.368	22.02
251.585	22.02
251.801	-27.14
252.018	-29.18
252.235	1.54
252.451	3.58
252.668	110.08
252.885	-16.9
253.102	42.5
253.318	9.73
253.535	36.35
253.752	36.35
253.968	-35.33
254.185	34.3
254.401	54.78
254.618	-4.61
254.835	-78.33
255.051	36.35
255.268	22.02
255.484	24.06
255.701	34.3
255.917	65.02
256.134	-8.7
256.351	65.02
256.567	30.21
256.784	-27.14
257	24.06
257.217	26.11
257.433	-23.04
257.65	-12.8
257.866	34.3
258.082	-8.7
258.299	19.97
258.515	38.4
258.732	-33.28
258.948	7.68
259.165	-6.66
259.381	-16.9
259.597	17.92
259.814	-6.66
260.03	-27.14
260.246	46.59
260.463	22.02
260.679	38.4
260.895	32.26
261.112	28.16
261.328	1.54
261.544	-29.18
261.761	3.58
261.977	-37.38
262.193	-39.42
262.409	26.11
262.626	44.54
262.842	-23.04
263.058	-35.33
263.274	93.69
263.49	97.79
263.707	42.5
263.923	7.68
264.139	-68.09
264.355	-0.51
264.571	75.26
264.787	-4.61
265.004	38.4
265.22	28.16
265.436	38.4
265.652	52.74
265.868	3.58
266.084	19.97
266.3	-6.66
266.516	7.68
266.732	52.74
266.948	28.16
267.164	-18.94
267.38	77.31
267.596	40.45
267.812	89.6
268.028	-12.8
268.244	-27.14
268.46	7.68
268.676	-23.04
268.892	-14.85
269.108	-43.52
269.324	-8.7
269.54	3.58
269.756	1.54
269.972	26.11
270.188	-49.66
270.403	9.73
270.619	71.17
270.835	11.78
271.051	-6.66
271.267	13.82
271.483	75.26
271.698	7.68
271.914	65.02
272.13	-25.09
272.346	-6.66
272.562	1.54
272.777	85.5
272.993	-35.33
273.209	24.06
273.425	13.82
273.64	38.4
273.856	50.69
274.072	-14.85
274.287	-23.04
274.503	-20.99
274.719	30.21
274.934	-10.75
275.15	19.97
275.366	-29.18
275.581	-2.56
275.797	-25.09
276.012	-35.33
276.228	-10.75
276.444	-61.95
276.659	28.16
276.875	-31.23
277.09	3.58
277.306	15.87
277.521	9.73
277.737	30.21
277.952	30.21
278.168	-41.47
278.383	1.54
278.599	79.36
278.814	60.93
279.03	40.45
279.245	13.82
279.461	-51.71
279.676	103.93
279.892	-29.18
280.107	-14.85
280.322	-23.04
280.538	26.11
280.753	-29.18
280.969	77.31
281.184	67.07
281.399	58.88
281.615	-47.62
281.83	-39.42
282.045	42.5
282.26	46.59
282.476	-37.38
282.691	22.02
282.906	28.16
283.122	22.02
283.337	22.02
283.552	11.78
283.767	83.45
283.983	44.54
284.198	36.35
284.413	-25.09
284.628	-41.47
284.843	7.68
285.058	-2.56
285.274	26.11
285.489	-70.14
285.704	48.64
285.919	42.5
286.134	-37.38
286.349	-14.85
286.564	-12.8
286.779	32.26
286.995	-41.47
287.21	-23.04
287.425	-47.62
287.64	15.87
287.855	60.93
288.07	48.64
288.285	32.26
288.5	79.36
288.715	62.98
288.93	-29.18
289.145	32.26
289.36	1.54
289.575	-6.66
289.79	-10.75
290.004	-88.57
290.219	44.54
290.434	1.54
290.649	58.88
290.864	-4.61
291.079	-23.04
291.294	73.21
291.509	-2.56
291.724	15.87
291.938	56.83
292.153	15.87
292.368	19.97
292.583	130.56
292.798	-0.51
293.012	-33.28
293.227	24.06
293.442	28.16
293.657	36.35
293.871	11.78
294.086	34.3
294.301	79.36
294.516	89.6
294.73	40.45
294.945	-35.33
295.16	73.21
295.374	22.02
295.589	105.98
295.804	-8.7
296.018	73.21
296.233	89.6
296.447	85.5
296.662	71.17
296.877	32.26
297.091	19.97
297.306	-4.61
297.52	-18.94
297.735	13.82
297.949	-10.75
298.164	24.06
298.378	15.87
298.593	36.35
298.807	3.58
299.022	24.06
299.236	73.21
299.451	7.68
299.665	-0.51
299.88	-33.28
300.094	-4.61
300.309	58.88
300.523	50.69
300.737	60.93
300.952	24.06
301.166	-51.71
301.381	-8.7
301.595	73.21
301.809	40.45
302.024	-0.51
302.238	52.74
302.452	44.54
302.667	65.02
302.881	-27.14
303.095	19.97
303.309	3.58
303.524	42.5
303.738	11.78
303.952	30.21
304.166	50.69
304.381	-43.52
304.595	85.5
304.809	-0.51
305.023	52.74
305.237	9.73
305.452	67.07
305.666	-4.61
305.88	-0.51
306.094	54.78
306.308	38.4
306.522	32.26
306.736	22.02
306.95	17.92
307.164	-4.61
307.379	-16.9
307.593	-10.75
307.807	83.45
308.021	26.11
308.235	26.11
308.449	-35.33
308.663	34.3
308.877	89.6
309.091	71.17
309.305	-6.66
309.519	-33.28
309.733	77.31
309.947	-96.77
310.161	-29.18
310.374	62.98
310.588	83.45
310.802	28.16
311.016	34.3
311.23	-35.33
311.444	7.68
311.658	-2.56
311.872	19.97
312.085	42.5
312.299	-10.75
312.513	62.98
312.727	22.02
312.941	1.54
313.154	-33.28
313.368	93.69
313.582	1.54
313.796	30.21
314.009	-41.47
314.223	77.31
314.437	44.54
314.651	-0.51
314.864	11.78
315.078	-27.14
315.292	30.21
315.505	-18.94
315.719	-10.75
315.933	11.78
316.146	-14.85
316.36	-18.94
316.573	24.06
316.787	89.6
317.001	65.02
317.214	42.5
317.428	46.59
317.641	42.5
317.855	-59.9
318.068	-18.94
318.282	28.16
318.495	89.6
318.709	32.26
318.922	13.82
319.136	48.64
319.349	24.06
319.563	42.5
319.776	34.3
319.99	58.88
320.203	-14.85
320.417	19.97
320.63	-20.99
320.843	87.55
321.057	36.35
321.27	69.12
321.483	26.11
321.697	11.78
321.91	50.69
322.124	26.11
322.337	7.68
322.55	-61.95
322.763	-16.9
322.977	71.17
323.19	56.83
323.403	65.02
323.617	62.98
323.83	32.26
324.043	-6.66
324.256	-18.94
324.469	44.54
324.683	22.02
324.896	32.26
325.109	-23.04
325.322	-14.85
325.535	67.07
325.748	-4.61
325.962	34.3
326.175	40.45
326.388	52.74
326.601	81.41
326.814	-25.09
327.027	9.73
327.24	65.02
327.453	-10.75
327.666	36.35
327.879	7.68
328.092	-8.7
328.305	22.02
328.518	34.3
328.731	32.26
328.944	36.35
329.157	60.93
329.37	15.87
329.583	52.74
329.796	112.13
330.009	62.98
330.222	30.21
330.435	40.45
330.648	91.65
330.861	44.54
331.073	58.88
331.286	9.73
331.499	32.26
331.712	7.68
331.925	22.02
332.138	44.54
332.35	71.17
332.563	-10.75
332.776	54.78
332.989	-41.47
333.202	5.63
333.414	-10.75
333.627	32.26
333.84	103.93
334.053	-2.56
334.265	9.73
334.478	69.12
334.691	99.84
334.903	26.11
335.116	-6.66
335.329	22.02
335.541	32.26
335.754	7.68
335.966	46.59
336.179	11.78
336.392	50.69
336.604	1.54
336.817	-41.47
337.029	67.07
337.242	-29.18
337.454	15.87
337.667	42.5
337.88	62.98
338.092	38.4
338.305	65.02
338.517	40.45
338.729	-37.38
338.942	58.88
339.154	15.87
339.367	1.54
339.579	97.79
339.792	34.3
340.004	36.35
340.217	-27.14
340.429	-10.75
340.641	5.63
340.854	-0.51
341.066	22.02
341.278	132.61
341.491	108.03
341.703	65.02
341.915	83.45
342.128	52.74
342.34	50.69
342.552	1.54
342.764	30.21
342.977	85.5
343.189	65.02
343.401	-4.61
343.613	-45.57
343.826	36.35
344.038	-25.09
344.25	-16.9
344.462	-12.8
344.674	46.59
344.886	9.73
345.099	60.93
345.311	112.13
345.523	7.68
345.735	30.21
345.947	65.02
346.159	9.73
346.371	5.63
346.583	1.54
346.795	44.54
347.007	28.16
347.219	48.64
347.431	-6.66
347.643	-2.56
347.855	48.64
348.067	-51.71
348.279	89.6
348.491	75.26
348.703	50.69
348.915	44.54
349.127	3.58
349.339	44.54
349.551	-33.28
349.763	-0.51
349.975	-2.56
350.187	38.4
350.399	108.03
350.61	15.87
350.822	42.5
351.034	46.59
351.246	5.63
351.458	130.56
351.669	-25.09
351.881	69.12
352.093	58.88
352.305	7.68
352.517	34.3
352.728	17.92
352.94	22.02
353.152	60.93
353.363	38.4
353.575	-31.23
353.787	44.54
353.999	9.73
354.21	67.07
354.422	3.58
354.633	-47.62
354.845	13.82
355.057	56.83
355.268	67.07
355.48	60.93
355.692	-66.05
355.903	93.69
356.115	9.73
356.326	-68.09
356.538	26.11
356.749	58.88
356.961	1.54
357.172	105.98
357.384	-16.9
357.595	60.93
357.807	-45.57
358.018	-20.99
358.23	44.54
358.441	97.79
358.653	40.45
358.864	71.17
359.075	36.35
359.287	83.45
359.498	17.92
359.709	-25.09
359.921	42.5
360.132	67.07
360.344	-31.23
360.555	-8.7
360.766	36.35
360.977	46.59
361.189	24.06
361.4	83.45
361.611	77.31
361.823	146.94
362.034	5.63
362.245	44.54
362.456	17.92
362.667	30.21
362.879	11.78
363.09	40.45
363.301	73.21
363.512	7.68
363.723	56.83
363.935	87.55
364.146	22.02
364.357	3.58
364.568	73.21
364.779	-20.99
364.99	17.92
365.201	93.69
365.412	42.5
365.623	24.06
365.834	15.87
366.045	-64
366.256	50.69
366.467	83.45
366.678	65.02
366.889	112.13
367.1	5.63
367.311	52.74
367.522	40.45
367.733	52.74
367.944	60.93
368.155	58.88
368.366	36.35
368.577	-29.18
368.788	13.82
368.999	85.5
369.209	-2.56
369.42	34.3
369.631	48.64
369.842	19.97
370.053	-0.51
370.264	36.35
370.474	7.68
370.685	-25.09
370.896	97.79
371.107	101.89
371.317	67.07
371.528	22.02
371.739	65.02
371.95	73.21
372.16	36.35
372.371	58.88
372.582	58.88
372.792	54.78
373.003	44.54
373.214	-2.56
373.424	50.69
373.635	-31.23
373.846	62.98
374.056	-14.85
374.267	9.73
374.477	-10.75
374.688	114.17
374.898	36.35
375.109	-8.7
375.319	50.69
375.53	46.59
375.74	28.16
375.951	22.02
376.161	91.65
376.372	114.17
376.582	19.97
376.793	26.11
377.003	-4.61
377.214	1.54
377.424	65.02
377.635	101.89
377.845	-12.8
378.055	103.93
378.266	50.69
378.476	5.63
378.686	85.5
378.897	124.41
379.107	48.64
379.317	38.4
379.528	24.06
379.738	56.83
379.948	28.16
380.158	-14.85
380.369	83.45
380.579	54.78
380.789	48.64
380.999	30.21
381.21	50.69
381.42	97.79
381.63	28.16
381.84	54.78
382.05	40.45
382.261	81.41
382.471	62.98
382.681	85.5
382.891	22.02
383.101	73.21
383.311	91.65
383.521	48.64
383.731	58.88
383.941	97.79
384.151	15.87
384.361	38.4
384.571	-10.75
384.781	91.65
384.991	132.61
385.201	103.93
385.411	44.54
385.621	58.88
385.831	71.17
386.041	48.64
386.251	46.59
386.461	73.21
386.671	44.54
386.881	73.21
387.091	-10.75
387.301	17.92
387.511	13.82
387.72	7.68
387.93	65.02
388.14	40.45
388.35	56.83
388.56	24.06
388.769	-16.9
388.979	130.56
389.189	62.98
389.399	1.54
389.609	105.98
389.818	13.82
390.028	46.59
390.238	83.45
390.447	60.93
390.657	65.02
390.867	15.87
391.076	62.98
391.286	95.74
391.496	26.11
391.705	110.08
391.915	36.35
392.125	56.83
392.334	50.69
392.544	75.26
392.753	7.68
392.963	75.26
393.172	79.36
393.382	48.64
393.591	79.36
393.801	-6.66
394.01	136.7
394.22	130.56
394.429	52.74
394.639	46.59
394.848	136.7
395.058	62.98
395.267	15.87
395.477	44.54
395.686	75.26
395.895	105.98
396.105	34.3
396.314	93.69
396.524	116.22
396.733	83.45
396.942	95.74
397.152	118.27
397.361	140.8
397.57	91.65
397.78	167.42
397.989	71.17
398.198	83.45
398.407	79.36
398.617	130.56
398.826	132.61
399.035	85.5
399.244	122.37
399.453	40.45
399.663	108.03
399.872	95.74
400.081	151.04
400.29	114.17
400.499	40.45
400.708	97.79
400.917	118.27
401.127	87.55
401.336	124.41
401.545	202.24
401.754	134.65
401.963	114.17
402.172	112.13
402.381	124.41
402.59	103.93
402.799	153.09
403.008	148.99
403.217	124.41
403.426	71.17
403.635	89.6
403.844	202.24
404.053	177.66
404.262	208.38
404.471	247.29
404.68	103.93
404.888	161.28
405.097	153.09
405.306	169.47
405.515	159.23
405.724	124.41
405.933	196.09
406.142	214.52
406.35	148.99
406.559	230.91
406.768	210.43
406.977	200.19
407.185	261.63
407.394	167.42
407.603	216.57
407.812	247.29
408.02	253.44
408.229	249.34
408.438	212.48
408.646	267.77
408.855	275.96
409.064	325.12
409.272	265.72
409.481	398.84
409.69	327.16
409.898	239.1
410.107	411.13
410.315	382.46
410.524	333.31
410.733	396.79
410.941	294.4
411.15	478.71
411.358	462.33
411.567	382.46
411.775	398.84
411.984	433.66
412.192	513.53
412.401	540.15
412.609	517.62
412.818	556.54
413.026	558.58
413.234	628.21
413.443	556.54
413.651	546.3
413.86	626.17
414.068	622.07
414.276	675.32
414.485	734.71
414.693	708.09
414.901	886.26
415.11	777.72
415.318	820.72
415.526	796.15
415.734	857.59
415.943	853.49
416.151	876.02
416.359	841.2
416.567	953.84
416.776	1019.38
416.984	1093.1
417.192	1179.12
417.4	1078.77
417.608	1082.86
417.817	1107.44
418.025	1156.59
418.233	1242.61
418.441	1279.47
418.649	1271.28
418.857	1496.55
419.065	1619.43
419.273	1394.15
419.481	1523.18
419.689	1596.9
419.897	1746.41
420.105	1660.39
420.313	1687.01
420.521	1818.08
420.729	1934.82
420.937	1920.48
421.145	2061.79
421.353	2158.05
421.561	2299.36
421.769	2115.04
421.977	2414.04
422.185	2244.06
422.393	2510.3
422.601	2473.43
422.809	2549.21
423.017	2588.12
423.224	2817.49
423.432	2827.73
423.64	2858.45
423.848	3085.78
424.056	3149.26
424.263	3284.43
424.471	3325.39
424.679	3317.2
424.887	3464.65
425.094	3651.02
425.302	3673.54
425.51	3732.94
425.718	3921.35
425.925	4064.71
426.133	4144.58
426.341	4459.96
426.548	4439.48
426.756	4631.99
426.964	4586.94
427.171	4892.09
427.379	4959.67
427.586	5158.32
427.794	5117.36
428.001	5467.56
428.209	5682.6
428.417	5594.54
428.624	5950.89
428.832	6079.91
429.039	6063.52
429.247	5928.36
429.454	6462.88
429.662	6897.05
429.869	6569.37
430.076	7034.26
430.284	6716.83
430.491	6964.63
430.699	7366.03
430.906	7548.3
431.114	7515.53
431.321	7849.35
431.528	8097.16
431.736	8615.29
431.943	9018.74
432.15	8629.63
432.358	8668.54
432.565	9254.26
432.772	9158
432.979	9573.74
433.187	9975.14
433.394	10175.84
433.601	10673.5
433.808	10708.32
434.016	10589.53
434.223	11302.23
434.43	11724.11
434.637	11556.18
434.844	12180.81
435.052	12498.24
435.259	12342.6
435.466	12774.72
435.673	12275.01
435.88	12971.32
436.087	13976.87
436.294	13847.85
436.501	13647.15
436.708	13808.94
436.915	14363.94
437.122	14968.09
437.329	15238.42
437.537	15273.24
437.743	15916.3
437.95	15637.78
438.157	16508.16
438.364	16872.7
438.571	16805.12
438.778	17067.26
438.985	18676.96
439.192	17747.19
439.399	18418.92
439.606	17908.97
439.813	18924.77
440.02	20266.19
440.227	19809.49
440.433	19692.76
440.64	20444.36
440.847	20436.17
441.054	20843.71
441.261	22154.41
441.467	22015.15
441.674	22238.38
441.881	22987.94
442.088	22979.75
442.294	22838.44
442.501	23694.49
442.708	23835.8
442.914	24743.05
443.121	25848.95
443.328	25506.94
443.534	27161.7
443.741	26428.52
443.948	25941.11
444.154	27853.91
444.361	27653.21
444.568	27976.79
444.774	27905.11
444.981	28353.62
445.187	29176.9
445.394	30176.31
445.6	30051.38
445.807	32807.95
446.013	31370.27
446.22	32191.51
446.426	33461.25
446.633	33641.47
446.839	34714.61
447.046	33166.34
447.252	34995.18
447.459	35140.58
447.665	35222.5
447.871	36649.94
448.078	38366.13
448.284	36277.21
448.491	37536.71
448.697	38761.39
448.903	39463.85
449.11	39582.63
449.316	38978.48
449.522	39510.95
449.728	40481.69
449.935	41221
450.141	40760.21
450.347	42171.26
450.553	40766.35
450.76	41098.12
450.966	42548.09
451.172	42105.73
451.378	42980.21
451.584	42056.57
451.791	43205.48
451.997	42926.96
452.203	44249.95
452.409	43783.01
452.615	43481.96
452.821	42279.8
453.027	42038.14
453.233	43887.46
453.44	42214.27
453.646	42697.59
453.852	42767.22
454.058	44039.01
454.264	42208.12
454.47	43225.96
454.676	42392.44
454.882	43279.21
455.088	39445.41
455.294	40405.91
455.5	41083.79
455.705	41268.11
455.911	39777.19
456.117	39189.42
456.323	38593.46
456.529	36651.98
456.735	38204.35
456.941	37055.43
457.147	36611.03
457.352	35474.4
457.558	35101.67
457.764	35091.43
457.97	34362.36
458.176	33629.18
458.381	33868.8
458.587	31878.17
458.793	32117.78
458.999	30422.06
459.204	32717.84
459.41	32105.49
459.616	29537.34
459.821	29385.79
460.027	29566.01
460.233	28900.42
460.438	27659.35
460.644	27999.32
460.85	26330.22
461.055	26244.21
461.261	26094.71
461.466	24384.65
461.672	23100.58
461.878	25412.73
462.083	23166.11
462.289	22996.13
462.494	22793.38
462.7	21656.76
462.905	21228.73
463.111	21836.98
463.316	22228.14
463.522	21605.56
463.727	21748.92
463.932	21662.9
464.138	21406.91
464.343	21400.76
464.549	20788.42
464.754	21652.66
464.959	21304.51
465.165	21204.16
465.37	20229.32
465.575	19868.88
465.781	20538.57
465.986	20776.13
466.191	19887.31
466.397	19193.05
466.602	18533.61
466.807	19498.2
467.012	19274.97
467.218	19373.27
467.423	19041.5
467.628	19338.46
467.833	20036.81
468.038	18992.35
468.244	18666.72
468.449	19447
468.654	18644.2
468.859	18431.21
469.064	18433.25
469.269	17882.35
469.474	17825.01
469.679	18197.74
469.885	17642.74
470.09	17978.61
470.295	17845.49
470.5	17421.56
470.705	17792.24
470.91	17130.75
471.115	17126.65
471.32	17259.77
471.525	17038.59
471.73	16628.99
471.935	16966.91
472.139	15990.03
472.344	16362.76
472.549	16137.48
472.754	16104.71
472.959	15686.93
473.164	15320.34
473.369	15156.5
473.574	15758.61
473.778	15361.3
473.983	15334.68
474.188	15326.49
474.393	14628.13
474.598	14841.12
474.802	14609.7
475.007	14396.71
475.212	14474.53
475.417	13937.96
475.621	13878.57
475.826	14126.38
476.031	13817.13
476.235	13407.54
476.44	13835.56
476.645	13331.76
476.849	13532.47
477.054	13215.03
477.259	13018.43
477.463	13122.87
477.668	12711.23
477.872	12756.29
478.077	12641.6
478.282	12246.34
478.486	12244.29
478.691	12260.68
478.895	12240.2
479.1	12113.22
479.304	12064.07
479.509	11801.93
479.713	12047.69
479.918	11685.2
480.122	11699.53
480.326	11717.97
480.531	11771.21
480.735	11543.89
480.94	11384.15
481.144	12047.69
481.348	11509.07
481.553	11402.58
481.757	11128.15
481.961	11173.21
482.166	11590.99
482.37	11400.53
482.574	11302.23
482.778	11253.08
482.983	11361.62
483.187	11390.29
483.391	11457.87
483.595	11183.45
483.8	11199.83
484.004	11154.77
484.208	11451.73
484.412	11222.36
484.616	11361.62
484.821	11195.73
485.025	10925.4
485.229	11378
485.433	11171.16
485.637	11052.38
485.841	10974.55
486.045	10937.69
486.249	11378
486.453	11314.52
486.657	11234.64
486.861	11535.7
487.065	11109.72
487.269	11134.29
487.473	10925.4
487.677	11378
487.881	11199.83
488.085	11230.55
488.289	11052.38
488.493	11208.02
488.697	11285.84
488.901	11373.91
489.105	11431.25
489.309	11173.21
489.512	11507.02
489.716	11273.56
489.92	11275.6
490.124	11197.78
490.328	11513.17
490.531	11492.69
490.735	11613.52
490.939	11564.37
491.143	11660.62
491.346	11748.68
491.55	11814.22
491.754	11453.78
491.958	11973.96
492.161	11785.55
492.365	11863.37
492.569	11961.67
492.772	11816.27
492.976	12113.22
493.18	12008.78
493.383	12258.63
493.587	12295.49
493.79	12326.21
493.994	11887.95
494.197	12326.21
494.401	12594.5
494.605	12471.62
494.808	12752.19
495.012	12684.61
495.215	12850.49
495.419	12725.57
495.622	12754.24
495.825	13104.44
496.029	13102.39
496.232	13411.64
496.436	13296.95
496.639	13468.98
496.843	13684.02
497.046	13737.26
497.249	13841.71
497.453	14023.98
497.656	13972.78
497.859	14349.61
498.063	14507.3
498.266	14781.73
498.469	14708
498.673	14775.58
498.876	14939.42
499.079	15004.96
499.282	15082.78
499.485	15486.23
499.689	15492.37
499.892	15701.26
500.095	15756.56
500.298	16389.38
500.501	15975.69
500.705	16719.1
500.908	16598.27
501.111	16479.49
501.314	17169.66
501.517	17198.33
501.72	17261.82
501.923	17237.24
502.126	17761.52
502.329	17947.89
502.532	18076.91
502.735	18021.61
502.938	18668.77
503.141	18576.61
503.344	19061.98
503.547	18805.99
503.75	19297.5
503.953	19324.12
504.156	19825.87
504.359	19649.75
504.562	19750.1
504.765	20321.48
504.968	20524.23
505.17	20593.86
505.373	20722.88
505.576	21105.85
505.779	21079.23
505.982	21511.35
506.185	21978.29
506.387	21789.88
506.59	22428.84
506.793	22529.19
506.996	22551.72
507.198	22934.69
507.401	22760.61
507.604	23276.7
507.807	23436.44
508.009	24046.74
508.212	24075.41
508.415	24593.54
508.617	24448.14
508.82	25181.31
509.022	24568.97
509.225	25273.47
509.428	25463.93
509.63	25711.74
509.833	25779.32
510.035	26236.02
510.238	26299.5
510.44	26866.79
510.643	26860.65
510.845	26879.08
511.048	27112.55
511.25	27479.13
511.453	27436.13
511.655	28783.69
511.858	28195.92
512.06	28251.22
512.262	28879.94
512.465	29008.97
512.667	29117.51
512.87	29840.44
513.072	29473.85
513.274	30233.65
513.477	30192.69
513.679	30901.29
513.881	31263.78
514.084	30811.18
514.286	31034.41
514.488	31564.83
514.69	32304.15
514.893	32322.58
515.095	32207.89
515.297	32830.48
515.499	33160.2
515.701	33133.57
515.904	33811.45
516.106	33637.37
516.308	34274.29
516.51	34520.05
516.712	34434.03
516.914	35021.8
517.116	35732.45
517.318	35316.71
517.52	35541.99
517.722	36205.53
517.925	36269.01
518.127	37039.05
518.329	36578.26
518.531	36846.54
518.733	37168.07
518.935	37549
519.136	37759.94
519.338	38343.61
519.54	38525.88
519.742	39070.64
519.944	38919.09
520.146	39623.59
520.348	39291.82
520.55	39623.59
520.752	39926.69
520.954	40639.38
521.155	39930.78
521.357	41243.53
521.559	41151.37
521.761	41741.19
521.963	41689.99
522.164	41812.87
522.366	41984.9
522.568	42464.12
522.77	42777.46
522.971	43211.63
523.173	43094.89
523.375	43164.53
523.576	43340.65
523.778	43600.74
523.98	43826.02
524.181	43959.14
524.383	43952.99
524.584	44663.64
524.786	44847.96
524.988	44561.24
525.189	45081.42
525.391	44964.69
525.592	45019.99
525.794	45468.49
525.995	45800.26
526.197	45826.88
526.398	45962.05
526.6	46302.01
526.801	45964.1
527.003	46299.97
527.204	46709.56
527.406	46738.23
527.607	47184.69
527.808	47635.24
528.01	46502.71
528.211	47037.23
528.412	48091.94
528.614	47442.73
528.815	47498.03
529.016	47762.22
529.218	47629.1
529.419	47692.58
529.62	47960.87
529.822	47713.06
530.023	48106.27
530.224	48034.6
530.425	47874.85
530.626	47790.89
530.828	47731.5
531.029	48837.4
531.23	47829.8
531.431	48382.75
531.632	48263.97
531.833	48681.75
532.035	48581.4
532.236	48603.93
532.437	48720.66
532.638	48407.33
532.839	48792.34
533.04	48894.74
533.241	48423.71
533.442	49306.38
533.643	48966.42
533.844	48696.09
534.045	49052.44
534.246	48663.32
534.447	48954.13
534.648	48898.84
534.849	48970.52
535.05	48472.86
535.251	48988.95
535.451	48861.97
535.652	49449.74
535.853	48655.13
536.054	49089.3
536.255	48880.41
536.456	48366.37
536.657	49472.27
536.857	48646.94
537.058	48724.76
537.259	49251.09
537.46	49218.32
537.66	48825.11
537.861	49111.83
538.062	48634.65
538.263	48847.64
538.463	49009.43
538.664	48735
538.865	49120.02
539.065	49304.34
539.266	48589.59
539.466	49201.94
539.667	48218.91
539.868	49380.11
540.068	48952.09
540.269	48919.32
540.469	48968.47
540.67	48945.94
540.87	48833.3
541.071	48880.41
541.271	48952.09
541.472	48663.32
541.672	48380.7
541.873	48509.72
542.073	48349.98
542.274	49036.05
542.474	48632.6
542.675	48651.03
542.875	48835.35
543.075	48624.41
543.276	48145.19
543.476	48796.44
543.676	48712.47
543.877	48581.4
544.077	49017.62
544.277	48501.53
544.478	48976.66
544.678	48354.08
544.878	48227.1
545.078	48640.79
545.279	48374.56
545.479	48489.24
545.679	48718.62
545.879	48694.04
546.079	48651.03
546.28	48605.98
546.48	48403.23
546.68	48769.82
546.88	48720.66
547.08	48468.76
547.28	48278.3
547.48	47946.53
547.68	48186.14
547.88	47924
548.081	48423.71
548.281	48597.79
548.481	47956.77
548.681	48780.06
548.881	48741.14
549.081	48597.79
549.28	48364.32
549.48	48186.14
549.68	48040.74
549.88	48927.51
550.08	48210.72
550.28	48356.13
550.48	48218.91
550.68	48423.71
550.88	48263.97
551.08	48370.46
551.279	48405.28
551.479	47821.61
551.679	48528.16
551.879	48229.15
552.079	48427.81
552.278	47835.94
552.478	48261.92
552.678	48038.69
552.878	48790.3
553.077	48171.81
553.277	47563.56
553.477	48663.32
553.676	48089.89
553.876	48194.34
554.076	48050.98
554.275	47915.81
554.475	47385.39
554.674	48180
554.874	48175.9
555.074	47999.78
555.273	47850.28
555.473	47788.84
555.672	47708.97
555.872	47719.21
556.071	47258.41
556.271	48065.31
556.47	47600.43
556.67	47317.81
556.869	47809.32
557.068	47534.89
557.268	47416.11
557.467	47528.75
557.667	47121.2
557.866	47127.34
558.065	46887.73
558.265	47373.1
558.464	47330.09
558.663	47571.75
558.863	46641.98
559.062	47483.69
559.261	46861.11
559.461	47676.2
559.66	46699.32
559.859	47412.01
560.058	46787.38
560.258	47115.06
560.457	46461.76
560.656	47162.16
560.855	46527.29
561.054	47219.5
561.253	46377.79
561.453	46752.57
561.652	46674.74
561.851	46914.36
562.05	46512.95
562.249	46527.29
562.448	46666.55
562.647	46261.05
562.846	46320.45
563.045	46312.25
563.244	45921.09
563.443	46576.44
563.642	45615.94
563.841	45886.28
564.04	45736.77
564.239	46256.96
564.438	45349.71
564.637	45970.24
564.836	46177.09
565.035	45183.82
565.234	45953.86
565.432	45654.86
565.631	45243.21
565.83	45744.97
566.029	45085.52
566.228	45390.67
566.427	45149.01
566.625	44559.19
566.824	44569.43
567.023	45077.33
567.222	44305.24
567.42	45009.75
567.619	45089.62
567.818	44938.07
568.016	44784.47
568.215	45042.51
568.414	44495.71
568.612	44950.35
568.811	44254.04
569.01	44413.79
569.208	44403.55
569.407	44432.22
569.605	43557.74
569.804	44469.08
570.002	43875.17
570.201	44127.07
570.4	43651.94
570.598	43537.26
570.797	43570.02
570.995	43848.55
571.193	43049.84
571.392	43561.83
571.59	43228.01
571.789	43496.3
571.987	43369.32
572.186	43463.53
572.384	43127.66
572.582	43289.45
572.781	43377.51
572.979	42816.37
573.177	42939.25
573.376	43078.51
573.574	42496.89
573.772	42634.1
573.971	42488.7
574.169	42478.46
574.367	42640.25
574.565	42394.49
574.763	42191.74
574.962	42113.92
575.16	41855.87
575.358	42427.26
575.556	41491.33
575.754	42306.43
575.952	41665.41
576.151	41751.43
576.349	41343.88
576.547	41710.47
576.745	41853.83
576.943	41493.38
577.141	41341.83
577.339	41333.64
577.537	41016.21
577.735	41048.97
577.933	40381.34
578.131	41274.25
578.329	40901.52
578.527	40805.27
578.725	40696.72
578.923	40555.41
579.121	40618.9
579.319	40420.25
579.516	40557.46
579.714	40307.61
579.912	40149.92
580.11	40182.68
580.308	39988.13
580.506	39945.12
580.704	39400.36
580.901	39840.67
581.099	39934.88
581.297	39422.89
581.495	39666.59
581.692	39756.71
581.89	39263.14
582.088	39762.85
582.285	39048.11
582.483	39480.23
582.681	39328.68
582.878	39084.97
583.076	38568.88
583.274	38933.42
583.471	38364.09
583.669	38149.05
583.866	38362.04
584.064	38620.08
584.262	38122.43
584.459	38421.43
584.657	38359.99
584.854	38147
585.052	37817.28
585.249	38013.88
585.447	37891.01
585.644	37565.38
585.841	37925.82
586.039	38046.65
586.236	37163.98
586.434	37163.98
586.631	37376.97
586.828	37215.18
587.026	37143.5
587.223	36918.22
587.42	36936.65
587.618	37153.74
587.815	36598.74
588.012	36656.08
588.21	36643.79
588.407	36703.18
588.604	36230.1
588.801	36187.1
588.999	36092.89
589.196	36242.39
589.393	36344.79
589.59	35927
589.787	35570.66
589.984	35722.21
590.182	35386.34
590.379	35894.24
590.576	35664.86
590.773	35781.6
590.97	35003.37
591.167	35466.21
591.364	35038.19
591.561	35199.97
591.758	34720.75
591.955	34898.92
592.152	35185.64
592.349	34515.95
592.546	34720.75
592.743	34690.03
592.94	34227.19
593.137	34685.93
593.334	34348.02
593.531	33954.81
593.727	34317.3
593.924	34094.07
594.121	33809.4
594.318	33967.1
594.515	33829.88
594.712	33737.73
594.908	33793.02
595.105	33807.36
595.302	33559.55
595.499	33532.93
595.696	33213.45
595.892	33043.46
596.089	33209.35
596.286	33305.6
596.482	32680.97
596.679	33238.02
596.876	32758.8
597.072	32412.69
597.269	32461.84
597.466	32181.27
597.662	32347.15
597.859	32257.04
598.055	32406.55
598.252	31579.17
598.448	31822.87
598.645	32035.86
598.841	31583.26
599.038	31573.02
599.234	31689.76
599.431	31321.12
599.627	31216.68
599.824	31747.1
600.02	31353.89
600.217	30942.25
600.413	31095.85
600.609	30929.96
600.806	30706.73
601.002	31020.07
601.198	30600.24
601.395	30891.05
601.591	30618.67
601.787	30532.65
601.984	30297.14
602.18	30684.2
602.376	30243.89
602.572	30194.74
602.769	30219.31
602.965	29758.52
603.161	29797.43
603.357	29633.6
603.553	29844.54
603.75	29901.88
603.946	29242.43
604.142	29713.47
604.338	29252.67
604.534	29746.23
604.73	29350.98
604.926	29324.35
605.122	29559.87
605.318	29115.46
605.514	28990.53
605.71	28658.76
605.906	28677.19
606.102	28843.08
606.298	28607.56
606.494	28650.57
606.69	28482.64
606.886	28795.98
607.082	28230.74
607.278	28509.26
607.474	28030.04
607.67	28462.16
607.866	28046.42
608.062	28503.12
608.257	27952.21
608.453	28030.04
608.649	27929.69
608.845	28007.51
609.041	27984.98
609.236	28025.94
609.432	27780.18
609.628	28042.32
609.824	27806.81
610.019	27628.63
610.215	27706.46
610.411	27585.63
610.606	27550.81
610.802	27608.15
610.998	27442.27
611.193	27401.31
611.389	27206.75
611.584	27348.06
611.78	27268.19
611.976	27126.88
612.171	27243.62
612.367	27063.4
612.562	26383.47
612.758	26942.56
612.953	26535.02
613.149	27350.11
613.344	26602.6
613.539	26961
613.735	26729.58
613.93	26811.49
614.126	26438.76
614.321	27010.15
614.517	26541.16
614.712	26395.76
614.907	26348.65
615.103	26512.49
615.298	26328.17
615.493	26647.66
615.688	26102.9
615.884	26737.77
616.079	25785.46
616.274	26463.34
616.47	25963.64
616.665	26080.37
616.86	26068.08
617.055	26002.55
617.25	26031.22
617.445	25973.88
617.641	25691.26
617.836	25873.53
618.031	25359.49
618.226	25605.24
618.421	25494.65
618.616	25560.19
618.811	25435.26
619.006	25683.06
619.201	25009.28
619.396	25429.12
619.591	24824.97
619.786	25226.37
619.981	24724.61
620.176	25091.2
620.371	24376.46
620.566	24777.86
620.761	24384.65
620.956	24433.8
621.151	24286.35
621.346	24327.31
621.541	23835.8
621.735	24235.15
621.93	23520.41
622.125	23792.79
622.32	23639.19
622.515	23704.73
622.709	23366.81
622.904	23624.86
623.099	23159.97
623.294	23245.98
623.488	22912.16
623.683	23180.45
623.878	22742.18
624.072	22797.48
624.267	22807.72
624.462	22400.17
624.656	22021.3
624.851	22299.82
625.046	22082.74
625.24	21929.14
625.435	21693.62
625.629	21857.46
625.824	21437.62
626.018	21468.34
626.213	21013.7
626.407	21306.55
626.602	20888.77
626.796	21234.88
626.991	21032.13
627.185	20829.38
627.38	20792.51
627.574	20802.75
627.768	20307.15
627.963	20526.28
628.157	20200.65
628.352	20094.16
628.546	19727.57
628.74	20067.53
628.935	19928.27
629.129	19698.9
629.323	19684.56
629.517	19643.6
629.712	19150.04
629.906	19410.14
630.1	19000.54
630.294	19148
630.489	18820.32
630.683	19291.35
630.877	18873.57
631.071	18560.23
631.265	18767.07
631.459	18734.31
631.653	18304.23
631.848	18496.74
632.042	18318.57
632.236	18310.38
632.43	18109.68
632.624	18121.96
632.818	17962.22
633.012	17843.44
633.206	17945.84
633.4	18070.76
633.594	17431.8
633.788	17317.11
633.982	17251.58
634.176	17120.51
634.369	17349.88
634.563	17173.75
634.757	17173.75
634.951	16858.37
635.145	17001.72
635.339	16891.13
635.533	16592.13
635.726	17085.69
635.92	16454.92
636.114	16706.82
636.308	16434.44
636.501	16344.33
636.695	16129.29
636.889	16379.14
637.083	16174.35
637.276	15918.35
637.47	15957.26
637.664	15885.58
637.857	16028.94
638.051	15621.39
638.244	15549.71
638.438	15709.46
638.632	15578.39
638.825	15441.17
639.019	15285.53
639.212	15283.48
639.406	15021.34
639.599	15138.07
639.793	15052.06
639.986	14908.7
640.18	14871.84
640.373	15021.34
640.567	14617.89
640.76	14673.18
640.954	14509.35
641.147	14474.53
641.34	13956.4
641.534	14290.21
641.727	14312.74
641.92	14171.43
642.114	14236.97
642.307	14230.82
642.5	13933.87
642.694	13815.09
642.887	13565.23
643.08	13770.03
643.273	13528.37
643.467	13632.82
643.66	13552.95
643.853	13511.99
644.046	13348.15
644.239	13454.64
644.432	13235.51
644.626	13047.1
644.819	13311.28
645.012	12854.59
645.205	12995.9
645.398	12989.75
645.591	12959.03
645.784	12961.08
645.977	12676.41
646.17	12688.7
646.363	12709.18
646.556	12571.97
646.749	12393.79
646.942	12518.72
647.135	12510.53
647.328	12348.74
647.521	12096.84
647.714	11889.99
647.907	12059.98
648.099	12010.82
648.292	11935.05
648.485	11881.8
648.678	11969.87
648.871	11736.4
649.064	11791.69
649.256	11801.93
649.449	11615.57
649.642	11425.11
649.835	11541.84
650.027	11521.36
650.22	11617.61
650.413	11363.67
650.605	11265.36
650.798	11490.64
650.991	11330.9
651.183	11185.49
651.376	11038.04
651.568	10976.6
651.761	10960.22
651.954	11013.46
652.146	10982.74
652.339	10868.06
652.531	10736.99
652.724	10716.51
652.916	10419.55
653.109	10368.35
653.301	10743.13
653.494	10687.84
653.686	10448.22
653.879	10421.6
654.071	10243.43
654.263	10083.69
654.456	10327.39
654.648	10110.31
654.84	9979.24
655.033	10048.87
655.225	9928.04
655.417	9878.89
655.61	9823.59
655.802	9780.59
655.994	9602.41
656.186	9962.86
656.379	9762.16
656.571	9803.11
656.763	9446.77
656.955	9581.93
657.148	9799.02
657.34	9252.21
657.532	9401.71
657.724	9221.49
657.916	9227.64
658.108	9356.66
658.3	9229.68
658.492	9227.64
658.684	8983.93
658.876	9086.33
659.068	9047.41
659.26	8967.54
659.452	8967.54
659.644	8824.19
659.836	8818.04
660.028	8832.38
660.22	8572.29
660.412	8594.81
660.604	8508.8
660.796	8676.73
660.988	8451.46
661.18	8463.74
661.372	8330.62
661.563	8582.53
661.755	8291.71
661.947	8430.98
662.139	8334.72
662.331	8357.25
662.522	8060.29
662.714	8209.79
662.906	8091.01
663.097	8275.33
663.289	7943.56
663.481	7959.94
663.673	7810.44
663.864	7916.94
664.056	7869.83
664.247	7867.78
664.439	7769.48
664.631	7777.67
664.822	7646.6
665.014	7732.62
665.205	7615.88
665.397	7603.6
665.588	7646.6
665.78	7613.84
665.971	7523.73
666.163	7560.59
666.354	7519.63
666.546	7423.37
666.737	7228.82
666.929	7361.94
667.12	7277.97
667.311	7247.25
667.503	7226.77
667.694	7314.83
667.885	7103.89
668.077	7067.03
668.268	6901.14
668.459	7085.46
668.651	7015.83
668.842	6909.33
669.033	6907.29
669.224	6835.61
669.416	6966.68
669.607	6919.57
669.798	6815.13
669.989	6847.9
670.18	6753.69
670.371	6874.52
670.563	6735.26
670.754	6688.15
670.945	6509.98
671.136	6518.17
671.327	6473.12
671.518	6485.41
671.709	6557.08
671.9	6636.95
672.091	6456.73
672.282	6421.92
672.473	6409.63
672.664	6182.31
672.855	6145.44
673.046	6421.92
673.237	6253.98
673.428	6296.99
673.619	6299.04
673.809	6317.47
674	6114.72
674.191	6094.24
674.382	6112.67
674.573	6034.85
674.764	6061.48
674.954	5995.94
675.145	5911.97
675.336	5844.39
675.527	6081.96
675.717	5907.88
675.908	5979.56
676.099	5971.36
676.289	5807.53
676.48	5871.01
676.671	5854.63
676.861	5836.2
677.052	5862.82
677.243	5707.18
677.433	5789.1
677.624	5770.66
677.814	5668.27
678.005	5825.96
678.195	5698.99
678.386	5789.1
678.576	5592.49
678.767	5588.39
678.957	5711.27
679.148	5711.27
679.338	5576.11
679.529	5586.35
679.719	5473.71
679.909	5612.97
680.1	5547.44
680.29	5336.49
680.481	5387.69
680.671	5422.51
680.861	5469.61
681.052	5383.6
681.242	5281.2
681.432	5522.86
681.622	5248.43
681.813	5307.82
682.003	5381.55
682.193	5180.85
682.383	5379.5
682.573	5201.33
682.764	5205.42
682.954	5123.51
683.144	5113.27
683.334	5152.18
683.524	5184.94
683.714	5037.49
683.904	4988.34
684.094	5117.36
684.284	4953.52
684.474	5131.7
684.664	4992.44
684.854	4998.58
685.044	4961.72
685.234	4902.33
685.424	4881.85
685.614	4900.28
685.804	4937.14
685.994	4855.22
686.184	4885.94
686.374	4773.3
686.564	4668.86
686.753	4791.73
686.943	4738.49
687.133	4728.25
687.323	4842.93
687.513	4756.92
687.702	4611.51
687.892	4685.24
688.082	4625.85
688.272	4711.86
688.461	4785.59
688.651	4492.73
688.841	4478.4
689.03	4554.17
689.22	4496.83
689.41	4545.98
689.599	4505.02
689.789	4509.12
689.979	4429.24
690.168	4437.44
690.358	4369.85
690.547	4216.26
690.737	4406.72
690.926	4367.81
691.116	4330.94
691.305	4269.5
691.495	4117.95
691.684	4349.37
691.874	4160.96
692.063	4244.93
692.252	4158.91
692.442	4074.95
692.631	4066.75
692.82	4038.08
693.01	4126.15
693.199	4033.99
693.388	3970.5
693.578	4062.66
693.767	4023.75
693.956	3995.08
694.146	3954.12
694.335	4060.61
694.524	3935.68
694.713	3878.34
694.902	3966.4
695.092	3960.26
695.281	3857.86
695.47	3882.44
695.659	3808.71
695.848	3810.76
696.037	3864.01
696.226	3829.19
696.415	3800.52
696.604	3890.63
696.793	3734.98
696.982	3843.53
697.171	3706.31
697.36	3634.63
697.549	3589.58
697.738	3632.58
697.927	3751.37
698.116	3646.92
698.305	3601.87
698.494	3632.58
698.683	3575.24
698.872	3706.31
699.061	3583.43
699.25	3577.29
699.438	3513.8
699.627	3462.6
699.816	3513.8
700.005	3616.2
700.193	3483.08
700.382	3614.15
700.571	3501.51
700.76	3476.94
700.948	3438.03
701.137	3593.67
701.326	3497.42
701.514	3544.52
701.703	3440.08
701.892	3513.8
702.08	3503.56
702.269	3395.02
702.457	3229.13
702.646	3464.65
702.834	3395.02
703.023	3349.96
703.212	3419.6
703.4	3231.18
703.589	3425.74
703.777	3474.89
703.965	3390.92
704.154	3392.97
704.342	3388.88
704.531	3309.01
704.719	3276.24
704.907	3407.31
705.096	3333.58
705.284	3286.48
705.472	3229.13
705.661	3282.38
705.849	3284.43
706.037	3304.91
706.226	3173.84
706.414	3255.76
706.602	3190.22
706.79	3274.19
706.979	3306.96
707.167	3214.8
707.355	3212.75
707.543	3235.28
707.731	3278.29
707.919	3276.24
708.107	3222.99
708.296	3114.45
708.484	3321.29
708.672	3319.25
708.86	3329.49
709.048	3141.07
709.236	3145.17
709.424	3110.35
709.612	3153.36
709.8	3200.46
709.988	3124.69
710.176	3188.18
710.364	3093.97
710.551	3132.88
710.739	3083.73
710.927	3155.41
711.115	3100.11
711.303	3155.41
711.491	3268.05
711.679	3227.09
711.866	3102.16
712.054	3132.88
712.242	3087.82
712.43	3022.29
712.617	3179.98
712.805	3026.39
712.993	3075.54
713.181	3270.09
713.368	3030.48
713.556	3218.89
713.744	3122.64
713.931	3132.88
714.119	3245.52
714.306	2938.32
714.494	3034.58
714.682	3141.07
714.869	2979.28
715.057	3038.67
715.244	3106.26
715.432	3067.35
715.619	3067.35
715.807	3100.11
715.994	2997.71
716.182	2971.09
716.369	3001.81
716.556	3036.63
716.744	3046.87
716.931	3024.34
717.119	3020.24
717.306	3102.16
717.493	3120.59
717.681	3085.78
717.868	2936.28
718.055	3007.95
718.242	2993.62
718.43	3063.25
718.617	2995.67
718.804	3026.39
718.991	3005.91
719.179	3071.44
719.366	3116.5
719.553	3145.17
719.74	2954.71
719.927	2872.79
720.114	2973.14
720.301	2899.41
720.488	2919.89
720.676	2956.75
720.863	3005.91
721.05	3083.73
721.237	3030.48
721.424	2942.42
721.611	2985.43
721.798	2909.65
721.985	2846.16
722.172	2878.93
722.358	2938.32
722.545	2889.17
722.732	2985.43
722.919	2860.5
723.106	2876.88
723.293	2954.71
723.48	2887.12
723.667	2930.13
723.853	2883.03
724.04	2893.27
724.227	2805.21
724.414	2917.84
724.6	2829.78
724.787	2964.95
724.974	2876.88
725.161	2850.26
725.347	2831.83
725.534	2895.32
725.72	2889.17
725.907	2749.91
726.094	2993.62
726.28	2893.27
726.467	2840.02
726.653	2893.27
726.84	2770.39
727.027	2794.97
727.213	2860.5
727.4	2903.51
727.586	2829.78
727.773	2786.77
727.959	2852.31
728.145	2942.42
728.332	2819.54
728.518	2837.97
728.705	2776.53
728.891	2821.59
729.077	2860.5
729.264	2905.56
729.45	2973.14
729.636	2860.5
729.823	2995.67
730.009	2885.08
730.195	2880.98
730.382	2815.45
730.568	2870.74
730.754	2819.54
730.94	2917.84
731.126	2870.74
731.313	2813.4
731.499	2780.63
731.685	2737.62
731.871	2805.21
732.057	2891.22
732.243	2846.16
732.429	2893.27
732.615	2762.2
732.801	2702.81
732.987	2745.81
733.173	2928.08
733.359	2797.01
733.545	2751.96
733.731	2815.45
733.917	2852.31
734.103	2950.61
734.289	2891.22
734.475	2715.09
734.661	2827.73
734.847	2749.91
735.033	2846.16
735.219	2754.01
735.404	2803.16
735.59	2758.1
735.776	2794.97
735.962	2749.91
736.148	2692.57
736.333	2856.4
736.519	2680.28
736.705	2807.25
736.89	2706.9
737.076	2715.09
737.262	2731.48
737.447	2708.95
737.633	2620.89
737.819	2764.25
738.004	2653.66
738.19	2706.9
738.375	2643.42
738.561	2733.53
738.747	2661.85
738.932	2692.57
739.118	2684.38
739.303	2678.23
739.489	2584.02
739.674	2637.27
739.859	2584.02
740.045	2590.17
740.23	2596.31
740.416	2475.48
740.601	2594.26
740.786	2538.97
740.972	2581.98
741.157	2491.87
741.342	2545.11
741.528	2500.06
741.713	2643.42
741.898	2534.87
742.084	2592.22
742.269	2508.25
742.454	2577.88
742.639	2545.11
742.824	2489.82
743.01	2448.86
743.195	2530.78
743.38	2409.95
743.565	2500.06
743.75	2450.91
743.935	2463.19
744.12	2463.19
744.305	2395.61
744.49	2262.49
744.675	2442.71
744.86	2321.88
745.045	2371.04
745.23	2532.83
745.415	2258.4
745.6	2379.23
745.785	2328.03
745.97	2291.17
746.155	2203.1
746.34	2291.17
746.525	2354.65
746.71	2375.13
746.895	2287.07
747.079	2186.72
747.264	2250.21
747.449	2266.59
747.634	2248.16
747.819	2149.86
748.003	2258.4
748.188	2119.14
748.373	2102.75
748.557	2123.23
748.742	2168.29
748.927	2260.45
749.111	2100.7
749.296	2059.74
749.481	2168.29
749.665	2006.5
749.85	2043.36
750.034	2004.45
750.219	2094.56
750.404	2063.84
750.588	1938.91
750.773	1859.04
750.957	2110.94
751.141	1924.58
751.326	1916.39
751.51	1887.72
751.695	2018.79
751.879	1820.13
752.064	1963.49
752.248	1900
752.432	1990.11
752.617	1834.47
752.801	1887.72
752.985	1816.04
753.17	1807.84
753.354	1813.99
753.538	1828.32
753.722	1779.17
753.907	1721.83
754.091	1719.78
754.275	1850.85
754.459	1730.02
754.643	1693.16
754.828	1766.89
755.012	1754.6
755.196	1682.92
755.38	1609.19
755.564	1748.45
755.748	1719.78
755.932	1664.49
756.116	1594.86
756.3	1656.29
756.484	1603.05
756.668	1631.72
756.852	1488.36
757.036	1568.23
757.22	1553.9
757.404	1502.7
757.588	1480.17
757.772	1523.18
757.956	1539.56
758.14	1463.79
758.323	1545.7
758.507	1498.6
758.691	1582.57
758.875	1482.22
759.059	1441.26
759.242	1463.79
759.426	1451.5
759.61	1418.73
759.794	1496.55
759.977	1433.07
760.161	1375.72
760.345	1369.58
760.528	1441.26
760.712	1334.76
760.895	1357.29
761.079	1361.39
761.263	1326.57
761.446	1271.28
761.63	1437.16
761.813	1342.96
761.997	1359.34
762.18	1336.81
762.364	1263.08
762.547	1271.28
762.731	1316.33
762.914	1304.04
763.098	1342.96
763.281	1248.75
763.464	1220.08
763.648	1267.18
763.831	1230.32
764.015	1320.43
764.198	1250.8
764.381	1234.41
764.564	1228.27
764.748	1254.89
764.931	1179.12
765.114	1193.45
765.297	1283.56
765.481	1172.97
765.664	1211.89
765.847	1177.07
766.03	1185.26
766.213	1201.65
766.397	1154.54
766.58	1205.74
766.763	1183.21
766.946	1162.73
767.129	1060.34
767.312	1148.4
767.495	1146.35
767.678	1232.37
767.861	1095.15
768.044	1187.31
768.227	1136.11
768.41	1168.88
768.593	1099.25
768.776	1129.97
768.959	1132.01
769.142	1095.15
769.324	1076.72
769.507	1084.91
769.69	1021.42
769.873	1138.16
770.056	1160.69
770.239	1086.96
770.421	1058.29
770.604	1072.62
770.787	1111.54
770.97	1066.48
771.152	925.17
771.335	1011.18
771.518	984.56
771.7	1025.52
771.883	1007.09
772.066	978.42
772.248	992.75
772.431	1048.05
772.613	1029.62
772.796	972.27
772.978	1019.38
773.161	951.79
773.343	959.99
773.526	927.22
773.708	886.26
773.891	1021.42
774.073	871.92
774.256	884.21
774.438	912.88
774.621	962.03
774.803	886.26
774.985	947.7
775.168	912.88
775.35	933.36
775.532	929.27
775.715	869.87
775.897	902.64
776.079	863.73
776.261	892.4
776.444	833.01
776.626	921.07
776.808	984.56
776.99	785.91
777.173	810.48
777.355	716.28
777.537	892.4
777.719	892.4
777.901	744.95
778.083	701.94
778.265	796.15
778.447	783.86
778.629	763.38
778.811	800.24
778.993	761.33
779.175	839.16
779.357	804.34
779.539	689.65
779.721	732.66
779.903	773.62
780.085	673.27
780.267	671.22
780.449	763.38
780.631	740.85
780.812	751.09
780.994	722.42
781.176	742.9
781.358	669.17
781.54	644.6
781.721	669.17
781.903	622.07
782.085	652.79
782.267	617.97
782.448	630.26
782.63	615.93
782.812	716.28
782.993	669.17
783.175	679.41
783.357	597.49
783.538	679.41
783.72	630.26
783.901	620.02
784.083	652.79
784.264	548.34
784.446	628.21
784.627	566.78
784.809	587.26
784.99	515.58
785.172	595.45
785.353	607.73
785.535	560.63
785.716	472.57
785.897	464.38
786.079	529.91
786.26	523.77
786.441	536.06
786.623	491
786.804	509.43
786.985	607.73
787.167	480.76
787.348	478.71
787.529	519.67
787.71	499.19
787.891	486.9
788.073	450.04
788.254	480.76
788.435	521.72
788.616	478.71
788.797	409.08
788.978	443.9
789.159	417.27
789.34	478.71
789.522	388.6
789.703	445.95
789.884	462.33
790.065	568.82
790.246	462.33
790.427	462.33
790.607	386.55
790.788	427.51
790.969	394.75
791.15	452.09
791.331	382.46
791.512	499.19
791.693	327.16
791.874	417.27
792.054	458.23
792.235	452.09
792.416	323.07
792.597	382.46
792.778	413.18
792.958	394.75
793.139	353.79
793.32	366.07
793.5	464.38
793.681	361.98
793.862	323.07
794.042	398.84
794.223	413.18
794.404	462.33
794.584	404.99
794.765	370.17
794.945	357.88
795.126	447.99
795.306	304.64
795.487	378.36
795.667	353.79
795.848	359.93
796.028	417.27
796.209	386.55
796.389	347.64
796.57	398.84
796.75	337.4
796.93	306.68
797.111	302.59
797.291	331.26
797.471	359.93
797.652	282.11
797.832	290.3
798.012	331.26
798.192	267.77
798.373	316.92
798.553	343.55
798.733	411.13
798.913	269.82
799.093	308.73
799.274	267.77
799.454	294.4
799.634	294.4
799.814	333.31
799.994	333.31
800.174	298.49
800.354	280.06
800.534	345.59
800.714	321.02
800.894	220.67
801.074	257.53
801.254	267.77
801.434	280.06
801.614	310.78
801.794	198.14
801.974	732.66
802.154	275.96
802.334	290.3
802.514	253.44
802.693	249.34
802.873	220.67
803.053	312.83
803.233	312.83
803.413	302.59
803.592	212.48
803.772	218.62
803.952	265.72
804.131	226.81
804.311	230.91
804.491	269.82
804.67	177.66
804.85	220.67
805.03	200.19
805.209	349.69
805.389	220.67
805.568	183.81
805.748	198.14
805.928	282.11
806.107	206.33
806.287	310.78
806.466	341.5
806.646	210.43
806.825	220.67
807.004	249.34
807.184	235
807.363	261.63
807.543	202.24
807.722	198.14
807.901	251.39
808.081	136.7
808.26	214.52
808.439	204.28
808.619	189.95
808.798	208.38
808.977	155.13
809.156	255.48
809.336	239.1
809.515	241.15
809.694	169.47
809.873	155.13
810.052	189.95
810.231	202.24
810.411	247.29
810.59	200.19
810.769	138.75
810.948	206.33
811.127	151.04
811.306	83.45
811.485	187.9
811.664	263.68
811.843	212.48
812.022	173.57
812.201	194.05
812.38	93.69
812.559	161.28
812.737	214.52
812.916	142.85
813.095	103.93
813.274	208.38
813.453	67.07
813.632	194.05
813.811	216.57
813.989	108.03
814.168	126.46
814.347	187.9
814.526	138.75
814.704	146.94
814.883	185.85
815.062	142.85
815.24	224.76
815.419	159.23
815.598	181.76
815.776	112.13
815.955	247.29
816.133	126.46
816.312	177.66
816.49	183.81
816.669	95.74
816.847	91.65
817.026	153.09
817.204	105.98
817.383	175.61
817.561	194.05
817.74	179.71
817.918	136.7
818.097	159.23
818.275	189.95
818.453	99.84
818.632	146.94
818.81	101.89
818.988	194.05
819.167	134.65
819.345	116.22
819.523	153.09
819.701	183.81
819.879	173.57
820.058	114.17
820.236	132.61
820.414	165.37
820.592	130.56
820.77	144.89
820.948	77.31
821.127	118.27
821.305	183.81
821.483	85.5
821.661	87.55
821.839	69.12
822.017	60.93
822.195	163.33
822.373	132.61
822.551	116.22
822.729	159.23
822.907	157.18
823.085	81.41
823.262	208.38
823.44	146.94
823.618	140.8
823.796	132.61
823.974	116.22
824.152	99.84
824.329	85.5
824.507	54.78
824.685	58.88
824.863	140.8
825.04	93.69
825.218	146.94
825.396	167.42
825.574	153.09
825.751	124.41
825.929	112.13
826.107	144.89
826.284	48.64
826.462	67.07
826.639	124.41
826.817	153.09
826.994	124.41
827.172	32.26
827.349	151.04
827.527	116.22
827.704	108.03
827.882	130.56
828.059	65.02
828.237	40.45
828.414	105.98
828.591	54.78
828.769	101.89
828.946	93.69
829.124	118.27
829.301	120.32
829.478	105.98
829.655	95.74
829.833	146.94
830.01	161.28
830.187	126.46
830.364	97.79
830.542	189.95
830.719	144.89
830.896	134.65
831.073	79.36
831.25	77.31
831.427	114.17
831.604	67.07
831.782	108.03
831.959	79.36
832.136	97.79
832.313	108.03
832.49	120.32
832.667	99.84
832.844	69.12
833.021	105.98
833.198	85.5
833.374	7.68
833.551	175.61
833.728	77.31
833.905	85.5
834.082	101.89
834.259	54.78
834.436	120.32
834.612	114.17
834.789	79.36
834.966	73.21
835.143	67.07
835.319	62.98
835.496	48.64
835.673	52.74
835.85	81.41
836.026	148.99
836.203	130.56
836.38	71.17
836.556	48.64
836.733	103.93
836.909	71.17
837.086	65.02
837.262	7.68
837.439	36.35
837.616	85.5
837.792	-0.51
837.968	103.93
838.145	46.59
838.321	81.41
838.498	28.16
838.674	144.89
838.851	65.02
839.027	44.54
839.203	103.93
839.38	103.93
839.556	52.74
839.732	73.21
839.909	48.64
840.085	60.93
840.261	-20.99
840.437	32.26
840.614	91.65
840.79	5.63
840.966	65.02
841.142	54.78
841.318	-0.51
841.494	54.78
841.671	54.78
841.847	62.98
842.023	13.82
842.199	71.17
842.375	73.21
842.551	65.02
842.727	95.74
842.903	130.56
843.079	46.59
843.255	30.21
843.431	122.37
843.607	116.22
843.783	-14.85
843.959	73.21
844.134	28.16
844.31	-29.18
844.486	36.35
844.662	17.92
844.838	36.35
845.013	40.45
845.189	42.5
845.365	112.13
845.541	62.98
845.716	30.21
845.892	91.65
846.068	22.02
846.244	-43.52
846.419	24.06
846.595	7.68
846.77	58.88
846.946	38.4
847.122	62.98
847.297	42.5
847.473	62.98
847.648	-0.51
847.824	101.89
847.999	58.88
848.175	-2.56
848.35	81.41
848.526	71.17
848.701	48.64
848.876	42.5
849.052	60.93
849.227	11.78
849.403	-74.24
849.578	5.63
849.753	50.69
849.929	73.21
850.104	44.54
850.279	65.02
850.454	40.45
850.63	26.11
850.805	-0.51
850.98	28.16
851.155	-2.56
851.33	103.93
851.505	58.88
851.681	36.35
851.856	48.64
852.031	87.55
852.206	-23.04
852.381	54.78
852.556	19.97
852.731	-6.66
852.906	75.26
853.081	38.4
853.256	50.69
853.431	-8.7
853.606	24.06
853.781	79.36
853.956	-14.85
854.131	34.3
854.305	-12.8
854.48	-27.14
854.655	28.16
854.83	7.68
855.005	15.87
855.18	87.55
855.354	42.5
855.529	15.87
855.704	-6.66
855.879	95.74
856.053	-8.7
856.228	62.98
856.403	22.02
856.577	54.78
856.752	-100.86
856.926	-8.7
857.101	3.58
857.276	65.02
857.45	34.3
857.625	62.98
857.799	-29.18
857.974	56.83
858.148	-29.18
858.323	17.92
858.497	60.93
858.672	-0.51
858.846	-4.61
859.02	17.92
859.195	22.02
859.369	-8.7
859.543	-55.81
859.718	-29.18
859.892	7.68
860.066	44.54
860.241	9.73
860.415	-16.9
860.589	-2.56
860.763	-29.18
860.938	-45.57
861.112	69.12
861.286	-35.33
861.46	30.21
861.634	32.26
861.808	105.98
861.982	40.45
862.157	-10.75
862.331	26.11
862.505	28.16
862.679	-47.62
862.853	-16.9
863.027	11.78
863.201	7.68
863.375	1.54
863.549	28.16
863.722	30.21
863.896	79.36
864.07	22.02
864.244	-51.71
864.418	-70.14
864.592	48.64
864.766	-31.23
864.939	40.45
865.113	3.58
865.287	19.97
865.461	-37.38
865.634	89.6
865.808	15.87
865.982	-16.9
866.156	91.65
866.329	13.82
866.503	30.21
866.676	50.69
866.85	46.59
867.024	-20.99
867.197	22.02
867.371	-0.51
867.544	5.63
867.718	7.68
867.891	28.16
868.065	-51.71
868.238	30.21
868.412	-6.66
868.585	69.12
868.759	3.58
868.932	9.73
869.105	-23.04
869.279	24.06
869.452	-23.04
869.625	42.5
869.799	5.63
869.972	32.26
870.145	56.83
870.319	52.74
870.492	34.3
870.665	13.82
870.838	-8.7
871.011	-80.38
871.185	-16.9
871.358	-27.14
871.531	-23.04
871.704	-49.66
871.877	1.54
872.05	15.87
872.223	-6.66
872.396	-4.61
872.569	7.68
872.742	-55.81
872.915	28.16
873.088	-45.57
873.261	36.35
873.434	46.59
873.607	-0.51
873.78	50.69
873.953	5.63
874.126	-16.9
874.299	81.41
874.471	3.58
874.644	-2.56
874.817	50.69
874.99	-33.28
875.163	-27.14
875.335	69.12
875.508	52.74
875.681	-0.51
875.853	54.78
876.026	79.36
876.199	79.36
876.371	19.97
876.544	15.87
876.717	-2.56
876.889	-80.38
877.062	-0.51
877.234	-8.7
877.407	-25.09
877.579	-43.52
877.752	-8.7
877.924	54.78
878.097	-12.8
878.269	34.3
878.442	44.54
878.614	50.69
878.786	-12.8
878.959	-20.99
879.131	15.87
879.303	-2.56
879.476	-4.61
879.648	54.78
879.82	32.26
879.993	9.73
880.165	26.11
880.337	-16.9
880.509	30.21
880.681	-57.86
880.854	-80.38
881.026	-16.9
881.198	71.17
881.37	-37.38
881.542	-10.75
881.714	-4.61
881.886	19.97
882.058	-68.09
882.23	26.11
882.402	69.12
882.574	-2.56
882.746	-53.76
882.918	105.98
883.09	28.16
883.262	17.92
883.434	-102.91
883.606	-33.28
883.778	103.93
883.95	15.87
884.122	-51.71
884.293	-41.47
884.465	56.83
884.637	-10.75
884.809	87.55
884.98	-2.56
885.152	9.73
885.324	9.73
885.496	15.87
885.667	19.97
885.839	26.11
886.011	56.83
886.182	-55.81
886.354	-4.61
886.525	19.97
886.697	-92.67
886.869	-59.9
887.04	-39.42
887.212	30.21
887.383	54.78
887.555	-31.23
887.726	-64
887.897	-20.99
888.069	40.45
888.24	-23.04
888.412	-49.66
888.583	36.35
888.754	-14.85
888.926	22.02
889.097	-29.18
889.268	-6.66
889.44	-43.52
889.611	46.59
889.782	1.54
889.953	9.73
890.125	40.45
890.296	5.63
890.467	-25.09
890.638	1.54
890.809	-18.94
890.98	30.21
891.151	7.68
891.323	-49.66
891.494	19.97
891.665	-18.94
891.836	19.97
892.007	40.45
892.178	-8.7
892.349	-10.75
892.52	28.16
892.691	-0.51
892.862	-53.76
893.032	-80.38
893.203	28.16
893.374	36.35
893.545	44.54
893.716	1.54
893.887	32.26
894.057	-4.61
894.228	-12.8
894.399	-37.38
894.57	69.12
894.74	-47.62
894.911	-16.9
895.082	-51.71
895.253	-4.61
895.423	-16.9
895.594	-2.56
895.764	-6.66
895.935	-49.66
896.106	-70.14
896.276	-10.75
896.447	-55.81
896.617	3.58
896.788	-66.05
896.958	11.78
897.129	-2.56
897.299	26.11
897.47	48.64
897.64	83.45
897.81	13.82
897.981	-23.04
898.151	9.73
898.322	-41.47
898.492	-8.7
898.662	28.16
898.832	-10.75
899.003	-10.75
899.173	-10.75
899.343	-41.47
899.513	-45.57
