Data from USB4F104151__88__12-28-14-648.txt Node

Date: Fri Mar 14 12:28:14 EDT 2025
User: louis
Spectrometer: USB4F10415
Trigger mode: 4
Integration Time (sec): 2.000000E-2
Scans to average: 1
Electric dark correction enabled: true
Nonlinearity correction enabled: false
Boxcar width: 0
XAxis mode: Wavelengths
Number of Pixels in Spectrum: 3648
>>>>>Begin Spectral Data<<<<<
178.204	-79.7
178.424	-79.7
178.644	-79.7
178.864	-73.56
179.084	-87.89
179.304	-22.36
179.524	-12.12
179.744	-55.12
179.964	-26.45
180.184	4.27
180.404	28.84
180.624	34.99
180.844	49.32
181.064	39.08
181.283	-38.74
181.503	-24.4
181.723	22.7
181.943	26.79
182.163	71.85
182.383	69.8
182.602	112.81
182.822	30.89
183.042	69.8
183.262	-8.02
183.482	43.18
183.701	55.47
183.921	37.03
184.141	86.19
184.361	88.23
184.58	20.65
184.8	16.55
185.02	6.31
185.239	123.05
185.459	71.85
185.679	32.94
185.898	-48.98
186.118	145.58
186.338	34.99
186.557	92.33
186.777	-32.6
186.997	-10.07
187.216	2.22
187.436	100.52
187.655	53.42
187.875	-22.36
188.095	-16.21
188.314	96.43
188.534	125.1
188.753	6.31
188.973	18.6
189.192	18.6
189.412	86.19
189.631	26.79
189.851	49.32
190.07	75.95
190.29	0.17
190.509	49.32
190.729	-5.97
190.948	92.33
191.168	86.19
191.387	123.05
191.607	45.23
191.826	65.71
192.045	125.1
192.265	102.57
192.484	-20.31
192.704	32.94
192.923	26.79
193.142	106.67
193.362	0.17
193.581	92.33
193.8	-46.93
194.02	61.61
194.239	75.95
194.458	59.56
194.678	45.23
194.897	123.05
195.116	43.18
195.335	55.47
195.555	55.47
195.774	139.43
195.993	45.23
196.212	4.27
196.432	4.27
196.651	28.84
196.87	-8.02
197.089	100.52
197.308	65.71
197.528	112.81
197.747	-5.97
197.966	63.66
198.185	34.99
198.404	-12.12
198.623	47.27
198.842	61.61
199.062	61.61
199.281	65.71
199.5	82.09
199.719	14.51
199.938	135.34
200.157	133.29
200.376	20.65
200.595	112.81
200.814	41.13
201.033	16.55
201.252	8.36
201.471	137.38
201.69	82.09
201.909	49.32
202.128	108.71
202.347	65.71
202.566	30.89
202.785	26.79
203.004	39.08
203.223	86.19
203.442	26.79
203.661	28.84
203.879	43.18
204.098	47.27
204.317	49.32
204.536	108.71
204.755	106.67
204.974	75.95
205.193	51.37
205.411	110.76
205.63	90.28
205.849	8.36
206.068	-24.4
206.287	32.94
206.505	51.37
206.724	133.29
206.943	39.08
207.162	133.29
207.381	51.37
207.599	39.08
207.818	51.37
208.037	41.13
208.255	45.23
208.474	22.7
208.693	-10.07
208.911	30.89
209.13	69.8
209.349	92.33
209.567	118.95
209.786	102.57
210.005	8.36
210.223	96.43
210.442	18.6
210.661	59.56
210.879	18.6
211.098	63.66
211.316	65.71
211.535	84.14
211.753	63.66
211.972	-5.97
212.191	65.71
212.409	18.6
212.628	98.47
212.846	114.86
213.065	8.36
213.283	77.99
213.502	12.46
213.72	80.04
213.938	43.18
214.157	32.94
214.375	59.56
214.594	34.99
214.812	94.38
215.031	32.94
215.249	-22.36
215.467	73.9
215.686	84.14
215.904	65.71
216.122	28.84
216.341	94.38
216.559	10.41
216.778	82.09
216.996	45.23
217.214	94.38
217.432	10.41
217.651	2.22
217.869	39.08
218.087	92.33
218.306	32.94
218.524	98.47
218.742	41.13
218.96	59.56
219.179	37.03
219.397	102.57
219.615	59.56
219.833	57.51
220.051	34.99
220.27	98.47
220.488	94.38
220.706	-1.88
220.924	28.84
221.142	12.46
221.36	8.36
221.578	14.51
221.796	37.03
222.015	65.71
222.233	-1.88
222.451	125.1
222.669	22.7
222.887	98.47
223.105	67.75
223.323	-67.41
223.541	8.36
223.759	55.47
223.977	47.27
224.195	69.8
224.413	37.03
224.631	43.18
224.849	20.65
225.067	135.34
225.285	49.32
225.503	20.65
225.721	4.27
225.939	16.55
226.157	55.47
226.375	67.75
226.592	2.22
226.81	82.09
227.028	26.79
227.246	141.48
227.464	118.95
227.682	82.09
227.9	-5.97
228.117	65.71
228.335	71.85
228.553	65.71
228.771	32.94
228.989	57.51
229.206	71.85
229.424	86.19
229.642	16.55
229.86	110.76
230.077	45.23
230.295	49.32
230.513	51.37
230.731	71.85
230.948	94.38
231.166	45.23
231.384	-3.93
231.601	-32.6
231.819	77.99
232.037	102.57
232.254	37.03
232.472	106.67
232.689	-3.93
232.907	98.47
233.125	16.55
233.342	92.33
233.56	77.99
233.777	12.46
233.995	2.22
234.213	143.53
234.43	98.47
234.648	106.67
234.865	114.86
235.083	0.17
235.3	59.56
235.518	98.47
235.735	102.57
235.953	92.33
236.17	43.18
236.388	77.99
236.605	45.23
236.822	61.61
237.04	18.6
237.257	80.04
237.475	59.56
237.692	39.08
237.909	112.81
238.127	53.42
238.344	106.67
238.562	75.95
238.779	20.65
238.996	39.08
239.214	61.61
239.431	43.18
239.648	24.75
239.865	57.51
240.083	53.42
240.3	14.51
240.517	18.6
240.735	59.56
240.952	100.52
241.169	116.9
241.386	-10.07
241.603	127.14
241.821	32.94
242.038	71.85
242.255	14.51
242.472	-16.21
242.689	88.23
242.907	55.47
243.124	2.22
243.341	90.28
243.558	73.9
243.775	43.18
243.992	69.8
244.209	151.72
244.426	96.43
244.643	149.67
244.86	127.14
245.078	98.47
245.295	37.03
245.512	28.84
245.729	57.51
245.946	61.61
246.163	55.47
246.38	82.09
246.597	-26.45
246.814	6.31
247.031	39.08
247.248	102.57
247.464	63.66
247.681	55.47
247.898	20.65
248.115	49.32
248.332	73.9
248.549	180.39
248.766	37.03
248.983	55.47
249.2	49.32
249.417	98.47
249.633	-8.02
249.85	39.08
250.067	61.61
250.284	96.43
250.501	4.27
250.717	69.8
250.934	-22.36
251.151	-28.5
251.368	61.61
251.585	80.04
251.801	96.43
252.018	34.99
252.235	53.42
252.451	12.46
252.668	43.18
252.885	59.56
253.102	51.37
253.318	43.18
253.535	16.55
253.752	18.6
253.968	41.13
254.185	61.61
254.401	63.66
254.618	53.42
254.835	86.19
255.051	49.32
255.268	39.08
255.484	53.42
255.701	49.32
255.917	45.23
256.134	-24.4
256.351	77.99
256.567	8.36
256.784	90.28
257	49.32
257.217	67.75
257.433	6.31
257.65	82.09
257.866	6.31
258.082	39.08
258.299	80.04
258.515	45.23
258.732	98.47
258.948	61.61
259.165	53.42
259.381	55.47
259.597	61.61
259.814	43.18
260.03	170.15
260.246	73.9
260.463	4.27
260.679	22.7
260.895	139.43
261.112	80.04
261.328	55.47
261.544	4.27
261.761	86.19
261.977	6.31
262.193	37.03
262.409	28.84
262.626	53.42
262.842	65.71
263.058	80.04
263.274	41.13
263.49	24.75
263.707	82.09
263.923	80.04
264.139	-10.07
264.355	49.32
264.571	80.04
264.787	61.61
265.004	129.19
265.22	88.23
265.436	12.46
265.652	26.79
265.868	10.41
266.084	20.65
266.3	69.8
266.516	61.61
266.732	-12.12
266.948	96.43
267.164	-1.88
267.38	28.84
267.596	110.76
267.812	47.27
268.028	88.23
268.244	2.22
268.46	98.47
268.676	4.27
268.892	47.27
269.108	51.37
269.324	45.23
269.54	-5.97
269.756	100.52
269.972	57.51
270.188	-8.02
270.403	61.61
270.619	59.56
270.835	-8.02
271.051	84.14
271.267	37.03
271.483	53.42
271.698	133.29
271.914	12.46
272.13	65.71
272.346	20.65
272.562	26.79
272.777	61.61
272.993	45.23
273.209	41.13
273.425	157.86
273.64	96.43
273.856	47.27
274.072	34.99
274.287	51.37
274.503	18.6
274.719	61.61
274.934	61.61
275.15	34.99
275.366	32.94
275.581	82.09
275.797	-8.02
276.012	112.81
276.228	118.95
276.444	106.67
276.659	63.66
276.875	82.09
277.09	28.84
277.306	82.09
277.521	67.75
277.737	65.71
277.952	172.2
278.168	106.67
278.383	75.95
278.599	82.09
278.814	75.95
279.03	34.99
279.245	110.76
279.461	37.03
279.676	32.94
279.892	51.37
280.107	37.03
280.322	-40.79
280.538	92.33
280.753	45.23
280.969	49.32
281.184	71.85
281.399	104.62
281.615	43.18
281.83	65.71
282.045	53.42
282.26	63.66
282.476	84.14
282.691	82.09
282.906	88.23
283.122	59.56
283.337	71.85
283.552	88.23
283.767	71.85
283.983	20.65
284.198	53.42
284.413	75.95
284.628	67.75
284.843	106.67
285.058	34.99
285.274	39.08
285.489	55.47
285.704	75.95
285.919	90.28
286.134	43.18
286.349	65.71
286.564	8.36
286.779	-14.17
286.995	80.04
287.21	67.75
287.425	102.57
287.64	30.89
287.855	39.08
288.07	49.32
288.285	16.55
288.5	92.33
288.715	86.19
288.93	55.47
289.145	43.18
289.36	43.18
289.575	41.13
289.79	94.38
290.004	63.66
290.219	26.79
290.434	47.27
290.649	-67.41
290.864	20.65
291.079	22.7
291.294	-34.64
291.509	75.95
291.724	100.52
291.938	65.71
292.153	32.94
292.368	-1.88
292.583	88.23
292.798	108.71
293.012	215.21
293.227	41.13
293.442	73.9
293.657	90.28
293.871	39.08
294.086	0.17
294.301	71.85
294.516	98.47
294.73	63.66
294.945	131.24
295.16	12.46
295.374	98.47
295.589	80.04
295.804	100.52
296.018	28.84
296.233	53.42
296.447	75.95
296.662	0.17
296.877	71.85
297.091	100.52
297.306	45.23
297.52	34.99
297.735	125.1
297.949	80.04
298.164	61.61
298.378	51.37
298.593	-22.36
298.807	98.47
299.022	61.61
299.236	100.52
299.451	73.9
299.665	75.95
299.88	92.33
300.094	59.56
300.309	8.36
300.523	51.37
300.737	71.85
300.952	100.52
301.166	30.89
301.381	6.31
301.595	61.61
301.809	45.23
302.024	34.99
302.238	55.47
302.452	18.6
302.667	37.03
302.881	98.47
303.095	41.13
303.309	26.79
303.524	73.9
303.738	20.65
303.952	71.85
304.166	90.28
304.381	20.65
304.595	69.8
304.809	59.56
305.023	96.43
305.237	18.6
305.452	55.47
305.666	94.38
305.88	133.29
306.094	59.56
306.308	135.34
306.522	37.03
306.736	92.33
306.95	65.71
307.164	45.23
307.379	116.9
307.593	88.23
307.807	14.51
308.021	18.6
308.235	123.05
308.449	67.75
308.663	12.46
308.877	114.86
309.091	41.13
309.305	69.8
309.519	71.85
309.733	37.03
309.947	49.32
310.161	133.29
310.374	106.67
310.588	80.04
310.802	77.99
311.016	16.55
311.23	37.03
311.444	51.37
311.658	53.42
311.872	86.19
312.085	32.94
312.299	145.58
312.513	10.41
312.727	2.22
312.941	65.71
313.154	26.79
313.368	75.95
313.582	100.52
313.796	14.51
314.009	43.18
314.223	49.32
314.437	112.81
314.651	90.28
314.864	47.27
315.078	80.04
315.292	131.24
315.505	71.85
315.719	86.19
315.933	51.37
316.146	6.31
316.36	63.66
316.573	96.43
316.787	92.33
317.001	123.05
317.214	88.23
317.428	10.41
317.641	53.42
317.855	41.13
318.068	118.95
318.282	131.24
318.495	-5.97
318.709	69.8
318.922	55.47
319.136	41.13
319.349	188.58
319.563	118.95
319.776	108.71
319.99	94.38
320.203	69.8
320.417	49.32
320.63	82.09
320.843	75.95
321.057	-3.93
321.27	-22.36
321.483	118.95
321.697	84.14
321.91	102.57
322.124	94.38
322.337	131.24
322.55	16.55
322.763	20.65
322.977	80.04
323.19	59.56
323.403	57.51
323.617	67.75
323.83	88.23
324.043	102.57
324.256	75.95
324.469	49.32
324.683	139.43
324.896	30.89
325.109	121
325.322	55.47
325.535	116.9
325.748	65.71
325.962	53.42
326.175	41.13
326.388	80.04
326.601	32.94
326.814	77.99
327.027	43.18
327.24	145.58
327.453	71.85
327.666	39.08
327.879	75.95
328.092	55.47
328.305	12.46
328.518	39.08
328.731	28.84
328.944	8.36
329.157	67.75
329.37	73.9
329.583	135.34
329.796	61.61
330.009	8.36
330.222	90.28
330.435	127.14
330.648	104.62
330.861	94.38
331.073	73.9
331.286	43.18
331.499	77.99
331.712	92.33
331.925	69.8
332.138	16.55
332.35	80.04
332.563	-3.93
332.776	137.38
332.989	37.03
333.202	77.99
333.414	84.14
333.627	-1.88
333.84	41.13
334.053	106.67
334.265	73.9
334.478	63.66
334.691	67.75
334.903	20.65
335.116	39.08
335.329	121
335.541	61.61
335.754	174.25
335.966	141.48
336.179	94.38
336.392	18.6
336.604	92.33
336.817	71.85
337.029	39.08
337.242	114.86
337.454	34.99
337.667	90.28
337.88	69.8
338.092	80.04
338.305	77.99
338.517	71.85
338.729	104.62
338.942	125.1
339.154	110.76
339.367	82.09
339.579	67.75
339.792	47.27
340.004	80.04
340.217	106.67
340.429	145.58
340.641	30.89
340.854	92.33
341.066	96.43
341.278	133.29
341.491	61.61
341.703	37.03
341.915	37.03
342.128	20.65
342.34	86.19
342.552	69.8
342.764	41.13
342.977	34.99
343.189	69.8
343.401	67.75
343.613	30.89
343.826	28.84
344.038	61.61
344.25	63.66
344.462	143.53
344.674	80.04
344.886	104.62
345.099	65.71
345.311	65.71
345.523	71.85
345.735	24.75
345.947	-1.88
346.159	49.32
346.371	92.33
346.583	0.17
346.795	137.38
347.007	84.14
347.219	75.95
347.431	41.13
347.643	88.23
347.855	28.84
348.067	147.62
348.279	80.04
348.491	67.75
348.703	82.09
348.915	88.23
349.127	14.51
349.339	73.9
349.551	57.51
349.763	141.48
349.975	55.47
350.187	159.91
350.399	149.67
350.61	90.28
350.822	80.04
351.034	80.04
351.246	71.85
351.458	61.61
351.669	90.28
351.881	129.19
352.093	98.47
352.305	53.42
352.517	84.14
352.728	73.9
352.94	110.76
353.152	131.24
353.363	61.61
353.575	77.99
353.787	104.62
353.999	96.43
354.21	149.67
354.422	84.14
354.633	65.71
354.845	88.23
355.057	63.66
355.268	86.19
355.48	45.23
355.692	57.51
355.903	32.94
356.115	41.13
356.326	28.84
356.538	77.99
356.749	116.9
356.961	131.24
357.172	41.13
357.384	41.13
357.595	69.8
357.807	104.62
358.018	100.52
358.23	127.14
358.441	65.71
358.653	14.51
358.864	34.99
359.075	49.32
359.287	88.23
359.498	112.81
359.709	63.66
359.921	172.2
360.132	102.57
360.344	43.18
360.555	80.04
360.766	102.57
360.977	84.14
361.189	73.9
361.4	63.66
361.611	133.29
361.823	86.19
362.034	71.85
362.245	61.61
362.456	98.47
362.667	73.9
362.879	41.13
363.09	90.28
363.301	-32.6
363.512	39.08
363.723	90.28
363.935	30.89
364.146	86.19
364.357	133.29
364.568	84.14
364.779	63.66
364.99	24.75
365.201	41.13
365.412	98.47
365.623	86.19
365.834	63.66
366.045	104.62
366.256	137.38
366.467	12.46
366.678	63.66
366.889	28.84
367.1	82.09
367.311	139.43
367.522	71.85
367.733	131.24
367.944	153.77
368.155	24.75
368.366	84.14
368.577	61.61
368.788	106.67
368.999	24.75
369.209	94.38
369.42	127.14
369.631	88.23
369.842	123.05
370.053	106.67
370.264	63.66
370.474	94.38
370.685	98.47
370.896	155.82
371.107	98.47
371.317	69.8
371.528	75.95
371.739	135.34
371.95	75.95
372.16	133.29
372.371	112.81
372.582	77.99
372.792	96.43
373.003	55.47
373.214	49.32
373.424	106.67
373.635	37.03
373.846	135.34
374.056	69.8
374.267	90.28
374.477	106.67
374.688	80.04
374.898	10.41
375.109	90.28
375.319	196.78
375.53	106.67
375.74	106.67
375.951	75.95
376.161	135.34
376.372	61.61
376.582	69.8
376.793	90.28
377.003	57.51
377.214	84.14
377.424	26.79
377.635	88.23
377.845	37.03
378.055	121
378.266	75.95
378.476	108.71
378.686	80.04
378.897	80.04
379.107	106.67
379.317	121
379.528	61.61
379.738	108.71
379.948	127.14
380.158	65.71
380.369	39.08
380.579	57.51
380.789	53.42
380.999	67.75
381.21	141.48
381.42	159.91
381.63	176.3
381.84	98.47
382.05	14.51
382.261	108.71
382.471	82.09
382.681	125.1
382.891	100.52
383.101	164.01
383.311	145.58
383.521	63.66
383.731	63.66
383.941	57.51
384.151	104.62
384.361	94.38
384.571	106.67
384.781	96.43
384.991	118.95
385.201	69.8
385.411	129.19
385.621	102.57
385.831	108.71
386.041	149.67
386.251	90.28
386.461	127.14
386.671	121
386.881	147.62
387.091	116.9
387.301	90.28
387.511	129.19
387.72	104.62
387.93	88.23
388.14	133.29
388.35	104.62
388.56	110.76
388.769	170.15
388.979	92.33
389.189	20.65
389.399	149.67
389.609	123.05
389.818	110.76
390.028	75.95
390.238	182.44
390.447	96.43
390.657	139.43
390.867	110.76
391.076	170.15
391.286	49.32
391.496	92.33
391.705	75.95
391.915	80.04
392.125	112.81
392.334	155.82
392.544	118.95
392.753	211.11
392.963	88.23
393.172	49.32
393.382	133.29
393.591	100.52
393.801	143.53
394.01	84.14
394.22	186.54
394.429	151.72
394.639	149.67
394.848	96.43
395.058	180.39
395.267	96.43
395.477	116.9
395.686	170.15
395.895	143.53
396.105	213.16
396.314	176.3
396.524	166.06
396.733	180.39
396.942	129.19
397.152	121
397.361	116.9
397.57	125.1
397.78	104.62
397.989	172.2
398.198	204.97
398.407	198.82
398.617	90.28
398.826	143.53
399.035	178.34
399.244	159.91
399.453	164.01
399.663	186.54
399.872	121
400.081	125.1
400.29	200.87
400.499	116.9
400.708	190.63
400.917	198.82
401.127	231.59
401.336	133.29
401.545	209.06
401.754	178.34
401.963	186.54
402.172	168.1
402.381	200.87
402.59	149.67
402.799	207.02
403.008	180.39
403.217	229.54
403.426	219.3
403.635	125.1
403.844	196.78
404.053	227.5
404.262	157.86
404.471	221.35
404.68	200.87
404.888	221.35
405.097	176.3
405.306	254.12
405.515	323.75
405.724	288.93
405.933	264.36
406.142	237.74
406.35	219.3
406.559	229.54
406.768	272.55
406.977	338.09
407.185	266.41
407.394	284.84
407.603	268.45
407.812	268.45
408.02	276.65
408.229	333.99
408.438	385.19
408.646	336.04
408.855	276.65
409.064	426.15
409.272	411.81
409.481	420
409.69	366.76
409.898	350.37
410.107	407.72
410.315	446.63
410.524	346.28
410.733	479.4
410.941	428.2
411.15	614.56
411.358	530.59
411.567	508.07
411.775	526.5
411.984	538.79
412.192	549.03
412.401	630.95
412.609	651.42
412.818	708.77
413.026	616.61
413.234	671.9
413.443	694.43
413.651	727.2
413.86	792.73
414.068	837.79
414.276	802.97
414.485	821.41
414.693	876.7
414.901	813.21
415.11	913.56
415.318	1013.92
415.526	1042.59
415.734	1128.6
415.943	1018.01
416.151	1132.7
416.359	1061.02
416.567	1163.42
416.776	1140.89
416.984	1269.91
417.192	1276.06
417.4	1314.97
417.608	1353.88
417.817	1388.69
418.025	1552.53
418.233	1697.94
418.441	1581.2
418.649	1650.83
418.857	1687.7
419.065	1710.22
419.273	1779.86
419.481	1851.53
419.689	2029.71
419.897	1992.84
420.105	2062.48
420.313	2115.72
420.521	2134.15
420.729	2134.15
420.937	2302.09
421.145	2357.38
421.353	2437.25
421.561	2621.57
421.769	2732.16
421.977	2728.07
422.185	2707.59
422.393	2990.21
422.601	3029.12
422.809	2996.35
423.017	3080.32
423.224	3211.39
423.432	3272.82
423.64	3346.55
423.848	3461.24
424.056	3534.96
424.263	3842.16
424.471	3852.4
424.679	3782.77
424.887	4126.83
425.094	4173.93
425.302	4364.39
425.51	4522.09
425.718	4616.29
425.925	4661.35
426.133	4862.05
426.341	4913.25
426.548	5220.44
426.756	5124.19
426.964	5328.99
427.171	5548.12
427.379	5716.05
427.586	5834.83
427.794	6086.73
428.001	6330.44
428.209	6619.21
428.417	6473.8
428.624	6854.72
428.832	6963.26
429.039	6844.48
429.247	6971.46
429.454	7665.72
429.662	7999.54
429.869	7653.43
430.076	8013.87
430.284	7981.1
430.491	8224.81
430.699	8820.77
430.906	8679.46
431.114	8820.77
431.321	9189.41
431.528	9226.27
431.736	9908.24
431.943	10319.89
432.15	9926.68
432.358	10102.8
432.565	10612.74
432.772	10760.2
432.979	11401.21
433.187	11368.45
433.394	11196.42
433.601	12290.03
433.808	12316.65
434.016	12265.46
434.223	12541.93
434.43	13637.59
434.637	13471.71
434.844	14065.62
435.052	14149.59
435.259	14170.07
435.466	14692.3
435.673	14256.08
435.88	15394.75
436.087	15873.98
436.294	16046.01
436.501	15771.58
436.708	16154.55
436.915	16721.84
437.122	17090.47
437.329	17117.09
437.537	17735.58
437.743	18030.49
437.95	17981.34
438.157	18562.96
438.364	19437.44
438.571	19392.39
438.778	19689.34
438.985	21307.24
439.192	20584.3
439.399	21272.42
439.606	20864.88
439.813	21813.09
440.02	23244.62
440.227	22783.82
440.433	22671.18
440.64	23416.65
440.847	23166.79
441.054	23766.85
441.261	25575.2
441.467	24835.89
441.674	25573.16
441.881	26586.9
442.088	26205.98
442.294	26412.82
442.501	26961.68
442.708	27453.19
442.914	28606.2
443.121	29546.22
443.328	29179.63
443.534	31026.9
443.741	29986.53
443.948	29474.54
444.154	31942.34
444.361	31823.56
444.568	31780.55
444.774	32083.65
444.981	32480.96
445.187	33167.02
445.394	34811.54
445.6	34262.69
445.807	37668.46
446.013	35677.83
446.22	36470.4
446.426	38057.57
446.633	38180.45
446.839	39585.36
447.046	37813.87
447.252	39714.38
447.459	40162.89
447.665	39900.75
447.871	42200.61
448.078	43226.65
448.284	41328.18
448.491	42663.46
448.697	44137.99
448.903	45012.48
449.11	45006.33
449.316	44393.99
449.522	45159.93
449.728	46542.31
449.935	46566.88
450.141	46398.95
450.347	48160.2
450.553	46210.54
450.76	46869.98
450.966	48274.89
451.172	48131.53
451.378	48969.15
451.584	48035.28
451.791	49405.37
451.997	49173.95
452.203	50265.52
452.409	49817.01
452.615	49821.11
452.821	47492.57
453.027	48033.23
453.233	49888.69
453.44	48221.64
453.646	48813.51
453.852	49083.84
454.058	49790.39
454.264	48197.07
454.47	49434.04
454.676	48127.44
454.882	49776.05
455.088	45368.82
455.294	46294.5
455.5	46548.45
455.705	47238.62
455.911	45835.76
456.117	44832.25
456.323	44019.21
456.529	41684.53
456.735	43214.36
456.941	42718.75
457.147	41975.34
457.352	40635.97
457.558	40150.6
457.764	40406.59
457.97	39382.61
458.176	38559.33
458.381	38921.82
458.587	36851.32
458.793	36757.11
458.999	34825.88
459.204	37619.31
459.41	36359.81
459.616	33773.22
459.821	34066.08
460.027	33865.38
460.233	33250.99
460.438	31815.37
460.644	31940.29
460.85	30656.21
461.055	29728.49
461.261	30269.15
461.466	27897.6
461.672	27195.15
461.878	28602.1
462.083	26976.02
462.289	26595.09
462.494	26193.69
462.7	25014.06
462.905	24194.87
463.111	25179.95
463.316	25358.12
463.522	24559.41
463.727	24907.57
463.932	24917.81
464.138	24643.38
464.343	24327.99
464.549	23875.39
464.754	24567.6
464.959	24153.91
465.165	24149.82
465.37	23103.31
465.575	22423.38
465.781	23562.05
465.986	23527.24
466.191	22732.62
466.397	22216.54
466.602	21264.23
466.807	22175.58
467.012	22062.94
467.218	21995.36
467.423	21735.26
467.628	22167.38
467.833	22609.75
468.038	21909.34
468.244	21434.21
468.449	22146.9
468.654	21530.47
468.859	20995.95
469.064	21014.38
469.269	20150.14
469.474	20412.28
469.679	20891.5
469.885	20187
470.09	20940.65
470.295	20330.36
470.5	19920.76
470.705	20080.5
470.91	19556.22
471.115	19242.89
471.32	20021.11
471.525	19701.63
471.73	19281.8
471.935	18945.93
472.139	18466.7
472.344	18784.14
472.549	18169.75
472.754	18288.53
472.959	17907.61
473.164	17616.8
473.369	17371.04
473.574	18028.44
473.778	17903.51
473.983	17862.55
474.188	17350.56
474.393	16914.34
474.598	16777.13
474.802	16793.51
475.007	16420.78
475.212	16568.24
475.417	16074.68
475.621	16129.97
475.826	16160.69
476.031	15882.17
476.235	15443.9
476.44	15687.61
476.645	15202.24
476.849	15245.25
477.054	15214.53
477.259	15192
477.463	15163.33
477.668	14530.51
477.872	14819.27
478.077	14391.25
478.282	14039
478.486	14237.65
478.691	14000.09
478.895	13922.26
479.1	14063.57
479.304	13883.35
479.509	13615.07
479.713	13742.04
479.918	13447.13
480.122	13262.82
480.326	13498.33
480.531	13469.66
480.735	13184.99
480.94	13303.78
481.144	13375.45
481.348	12922.85
481.553	12900.33
481.757	12726.25
481.961	12980.2
482.166	13060.07
482.37	13211.62
482.574	12548.08
482.778	12677.1
482.983	13039.59
483.187	12972
483.391	12937.19
483.595	12824.55
483.8	12507.12
484.004	12861.41
484.208	12890.09
484.412	12777.45
484.616	13004.77
484.821	12679.15
485.025	12580.84
485.229	12754.92
485.433	12509.16
485.637	12883.94
485.841	12713.96
486.045	12871.65
486.249	12840.93
486.453	12642.28
486.657	12894.18
486.861	12847.08
487.065	12466.16
487.269	12656.62
487.473	12593.13
487.677	12869.61
487.881	12904.42
488.085	12754.92
488.289	12857.32
488.493	12730.34
488.697	12851.17
488.901	12916.71
489.105	13121.51
489.309	12967.91
489.512	13039.59
489.716	12945.38
489.92	12861.41
490.124	13023.2
490.328	13410.27
490.531	13049.83
490.735	13039.59
490.939	13152.23
491.143	13107.17
491.346	13193.19
491.55	13432.8
491.754	13314.02
491.958	13477.85
492.161	13174.75
492.365	13455.33
492.569	13481.95
492.772	13500.38
492.976	13459.42
493.18	13832.15
493.383	13754.33
493.587	13963.22
493.79	13897.69
493.994	13924.31
494.197	13830.1
494.401	14131.16
494.605	14163.92
494.808	14280.66
495.012	14274.51
495.215	14366.67
495.419	14520.27
495.622	14479.31
495.825	14880.71
496.029	14835.66
496.232	15013.83
496.436	14878.66
496.639	15241.15
496.843	15282.11
497.046	15810.49
497.249	15646.65
497.453	15925.18
497.656	15974.33
497.859	16101.3
498.063	16156.6
498.266	16426.93
498.469	16572.33
498.673	16912.3
498.876	17123.24
499.079	16979.88
499.282	17004.46
499.485	17416.1
499.689	17520.54
499.892	17819.55
500.095	17958.81
500.298	18282.39
500.501	18239.38
500.705	18552.72
500.908	18855.82
501.111	18997.13
501.314	19013.51
501.517	19337.09
501.72	19488.64
501.923	19832.7
502.126	20068.22
502.329	20191.09
502.532	20535.15
502.735	20529.01
502.938	20862.83
503.141	21065.58
503.344	21286.76
503.547	21153.64
503.75	21579.62
503.953	22169.43
504.156	22021.98
504.359	22316.89
504.562	22402.9
504.765	23058.25
504.968	22808.4
505.17	23723.84
505.373	23242.57
505.576	23746.37
505.779	24203.07
505.982	24264.5
506.185	24502.07
506.387	24870.7
506.59	24999.73
506.793	25204.52
506.996	25501.48
507.198	26230.55
507.401	25820.96
507.604	26130.2
507.807	26857.23
508.009	26949.39
508.212	27291.4
508.415	27184.91
508.617	27815.68
508.82	27899.65
509.022	27797.25
509.225	28458.74
509.428	28829.43
509.63	29212.4
509.833	29169.39
510.035	30283.48
510.238	29527.78
510.44	29837.03
510.643	30590.68
510.845	30947.03
511.048	30908.12
511.25	31157.97
511.453	31237.84
511.655	32478.91
511.858	32128.7
512.06	32181.95
512.262	32603.83
512.465	32782.01
512.667	33095.35
512.87	33250.99
513.072	33693.35
513.274	34088.61
513.477	34700.95
513.679	35331.73
513.881	35063.44
514.084	35339.92
514.286	35356.3
514.488	35962.5
514.69	36738.68
514.893	36431.49
515.095	36734.59
515.297	37320.31
515.499	37445.23
515.701	38104.68
515.904	38227.56
516.106	38399.58
516.308	38915.67
516.51	38895.19
516.712	39190.1
516.914	39855.69
517.116	40162.89
517.318	40478.27
517.52	40285.76
517.722	40885.82
517.925	41774.64
518.127	41520.69
518.329	41637.42
518.531	41764.4
518.733	42554.91
518.935	43066.91
519.136	42866.2
519.338	43922.96
519.54	43183.64
519.742	44074.51
519.944	44396.04
520.146	44981.76
520.348	44893.69
520.55	44979.71
520.752	45467.12
520.954	46204.39
521.155	45786.61
521.357	46743.01
521.559	46540.26
521.761	47525.33
521.963	47072.73
522.164	47797.71
522.366	47781.33
522.568	48330.19
522.77	48180.68
522.971	49327.55
523.173	48940.48
523.375	49151.42
523.576	49186.24
523.778	49198.52
523.98	49788.34
524.181	49755.57
524.383	50277.8
524.584	50572.71
524.786	50591.14
524.988	50591.14
525.189	51514.78
525.391	51309.98
525.592	51912.08
525.794	51957.14
525.995	51752.34
526.197	51967.38
526.398	52182.41
526.6	52692.36
526.801	53032.32
527.003	52761.99
527.204	52757.89
527.406	53052.8
527.607	53458.3
527.808	53456.25
528.01	52794.76
528.211	53400.96
528.412	54181.23
528.614	54009.2
528.815	54003.06
529.016	54195.57
529.218	54009.2
529.419	54510.95
529.62	54736.23
529.822	54486.38
530.023	54678.89
530.224	54490.48
530.425	54508.91
530.626	54621.55
530.828	54164.85
531.029	55641.43
531.23	54783.33
531.431	55076.19
531.632	55086.43
531.833	55604.57
532.035	55043.43
532.236	55129.44
532.437	55551.32
532.638	55178.59
532.839	55154.02
533.04	55440.73
533.241	54758.76
533.442	55842.13
533.643	55399.77
533.844	55559.51
534.045	55690.58
534.246	55041.38
534.447	55815.51
534.648	55768.41
534.849	55612.76
535.05	55090.53
535.251	55526.75
535.451	55436.64
535.652	55786.84
535.853	55410.01
536.054	55506.27
536.255	55666.01
536.456	55256.42
536.657	56247.63
536.857	55362.91
537.058	55367.01
537.259	56323.41
537.46	55958.87
537.66	55276.9
537.861	55723.35
538.062	55799.13
538.263	55981.4
538.463	55608.67
538.664	55326.05
538.865	55879
539.065	55905.62
539.266	55147.87
539.466	56005.97
539.667	54945.12
539.868	56264.02
540.068	55358.81
540.269	55715.16
540.469	55971.16
540.67	55240.03
540.87	55295.33
541.071	55326.05
541.271	55645.53
541.472	55485.79
541.672	55254.37
541.873	55162.21
542.073	54953.32
542.274	55678.3
542.474	55283.04
542.675	54908.26
542.875	55823.7
543.075	55373.15
543.276	54988.13
543.476	55911.77
543.676	54582.63
543.877	55379.29
544.077	55235.94
544.277	55213.41
544.478	55018.85
544.678	55579.99
544.878	55244.13
545.078	55283.04
545.279	55000.42
545.479	54840.68
545.679	54998.37
545.879	55213.41
546.079	55045.47
546.28	55025
546.48	54695.27
546.68	55047.52
546.88	55092.58
547.08	55250.27
547.28	55162.21
547.48	54670.7
547.68	55350.62
547.88	54875.49
548.081	54979.94
548.281	54992.23
548.481	54973.8
548.681	54986.08
548.881	54578.54
549.081	54928.74
549.28	54599.02
549.48	54973.8
549.68	54801.77
549.88	55596.38
550.08	54371.69
550.28	54900.07
550.48	55020.9
550.68	54938.98
550.88	54871.4
551.08	54551.91
551.279	55149.92
551.479	54674.79
551.679	54637.93
551.879	54297.97
552.079	54732.14
552.278	53974.39
552.478	54936.93
552.678	55047.52
552.878	54846.82
553.077	54306.16
553.277	54244.72
553.477	54764.9
553.676	54248.81
553.876	54472.04
554.076	54426.99
554.275	54338.93
554.475	54048.11
554.674	54742.38
554.874	54451.56
555.074	53925.24
555.273	54678.89
555.473	54494.57
555.672	54506.86
555.872	54080.88
556.071	54193.52
556.271	54691.18
556.47	54039.92
556.67	53523.83
556.869	53876.08
557.068	53841.27
557.268	53642.62
557.467	54023.54
557.667	54095.22
557.866	53863.8
558.065	53673.34
558.265	53482.87
558.464	53708.15
558.663	53910.9
558.863	52817.28
559.062	53925.24
559.261	53151.1
559.461	53828.98
559.66	53312.89
559.859	53425.53
560.058	52919.68
560.258	53329.28
560.457	52807.04
560.656	53282.17
560.855	52858.24
561.054	53194.11
561.253	52833.67
561.453	53298.56
561.652	53390.72
561.851	53249.41
562.05	52563.34
562.249	52495.75
562.448	52911.49
562.647	52766.09
562.846	52493.71
563.045	52727.17
563.244	51793.3
563.443	52663.69
563.642	51817.88
563.841	52508.04
564.04	51813.78
564.239	52600.2
564.438	51781.01
564.637	52020.62
564.836	51977.62
565.035	51697.05
565.234	51821.97
565.432	51551.64
565.631	51557.78
565.83	51738.01
566.029	51455.39
566.228	51709.33
566.427	51447.19
566.625	50869.67
566.824	50525.61
567.023	51463.58
567.222	50101.68
567.42	51508.63
567.619	51023.26
567.818	50843.04
568.016	50458.02
568.215	50988.45
568.414	50431.4
568.612	50714.02
568.811	50355.63
569.01	50544.04
569.208	50070.96
569.407	50435.5
569.605	49718.71
569.804	50460.07
570.002	49771.96
570.201	50038.19
570.4	49411.51
570.598	49413.56
570.797	49190.33
570.995	49771.96
571.193	49266.11
571.392	49776.05
571.59	49051.07
571.789	49296.83
571.987	49206.72
572.186	48668.1
572.384	49116.61
572.582	49362.36
572.781	48782.79
572.979	48461.26
573.177	48833.99
573.376	48938.43
573.574	48336.33
573.772	48469.45
573.971	48254.41
574.169	48149.96
574.367	47904.21
574.565	47873.49
574.763	47982.03
574.962	47836.62
575.16	47447.51
575.358	47785.43
575.556	46953.95
575.754	47752.66
575.952	47136.22
576.151	47640.02
576.349	46906.85
576.547	46837.22
576.745	46880.22
576.943	46802.4
577.141	46910.94
577.339	46644.71
577.537	46669.28
577.735	46919.13
577.933	46280.17
578.131	46579.17
578.329	46366.18
578.527	45866.48
578.725	45944.3
578.923	46167.53
579.121	45786.61
579.319	45692.4
579.516	45917.68
579.714	45377.01
579.912	45221.37
580.11	45233.66
580.308	45352.44
580.506	45321.72
580.704	44332.55
580.901	45172.22
581.099	45553.14
581.297	44557.83
581.495	44746.24
581.692	44826.11
581.89	44746.24
582.088	44865.02
582.285	44275.21
582.483	44310.02
582.681	44248.58
582.878	44011.02
583.076	43574.8
583.274	44408.33
583.471	43550.23
583.669	43367.96
583.866	43234.84
584.064	43646.48
584.262	43163.16
584.459	43298.33
584.657	43300.37
584.854	43535.89
585.052	42931.74
585.249	42987.03
585.447	42892.83
585.644	42575.39
585.841	42759.71
586.039	42888.73
586.236	41811.5
586.434	42335.78
586.631	41705.01
586.828	42173.99
587.026	42071.59
587.223	42223.14
587.42	41612.85
587.618	41989.67
587.815	41578.03
588.012	41465.39
588.21	41131.58
588.407	41719.34
588.604	41426.48
588.801	41102.9
588.999	41047.61
589.196	41016.89
589.393	41031.22
589.59	40826.43
589.787	40367.68
589.984	40392.26
590.182	39986.76
590.379	40396.35
590.576	40003.14
590.773	40199.75
590.97	39810.64
591.167	40158.79
591.364	39626.32
591.561	39691.85
591.758	39466.58
591.955	39312.98
592.152	39798.35
592.349	39366.23
592.546	39466.58
592.743	39310.93
592.94	38659.68
593.137	39056.98
593.334	39095.89
593.531	38227.56
593.727	38827.61
593.924	38446.69
594.121	38327.91
594.318	38258.27
594.515	38108.77
594.712	38041.19
594.908	38035.05
595.105	38280.8
595.302	37611.12
595.499	37459.57
595.696	37688.94
595.892	37369.46
596.089	37537.39
596.286	37850.73
596.482	37355.12
596.679	37305.97
596.876	37324.4
597.072	36759.16
597.269	36734.59
597.466	36503.17
597.662	36599.42
597.859	36507.26
598.055	36816.5
598.252	36038.28
598.448	36568.7
598.645	36249.22
598.841	35927.69
599.038	36028.04
599.234	36169.35
599.431	35364.5
599.627	35520.14
599.824	36087.43
600.02	35387.02
600.217	35118.74
600.413	35315.34
600.609	35360.4
600.806	34645.66
601.002	34999.96
601.198	34762.39
601.395	35045.01
601.591	34627.23
601.787	34565.79
601.984	34076.32
602.18	34643.61
602.376	34387.61
602.572	34127.52
602.769	34404
602.965	33617.58
603.161	33932.96
603.357	33701.54
603.553	33588.91
603.75	33449.64
603.946	33312.43
604.142	33597.1
604.338	33091.25
604.534	33191.6
604.73	33015.47
604.926	33425.07
605.122	33146.54
605.318	32868.02
605.514	32642.74
605.71	32683.7
605.906	32562.87
606.102	32597.69
606.298	32681.66
606.494	32751.29
606.69	32394.94
606.886	32685.75
607.082	32186.05
607.278	32040.64
607.474	31506.12
607.67	32159.42
607.866	31561.42
608.062	32102.08
608.257	31626.95
608.453	31950.53
608.649	32108.22
608.845	31479.5
609.041	31743.69
609.236	31721.16
609.432	31246.03
609.628	31411.92
609.824	31162.06
610.019	31286.99
610.215	31137.49
610.411	31479.5
610.606	31110.86
610.802	31370.96
610.998	30863.06
611.193	30981.84
611.389	30908.12
611.584	30729.94
611.78	30584.54
611.976	30729.94
612.171	30568.15
612.367	30215.9
612.562	30484.19
612.758	30136.03
612.953	30187.23
613.149	30742.23
613.344	29867.75
613.539	30748.37
613.735	30152.41
613.93	30097.12
614.126	30035.68
614.321	30385.88
614.517	30308.06
614.712	29914.85
614.907	29794.02
615.103	29888.23
615.298	29693.67
615.493	29877.99
615.688	29740.77
615.884	29918.95
616.079	29566.7
616.274	29918.95
616.47	29234.92
616.665	29544.17
616.86	29247.21
617.055	29341.42
617.25	28921.59
617.445	29538.02
617.641	29095.66
617.836	29007.6
618.031	28929.78
618.226	29003.5
618.421	28591.86
618.616	28921.59
618.811	28382.97
619.006	29050.61
619.201	28194.56
619.396	28501.75
619.591	27868.93
619.786	28262.14
619.981	27510.53
620.176	28327.67
620.371	27762.44
620.566	27668.23
620.761	27639.56
620.956	27944.7
621.151	27422.47
621.346	27657.99
621.541	26890
621.735	27068.17
621.93	26705.68
622.125	26771.22
622.32	26537.75
622.515	26781.46
622.709	26320.67
622.904	26279.71
623.099	26423.06
623.294	26165.02
623.488	25599.78
623.683	26165.02
623.878	25300.78
624.072	25730.85
624.267	25509.67
624.462	25288.49
624.656	25038.64
624.851	25368.36
625.046	24882.99
625.24	24903.47
625.435	24450.87
625.629	24831.79
625.824	24321.85
626.018	24346.42
626.213	24063.8
626.407	24180.54
626.602	23871.29
626.796	23848.77
626.991	23977.79
627.185	23570.24
627.38	23263.05
627.574	23228.23
627.768	23222.09
627.963	23097.16
628.157	22812.49
628.352	22857.55
628.546	22411.09
628.74	22898.51
628.935	22820.69
629.129	22357.85
629.323	21892.96
629.517	22239.06
629.712	22124.38
629.906	21901.15
630.1	21479.27
630.294	21813.09
630.489	21434.21
630.683	21735.26
630.877	21460.84
631.071	21141.35
631.265	21575.52
631.459	21012.33
631.653	20543.35
631.848	20811.63
632.042	20817.77
632.236	20752.24
632.43	20354.93
632.624	20291.45
632.818	20430.71
633.012	19967.87
633.206	19906.43
633.4	20072.31
633.594	19752.83
633.788	19726.21
633.982	19873.66
634.176	19638.14
634.369	19814.27
634.563	19588.99
634.757	19378.05
634.951	19369.86
635.145	19322.76
635.339	19158.92
635.533	19031.94
635.726	18907.02
635.92	18597.77
636.114	18874.25
636.308	18728.84
636.501	18567.06
636.695	18522
636.889	18409.36
637.083	18309.01
637.276	18048.92
637.47	17936.28
637.664	17975.19
637.857	17971.1
638.051	17756.06
638.244	17512.35
638.438	17684.38
638.632	17637.28
638.825	17395.62
639.019	17268.64
639.212	16861.1
639.406	17250.21
639.599	16983.98
639.793	17143.72
639.986	16601.01
640.18	16693.16
640.373	16854.95
640.567	16693.16
640.76	16627.63
640.954	16404.4
641.147	16256.95
641.34	16334.77
641.534	16502.7
641.727	16254.9
641.92	16154.55
642.114	16070.58
642.307	15933.37
642.5	15720.38
642.694	15454.14
642.887	15667.13
643.08	15761.34
643.273	15585.21
643.467	15394.75
643.66	14776.27
643.853	15189.95
644.046	15079.36
644.239	15181.76
644.432	15024.07
644.626	14933.96
644.819	14686.15
645.012	14766.03
645.205	14753.74
645.398	14600.14
645.591	14340.05
645.784	14604.24
645.977	14241.75
646.17	14116.82
646.363	14063.57
646.556	14071.76
646.749	14208.98
646.942	14219.22
647.135	13793.24
647.328	13934.55
647.521	13987.8
647.714	13674.46
647.907	13623.26
648.099	13545.44
648.292	13600.73
648.485	13584.35
648.678	13322.21
648.871	13486.04
649.064	13275.1
649.256	13307.87
649.449	13012.96
649.642	13320.16
649.835	12902.37
650.027	12918.76
650.22	12947.43
650.413	12804.07
650.605	12761.06
650.798	12894.18
650.991	12625.9
651.183	12683.24
651.376	12435.44
651.568	12431.34
651.761	12374
651.954	12345.33
652.146	12029.94
652.339	12101.62
652.531	12371.95
652.724	11878.39
652.916	11778.04
653.109	11816.95
653.301	11730.94
653.494	11905.01
653.686	11677.69
653.879	11986.93
654.071	11571.19
654.263	11655.16
654.456	11509.76
654.648	11538.43
654.84	11315.2
655.033	11356.16
655.225	11046.91
655.417	11061.25
655.61	11296.77
655.802	11251.71
655.994	10932.23
656.186	11038.72
656.379	10682.38
656.571	10989.57
656.763	10811.4
656.955	10758.15
657.148	10717.19
657.34	10629.13
657.532	10788.87
657.724	10698.76
657.916	10483.72
658.108	10547.21
658.3	10493.96
658.492	10469.39
658.684	10197.01
658.876	10242.06
659.068	10043.41
659.26	10297.36
659.452	10057.75
659.644	10016.79
659.836	9736.21
660.028	9893.91
660.22	9619.48
660.412	9832.47
660.604	9627.67
660.796	9898
660.988	9699.35
661.18	9523.23
661.372	9678.87
661.563	9609.24
661.755	9461.79
661.947	9336.86
662.139	9517.08
662.331	9273.37
662.522	9277.47
662.714	9230.37
662.906	9003.04
663.097	8931.36
663.289	9074.72
663.481	9152.54
663.673	9103.39
663.864	8720.42
664.056	8902.69
664.247	8986.66
664.439	8722.47
664.631	8781.86
664.822	8618.02
665.014	8620.07
665.205	8650.79
665.397	8742.95
665.588	8527.91
665.78	8486.95
665.971	8546.34
666.163	8355.88
666.354	8413.23
666.546	8249.39
666.737	8204.33
666.929	8257.58
667.12	8179.76
667.311	8179.76
667.503	8257.58
667.694	8120.37
667.885	7919.67
668.077	8108.08
668.268	7862.32
668.459	7925.81
668.651	7954.48
668.842	8024.11
669.033	7979.06
669.224	7675.96
669.416	7839.8
669.607	7682.1
669.798	7669.81
669.989	7704.63
670.18	7635
670.371	7522.36
670.563	7616.57
670.754	7512.12
670.945	7405.63
671.136	7381.05
671.327	7376.95
671.518	7374.91
671.709	7360.57
671.9	7237.69
672.091	7346.23
672.282	7202.88
672.473	7268.41
672.664	7039.04
672.855	7139.39
673.046	7133.25
673.237	7184.45
673.428	7084.09
673.619	7077.95
673.809	6891.59
674	6928.45
674.191	7112.77
674.382	6783.04
674.573	6955.07
674.764	6807.62
674.954	7010.37
675.145	6752.32
675.336	6873.15
675.527	6711.36
675.717	6860.87
675.908	6504.52
676.099	6490.18
676.289	6625.35
676.48	6576.2
676.671	6432.84
676.861	6611.01
677.052	6320.2
677.243	6477.9
677.433	6580.29
677.624	6479.94
677.814	6508.62
678.005	6404.17
678.195	6436.94
678.386	6400.07
678.576	6326.35
678.767	6246.48
678.957	6299.72
679.148	6275.15
679.338	6320.2
679.529	6344.78
679.719	6101.07
679.909	6260.81
680.1	6148.17
680.29	6285.39
680.481	6137.93
680.671	6047.82
680.861	6127.69
681.052	6234.19
681.242	6070.35
681.432	6295.63
681.622	5931.09
681.813	6002.77
682.003	5994.58
682.193	5935.18
682.383	5871.7
682.573	5840.98
682.764	5728.34
682.954	5775.44
683.144	5806.16
683.334	5877.84
683.524	5759.06
683.714	5785.68
683.904	5742.68
684.094	5781.59
684.284	5750.87
684.474	5763.15
684.664	5656.66
684.854	5761.11
685.044	5490.77
685.234	5496.92
685.424	5507.16
685.614	5472.34
685.804	5634.13
685.994	5574.74
686.184	5451.86
686.374	5527.64
686.564	5517.4
686.753	5347.42
686.943	5347.42
687.133	5351.51
687.323	5228.63
687.513	5519.45
687.702	5378.14
687.892	5359.7
688.082	5199.96
688.272	5257.31
688.461	5150.81
688.651	5283.93
688.841	5220.44
689.03	5240.92
689.22	5177.44
689.41	5023.84
689.599	5009.5
689.789	5202.01
689.979	5027.93
690.168	5052.51
690.358	4894.82
690.547	4972.64
690.737	5070.94
690.926	4952.16
691.116	4956.26
691.305	4964.45
691.495	4804.71
691.684	4833.38
691.874	4925.54
692.063	4819.04
692.252	4679.78
692.442	4808.8
692.631	4796.51
692.82	4669.54
693.01	4567.14
693.199	4610.15
693.388	4685.92
693.578	4628.58
693.767	4554.85
693.956	4561
694.146	4569.19
694.335	4444.26
694.524	4530.28
694.713	4536.42
694.902	4380.78
695.092	4491.37
695.281	4376.68
695.47	4352.1
695.659	4427.88
695.848	4534.37
696.037	4384.87
696.226	4343.91
696.415	4311.14
696.604	4417.64
696.793	4348.01
696.982	4278.38
697.171	4401.26
697.36	4276.33
697.549	4343.91
697.738	4231.27
697.927	4202.6
698.116	4218.99
698.305	4350.06
698.494	4335.72
698.683	4178.03
698.872	4372.58
699.061	4194.41
699.25	4249.71
699.438	4108.4
699.627	4053.1
699.816	4020.33
700.005	4100.2
700.193	4143.21
700.382	4126.83
700.571	4065.39
700.76	4089.96
700.948	4112.49
701.137	4044.91
701.326	4114.54
701.514	4020.33
701.703	4122.73
701.892	4032.62
702.08	4108.4
702.269	4137.07
702.457	3893.36
702.646	4108.4
702.834	3922.03
703.023	4038.77
703.212	3987.57
703.4	3913.84
703.589	3819.63
703.777	4092.01
703.965	3815.54
704.154	3864.69
704.342	4020.33
704.531	3965.04
704.719	3760.24
704.907	3954.8
705.096	3989.61
705.284	3840.11
705.472	3913.84
705.661	3958.89
705.849	4030.57
706.037	3848.3
706.226	3905.65
706.414	3924.08
706.602	3893.36
706.79	3919.98
706.979	3879.02
707.167	3838.06
707.355	3733.62
707.543	3833.97
707.731	3893.36
707.919	3758.19
708.107	3821.68
708.296	3741.81
708.484	3739.76
708.672	3868.78
708.86	3752.05
709.048	3874.93
709.236	3760.24
709.424	3784.82
709.612	3801.2
709.8	3756.15
709.988	3676.27
710.176	3919.98
710.364	3696.75
710.551	3831.92
710.739	3702.9
710.927	3680.37
711.115	3731.57
711.303	3676.27
711.491	3836.02
711.679	3891.31
711.866	3772.53
712.054	3911.79
712.242	3610.74
712.43	3672.18
712.617	3725.43
712.805	3735.67
712.993	3690.61
713.181	3739.76
713.368	3659.89
713.556	3815.54
713.744	3612.79
713.931	3680.37
714.119	3721.33
714.306	3725.43
714.494	3618.93
714.682	3620.98
714.869	3553.4
715.057	3670.13
715.244	3561.59
715.432	3694.71
715.619	3629.17
715.807	3702.9
715.994	3684.47
716.182	3545.2
716.369	3604.6
716.556	3698.8
716.744	3666.03
716.931	3657.84
717.119	3586.16
717.306	3547.25
717.493	3514.49
717.681	3637.36
717.868	3508.34
718.055	3645.56
718.242	3651.7
718.43	3594.36
718.617	3573.88
718.804	3639.41
718.991	3588.21
719.179	3555.44
719.366	3436.66
719.553	3477.62
719.74	3623.03
719.927	3487.86
720.114	3569.78
720.301	3588.21
720.488	3508.34
720.676	3563.64
720.863	3522.68
721.05	3555.44
721.237	3459.19
721.424	3496.05
721.611	3498.1
721.798	3350.65
721.985	3451
722.172	3453.05
722.358	3489.91
722.545	3477.62
722.732	3389.56
722.919	3420.28
723.106	3424.37
723.293	3487.86
723.48	3448.95
723.667	3367.03
723.853	3352.7
724.04	3420.28
724.227	3360.89
724.414	3379.32
724.6	3387.51
724.787	3422.33
724.974	3477.62
725.161	3494.01
725.347	3407.99
725.534	3399.8
725.72	3338.36
725.907	3342.46
726.094	3418.23
726.28	3442.81
726.467	3424.37
726.653	3426.42
726.84	3315.83
727.027	3240.06
727.213	3354.74
727.4	3283.06
727.586	3278.97
727.773	3379.32
727.959	3264.63
728.145	3367.03
728.332	3369.08
728.518	3217.53
728.705	3317.88
728.891	3207.29
729.077	3192.95
729.264	3330.17
729.45	3197.05
729.636	3477.62
729.823	3240.06
730.009	3317.88
730.195	3276.92
730.382	3293.3
730.568	3252.35
730.754	3326.07
730.94	3225.72
731.126	3219.58
731.313	3266.68
731.499	3465.33
731.685	3479.67
731.871	3276.92
732.057	3285.11
732.243	3231.87
732.429	3278.97
732.615	3324.02
732.801	3229.82
732.987	3207.29
733.173	3172.47
733.359	3186.81
733.545	3217.53
733.731	3137.66
733.917	3283.06
734.103	3147.9
734.289	3143.8
734.475	3182.71
734.661	3254.39
734.847	3199.1
735.033	3076.22
735.219	3102.84
735.404	3272.82
735.59	3113.08
735.776	3086.46
735.962	3199.1
736.148	3211.39
736.333	3133.56
736.519	3053.69
736.705	3145.85
736.89	3088.51
737.076	3070.08
737.262	3022.97
737.447	3195
737.633	3057.79
737.819	3076.22
738.004	3135.61
738.19	3076.22
738.375	3076.22
738.561	3010.68
738.747	3115.13
738.932	2971.77
739.118	3063.93
739.303	3113.08
739.489	2953.34
739.674	2959.49
739.859	2840.7
740.045	2992.25
740.23	2951.29
740.416	2867.33
740.601	2973.82
740.786	2902.14
740.972	2887.81
741.157	2787.46
741.342	2814.08
741.528	2836.61
741.713	2963.58
741.898	2826.37
742.084	2760.83
742.269	2875.52
742.454	2973.82
742.639	2834.56
742.824	2896
743.01	2855.04
743.195	2898.05
743.38	2695.3
743.565	2764.93
743.75	2762.88
743.935	2728.07
744.12	2769.02
744.305	2740.35
744.49	2707.59
744.675	2683.01
744.86	2717.83
745.045	2848.9
745.23	2723.97
745.415	2644.1
745.6	2564.23
745.785	2756.74
745.97	2644.1
746.155	2605.19
746.34	2592.9
746.525	2515.08
746.71	2486.4
746.895	2521.22
747.079	2529.41
747.264	2623.62
747.449	2500.74
747.634	2467.97
747.819	2408.58
748.003	2320.52
748.188	2365.57
748.373	2433.16
748.557	2396.29
748.742	2422.92
748.927	2467.97
749.111	2341
749.296	2386.05
749.481	2445.45
749.665	2310.28
749.85	2300.04
750.034	2320.52
750.219	2291.85
750.404	2250.89
750.588	2246.79
750.773	2263.18
750.957	2250.89
751.141	2285.7
751.326	2222.22
751.51	2214.02
751.695	2166.92
751.879	2097.29
752.064	2089.1
752.248	2080.91
752.432	2205.83
752.617	2142.35
752.801	2078.86
752.985	2033.8
753.17	2025.61
753.354	2003.08
753.538	2082.95
753.722	1994.89
753.907	2082.95
754.091	2056.33
754.275	1970.32
754.459	1955.98
754.643	2027.66
754.828	1849.49
755.012	1994.89
755.196	1912.97
755.38	1908.88
755.564	1919.12
755.748	1790.1
755.932	1822.86
756.116	2054.28
756.3	1859.73
756.484	1749.14
756.668	1714.32
756.852	1761.42
757.036	1757.33
757.22	1722.51
757.404	1642.64
757.588	1685.65
757.772	1796.24
757.956	1693.84
758.14	1654.93
758.323	1824.91
758.507	1630.35
758.691	1687.7
758.875	1646.74
759.059	1751.18
759.242	1583.25
759.426	1644.69
759.61	1536.15
759.794	1609.87
759.977	1603.73
760.161	1609.87
760.345	1620.11
760.528	1564.82
760.712	1579.15
760.895	1618.07
761.079	1556.63
761.263	1499.28
761.446	1509.52
761.63	1497.24
761.813	1474.71
761.997	1472.66
762.18	1425.56
762.364	1450.13
762.547	1470.61
762.731	1482.9
762.914	1450.13
763.098	1415.32
763.281	1427.6
763.464	1454.23
763.648	1433.75
763.831	1464.47
764.015	1415.32
764.198	1478.8
764.381	1398.93
764.564	1421.46
764.748	1411.22
764.931	1398.93
765.114	1368.21
765.297	1372.31
765.481	1310.87
765.664	1296.53
765.847	1435.8
766.03	1435.8
766.213	1286.3
766.397	1368.21
766.58	1288.34
766.763	1298.58
766.946	1349.78
767.129	1306.77
767.312	1239.19
767.495	1292.44
767.678	1329.3
767.861	1317.01
768.044	1210.52
768.227	1308.82
768.41	1210.52
768.593	1276.06
768.776	1210.52
768.959	1251.48
769.142	1351.83
769.324	1327.25
769.507	1237.14
769.69	1255.58
769.873	1132.7
770.056	1202.33
770.239	1196.18
770.421	1251.48
770.604	1151.13
770.787	1282.2
770.97	1177.75
771.152	1104.03
771.335	1095.83
771.518	1155.23
771.7	1104.03
771.883	1132.7
772.066	1063.07
772.248	1173.66
772.431	1208.47
772.613	1065.11
772.796	1140.89
772.978	1093.79
773.161	1011.87
773.343	1071.26
773.526	1112.22
773.708	995.48
773.891	1101.98
774.073	1114.27
774.256	1101.98
774.438	1161.37
774.621	1048.73
774.803	1009.82
774.985	999.58
775.168	956.57
775.35	981.15
775.532	1009.82
775.715	995.48
775.897	927.9
776.079	927.9
776.261	1026.2
776.444	905.37
776.626	979.1
776.808	977.05
776.99	915.61
777.173	1030.3
777.355	884.89
777.537	891.04
777.719	911.52
777.901	932
778.083	950.43
778.265	854.17
778.447	897.18
778.629	815.26
778.811	977.05
778.993	833.69
779.175	903.32
779.357	878.75
779.539	843.93
779.721	888.99
779.903	766.11
780.085	866.46
780.267	856.22
780.449	802.97
780.631	833.69
780.812	805.02
780.994	870.56
781.176	796.83
781.358	823.45
781.54	751.78
781.721	815.26
781.903	741.54
782.085	792.73
782.267	794.78
782.448	721.06
782.63	723.1
782.812	712.86
782.993	723.1
783.175	741.54
783.357	768.16
783.538	716.96
783.72	745.63
783.901	671.9
784.083	719.01
784.264	680.1
784.446	655.52
784.627	684.19
784.809	698.53
784.99	659.62
785.172	639.14
785.353	653.47
785.535	647.33
785.716	663.71
785.897	608.42
786.079	544.93
786.26	624.8
786.441	680.1
786.623	592.03
786.804	655.52
786.985	639.14
787.167	540.83
787.348	655.52
787.529	596.13
787.71	506.02
787.891	499.88
788.073	514.21
788.254	608.42
788.435	581.79
788.616	563.36
788.797	497.83
788.978	549.03
789.159	569.51
789.34	551.07
789.522	508.07
789.703	645.28
789.884	549.03
790.065	524.45
790.246	526.5
790.427	489.64
790.607	546.98
790.788	442.53
790.969	596.13
791.15	463.01
791.331	473.25
791.512	393.38
791.693	522.4
791.874	483.49
792.054	532.64
792.235	526.5
792.416	377
792.597	397.48
792.778	477.35
792.958	422.05
793.139	483.49
793.32	495.78
793.5	471.2
793.681	546.98
793.862	452.77
794.042	424.1
794.223	428.2
794.404	452.77
794.584	366.76
794.765	319.65
794.945	440.48
795.126	465.06
795.306	448.68
795.487	403.62
795.667	481.44
795.848	426.15
796.028	368.81
796.209	456.87
796.389	465.06
796.57	440.48
796.75	350.37
796.93	385.19
797.111	417.96
797.291	391.33
797.471	401.57
797.652	409.76
797.832	309.41
798.012	475.3
798.192	348.33
798.373	301.22
798.553	407.72
798.733	352.42
798.913	381.09
799.093	440.48
799.274	381.09
799.454	415.91
799.634	454.82
799.814	391.33
799.994	360.61
800.174	452.77
800.354	293.03
800.534	346.28
800.714	358.57
800.894	358.57
801.074	293.03
801.254	342.18
801.434	354.47
801.614	297.13
801.794	278.69
801.974	798.88
802.154	303.27
802.334	389.28
802.514	233.64
802.693	442.53
802.873	317.61
803.053	340.13
803.233	346.28
803.413	276.65
803.592	293.03
803.772	270.5
803.952	268.45
804.131	280.74
804.311	366.76
804.491	368.81
804.67	391.33
804.85	303.27
805.03	364.71
805.209	284.84
805.389	309.41
805.568	344.23
805.748	299.17
805.928	254.12
806.107	293.03
806.287	247.97
806.466	364.71
806.646	290.98
806.825	342.18
807.004	272.55
807.184	301.22
807.363	262.31
807.543	194.73
807.722	327.85
807.901	272.55
808.081	280.74
808.26	217.26
808.439	325.8
808.619	262.31
808.798	321.7
808.977	346.28
809.156	276.65
809.336	211.11
809.515	278.69
809.694	202.92
809.873	172.2
810.052	223.4
810.231	305.32
810.411	239.78
810.59	233.64
810.769	276.65
810.948	354.47
811.127	237.74
811.306	172.2
811.485	235.69
811.664	278.69
811.843	290.98
812.022	225.45
812.201	223.4
812.38	288.93
812.559	295.08
812.737	227.5
812.916	184.49
813.095	272.55
813.274	188.58
813.453	274.6
813.632	272.55
813.811	313.51
813.989	176.3
814.168	235.69
814.347	272.55
814.526	182.44
814.704	196.78
814.883	276.65
815.062	278.69
815.24	266.41
815.419	176.3
815.598	237.74
815.776	161.96
815.955	200.87
816.133	184.49
816.312	204.97
816.49	209.06
816.669	174.25
816.847	157.86
817.026	237.74
817.204	194.73
817.383	217.26
817.561	153.77
817.74	250.02
817.918	192.68
818.097	151.72
818.275	166.06
818.453	237.74
818.632	229.54
818.81	178.34
818.988	211.11
819.167	213.16
819.345	194.73
819.523	184.49
819.701	141.48
819.879	166.06
820.058	213.16
820.236	213.16
820.414	159.91
820.592	196.78
820.77	145.58
820.948	178.34
821.127	178.34
821.305	190.63
821.483	114.86
821.661	108.71
821.839	213.16
822.017	149.67
822.195	176.3
822.373	176.3
822.551	276.65
822.729	123.05
822.907	155.82
823.085	141.48
823.262	149.67
823.44	186.54
823.618	143.53
823.796	168.1
823.974	88.23
824.152	184.49
824.329	118.95
824.507	198.82
824.685	151.72
824.863	196.78
825.04	170.15
825.218	243.88
825.396	55.47
825.574	125.1
825.751	127.14
825.929	178.34
826.107	114.86
826.284	147.62
826.462	231.59
826.639	151.72
826.817	67.75
826.994	207.02
827.172	155.82
827.349	231.59
827.527	133.29
827.704	135.34
827.882	182.44
828.059	131.24
828.237	178.34
828.414	153.77
828.591	153.77
828.769	131.24
828.946	92.33
829.124	151.72
829.301	188.58
829.478	125.1
829.655	84.14
829.833	145.58
830.01	100.52
830.187	116.9
830.364	59.56
830.542	223.4
830.719	188.58
830.896	180.39
831.073	98.47
831.25	125.1
831.427	88.23
831.604	125.1
831.782	170.15
831.959	114.86
832.136	155.82
832.313	114.86
832.49	139.43
832.667	131.24
832.844	129.19
833.021	149.67
833.198	59.56
833.374	133.29
833.551	135.34
833.728	94.38
833.905	155.82
834.082	51.37
834.259	127.14
834.436	174.25
834.612	98.47
834.789	88.23
834.966	63.66
835.143	194.73
835.319	43.18
835.496	71.85
835.673	106.67
835.85	121
836.026	133.29
836.203	170.15
836.38	82.09
836.556	125.1
836.733	145.58
836.909	88.23
837.086	110.76
837.262	90.28
837.439	30.89
837.616	47.27
837.792	127.14
837.968	112.81
838.145	65.71
838.321	106.67
838.498	69.8
838.674	112.81
838.851	166.06
839.027	145.58
839.203	82.09
839.38	118.95
839.556	102.57
839.732	155.82
839.909	14.51
840.085	135.34
840.261	69.8
840.437	131.24
840.614	131.24
840.79	75.95
840.966	77.99
841.142	67.75
841.318	151.72
841.494	123.05
841.671	151.72
841.847	121
842.023	90.28
842.199	82.09
842.375	67.75
842.551	77.99
842.727	63.66
842.903	155.82
843.079	20.65
843.255	114.86
843.431	141.48
843.607	180.39
843.783	49.32
843.959	61.61
844.134	77.99
844.31	49.32
844.486	43.18
844.662	10.41
844.838	90.28
845.013	65.71
845.189	141.48
845.365	53.42
845.541	61.61
845.716	71.85
845.892	73.9
846.068	0.17
846.244	-20.31
846.419	65.71
846.595	30.89
846.77	-16.21
846.946	96.43
847.122	26.79
847.297	30.89
847.473	176.3
847.648	20.65
847.824	106.67
847.999	-40.79
848.175	159.91
848.35	73.9
848.526	88.23
848.701	77.99
848.876	90.28
849.052	108.71
849.227	131.24
849.403	61.61
849.578	0.17
849.753	80.04
849.929	69.8
850.104	28.84
850.279	28.84
850.454	75.95
850.63	114.86
850.805	90.28
850.98	118.95
851.155	22.7
851.33	-5.97
851.505	75.95
851.681	166.06
851.856	53.42
852.031	55.47
852.206	73.9
852.381	43.18
852.556	49.32
852.731	80.04
852.906	98.47
853.081	41.13
853.256	102.57
853.431	28.84
853.606	135.34
853.781	88.23
853.956	12.46
854.131	49.32
854.305	147.62
854.48	2.22
854.655	57.51
854.83	59.56
855.005	59.56
855.18	41.13
855.354	80.04
855.529	129.19
855.704	67.75
855.879	135.34
856.053	57.51
856.228	73.9
856.403	116.9
856.577	84.14
856.752	32.94
856.926	-18.26
857.101	96.43
857.276	90.28
857.45	82.09
857.625	51.37
857.799	14.51
857.974	-14.17
858.148	-36.69
858.323	88.23
858.497	51.37
858.672	32.94
858.846	84.14
859.02	80.04
859.195	34.99
859.369	14.51
859.543	-28.5
859.718	63.66
859.892	67.75
860.066	43.18
860.241	20.65
860.415	61.61
860.589	77.99
860.763	-8.02
860.938	34.99
861.112	28.84
861.286	123.05
861.46	22.7
861.634	26.79
861.808	96.43
861.982	49.32
862.157	65.71
862.331	2.22
862.505	102.57
862.679	26.79
862.853	39.08
863.027	82.09
863.201	65.71
863.375	34.99
863.549	49.32
863.722	30.89
863.896	116.9
864.07	45.23
864.244	28.84
864.418	65.71
864.592	0.17
864.766	71.85
864.939	-1.88
865.113	84.14
865.287	24.75
865.461	49.32
865.634	41.13
865.808	-36.69
865.982	45.23
866.156	20.65
866.329	43.18
866.503	4.27
866.676	71.85
866.85	24.75
867.024	57.51
867.197	20.65
867.371	45.23
867.544	-12.12
867.718	77.99
867.891	28.84
868.065	129.19
868.238	133.29
868.412	112.81
868.585	55.47
868.759	12.46
868.932	94.38
869.105	69.8
869.279	75.95
869.452	6.31
869.625	-12.12
869.799	39.08
869.972	59.56
870.145	47.27
870.319	75.95
870.492	-16.21
870.665	4.27
870.838	96.43
871.011	-16.21
871.185	-5.97
871.358	80.04
871.531	12.46
871.704	22.7
871.877	41.13
872.05	-3.93
872.223	41.13
872.396	32.94
872.569	2.22
872.742	28.84
872.915	-14.17
873.088	100.52
873.261	77.99
873.434	30.89
873.607	82.09
873.78	63.66
873.953	41.13
874.126	-12.12
874.299	61.61
874.471	69.8
874.644	73.9
874.817	80.04
874.99	55.47
875.163	30.89
875.335	106.67
875.508	88.23
875.681	49.32
875.853	45.23
876.026	10.41
876.199	28.84
876.371	26.79
876.544	45.23
876.717	71.85
876.889	53.42
877.062	77.99
877.234	-32.6
877.407	-40.79
877.579	55.47
877.752	98.47
877.924	86.19
878.097	30.89
878.269	45.23
878.442	47.27
878.614	16.55
878.786	22.7
878.959	37.03
879.131	24.75
879.303	41.13
879.476	-12.12
879.648	65.71
879.82	43.18
879.993	18.6
880.165	14.51
880.337	-5.97
880.509	4.27
880.681	61.61
880.854	30.89
881.026	73.9
881.198	75.95
881.37	37.03
881.542	41.13
881.714	55.47
881.886	34.99
882.058	53.42
882.23	24.75
882.402	59.56
882.574	71.85
882.746	75.95
882.918	102.57
883.09	34.99
883.262	20.65
883.434	41.13
883.606	28.84
883.778	59.56
883.95	75.95
884.122	43.18
884.293	22.7
884.465	43.18
884.637	98.47
884.809	84.14
884.98	96.43
885.152	80.04
885.324	43.18
885.496	28.84
885.667	104.62
885.839	-44.88
886.011	75.95
886.182	16.55
886.354	73.9
886.525	32.94
886.697	61.61
886.869	37.03
887.04	57.51
887.212	8.36
887.383	45.23
887.555	-28.5
887.726	-28.5
887.897	65.71
888.069	88.23
888.24	47.27
888.412	69.8
888.583	77.99
888.754	8.36
888.926	-3.93
889.097	-36.69
889.268	-32.6
889.44	20.65
889.611	39.08
889.782	98.47
889.953	-53.08
890.125	112.81
890.296	-32.6
890.467	80.04
890.638	49.32
890.809	2.22
890.98	-20.31
891.151	39.08
891.323	0.17
891.494	16.55
891.665	24.75
891.836	-30.55
892.007	57.51
892.178	-12.12
892.349	-12.12
892.52	39.08
892.691	82.09
892.862	-5.97
893.032	-3.93
893.203	30.89
893.374	-3.93
893.545	57.51
893.716	14.51
893.887	30.89
894.057	24.75
894.228	75.95
894.399	-32.6
894.57	47.27
894.74	12.46
894.911	32.94
895.082	10.41
895.253	41.13
895.423	18.6
895.594	80.04
895.764	26.79
895.935	-14.17
896.106	37.03
896.276	6.31
896.447	90.28
896.617	34.99
896.788	-10.07
896.958	61.61
897.129	-12.12
897.299	24.75
897.47	32.94
897.64	82.09
897.81	26.79
897.981	-16.21
898.151	-67.41
898.322	53.42
898.492	4.27
898.662	43.18
898.832	61.61
899.003	41.13
899.173	20.65
899.343	84.14
899.513	69.8
