Data from USB4F104151__38__12-27-21-154.txt Node

Date: Fri Mar 14 12:27:21 EDT 2025
User: louis
Spectrometer: USB4F10415
Trigger mode: 4
Integration Time (sec): 2.000000E-2
Scans to average: 1
Electric dark correction enabled: true
Nonlinearity correction enabled: false
Boxcar width: 0
XAxis mode: Wavelengths
Number of Pixels in Spectrum: 3648
>>>>>Begin Spectral Data<<<<<
178.204	-105.3
178.424	-105.3
178.644	-105.3
178.864	-70.48
179.084	-97.11
179.304	13.48
179.524	9.39
179.744	-27.48
179.964	64.68
180.184	-54.1
180.404	-29.52
180.624	-25.43
180.844	3.24
181.064	36.01
181.283	5.29
181.503	-19.29
181.723	23.72
181.943	56.49
182.163	19.63
182.383	27.82
182.602	9.39
182.822	13.48
183.042	-15.19
183.262	-9.05
183.482	-23.38
183.701	-41.81
183.921	13.48
184.141	-2.9
184.361	-7
184.58	-27.48
184.8	46.25
185.02	-11.09
185.239	31.91
185.459	-9.05
185.679	3.24
185.898	-29.52
186.118	101.55
186.338	27.82
186.557	17.58
186.777	107.69
186.997	9.39
187.216	48.3
187.436	38.06
187.655	-11.09
187.875	7.34
188.095	-35.67
188.314	81.07
188.534	66.73
188.753	-4.95
188.973	-25.43
189.192	27.82
189.412	-13.14
189.631	74.92
189.851	-4.95
190.07	81.07
190.29	7.34
190.509	3.24
190.729	38.06
190.948	-4.95
191.168	66.73
191.387	-13.14
191.607	9.39
191.826	-27.48
192.045	-0.85
192.265	42.15
192.484	27.82
192.704	3.24
192.923	-41.81
193.142	9.39
193.362	87.21
193.581	62.63
193.8	-7
194.02	74.92
194.239	-4.95
194.458	9.39
194.678	-7
194.897	27.82
195.116	-7
195.335	23.72
195.555	29.87
195.774	-37.72
195.993	11.43
196.212	19.63
196.432	13.48
196.651	66.73
196.87	29.87
197.089	68.78
197.308	27.82
197.528	38.06
197.747	40.11
197.966	-33.62
198.185	79.02
198.404	-35.67
198.623	-21.33
198.842	19.63
199.062	11.43
199.281	81.07
199.5	-17.24
199.719	54.44
199.938	36.01
200.157	46.25
200.376	56.49
200.595	44.2
200.814	5.29
201.033	17.58
201.252	56.49
201.471	-17.24
201.69	-23.38
201.909	58.54
202.128	56.49
202.347	-15.19
202.566	-25.43
202.785	-45.91
203.004	-31.57
203.223	97.45
203.442	31.91
203.661	38.06
203.879	5.29
204.098	79.02
204.317	5.29
204.536	-0.85
204.755	11.43
204.974	50.35
205.193	-2.9
205.411	66.73
205.63	25.77
205.849	-9.05
206.068	-11.09
206.287	-39.76
206.505	70.83
206.724	-31.57
206.943	-47.96
207.162	9.39
207.381	23.72
207.599	-23.38
207.818	-4.95
208.037	11.43
208.255	31.91
208.474	17.58
208.693	-47.96
208.911	-68.44
209.13	48.3
209.349	93.35
209.567	50.35
209.786	72.87
210.005	3.24
210.223	9.39
210.442	3.24
210.661	25.77
210.879	54.44
211.098	36.01
211.316	5.29
211.535	15.53
211.753	7.34
211.972	-52.05
212.191	5.29
212.409	-11.09
212.628	48.3
212.846	-58.2
213.065	13.48
213.283	62.63
213.502	-39.76
213.72	3.24
213.938	-17.24
214.157	3.24
214.375	15.53
214.594	-62.29
214.812	74.92
215.031	50.35
215.249	48.3
215.467	11.43
215.686	27.82
215.904	60.59
216.122	11.43
216.341	81.07
216.559	-17.24
216.778	5.29
216.996	33.96
217.214	9.39
217.432	25.77
217.651	-78.68
217.869	-21.33
218.087	-37.72
218.306	11.43
218.524	15.53
218.742	-39.76
218.96	3.24
219.179	-25.43
219.397	17.58
219.615	66.73
219.833	5.29
220.051	-17.24
220.27	23.72
220.488	42.15
220.706	-7
220.924	-11.09
221.142	72.87
221.36	-23.38
221.578	44.2
221.796	60.59
222.015	27.82
222.233	-0.85
222.451	-39.76
222.669	-13.14
222.887	42.15
223.105	15.53
223.323	-17.24
223.541	-60.24
223.759	15.53
223.977	72.87
224.195	91.31
224.413	-9.05
224.631	85.16
224.849	5.29
225.067	36.01
225.285	-15.19
225.503	58.54
225.721	-39.76
225.939	36.01
226.157	58.54
226.375	23.72
226.592	31.91
226.81	25.77
227.028	52.39
227.246	101.55
227.464	17.58
227.682	27.82
227.9	52.39
228.117	-13.14
228.335	58.54
228.553	27.82
228.771	44.2
228.989	23.72
229.206	-29.52
229.424	9.39
229.642	7.34
229.86	-54.1
230.077	19.63
230.295	-7
230.513	-43.86
230.731	-29.52
230.948	29.87
231.166	44.2
231.384	-29.52
231.601	36.01
231.819	31.91
232.037	40.11
232.254	-27.48
232.472	-9.05
232.689	-13.14
232.907	66.73
233.125	-56.15
233.342	-9.05
233.56	1.19
233.777	9.39
233.995	56.49
234.213	72.87
234.43	-21.33
234.648	23.72
234.865	-68.44
235.083	36.01
235.3	13.48
235.518	-9.05
235.735	15.53
235.953	95.4
236.17	19.63
236.388	11.43
236.605	38.06
236.822	-39.76
237.04	27.82
237.257	19.63
237.475	-0.85
237.692	52.39
237.909	17.58
238.127	-15.19
238.344	-41.81
238.562	81.07
238.779	-39.76
238.996	42.15
239.214	31.91
239.431	64.68
239.648	-13.14
239.865	-11.09
240.083	21.67
240.3	17.58
240.517	-9.05
240.735	21.67
240.952	29.87
241.169	1.19
241.386	21.67
241.603	-11.09
241.821	19.63
242.038	83.11
242.255	-17.24
242.472	-21.33
242.689	-13.14
242.907	11.43
243.124	62.63
243.341	-99.16
243.558	-21.33
243.775	3.24
243.992	-35.67
244.209	1.19
244.426	36.01
244.643	36.01
244.86	23.72
245.078	27.82
245.295	-33.62
245.512	66.73
245.729	-54.1
245.946	29.87
246.163	-35.67
246.38	81.07
246.597	1.19
246.814	29.87
247.031	-37.72
247.248	44.2
247.464	44.2
247.681	-15.19
247.898	46.25
248.115	54.44
248.332	-13.14
248.549	-13.14
248.766	19.63
248.983	-29.52
249.2	-23.38
249.417	76.97
249.633	-15.19
249.85	13.48
250.067	-62.29
250.284	68.78
250.501	115.88
250.717	-15.19
250.934	27.82
251.151	-17.24
251.368	15.53
251.585	-0.85
251.801	33.96
252.018	15.53
252.235	101.55
252.451	-25.43
252.668	-52.05
252.885	-52.05
253.102	3.24
253.318	46.25
253.535	-31.57
253.752	-9.05
253.968	36.01
254.185	83.11
254.401	21.67
254.618	-78.68
254.835	-74.58
255.051	33.96
255.268	1.19
255.484	-47.96
255.701	-60.24
255.917	27.82
256.134	-33.62
256.351	27.82
256.567	15.53
256.784	46.25
257	11.43
257.217	62.63
257.433	-15.19
257.65	93.35
257.866	52.39
258.082	1.19
258.299	25.77
258.515	9.39
258.732	83.11
258.948	79.02
259.165	27.82
259.381	-33.62
259.597	-11.09
259.814	-66.39
260.03	21.67
260.246	-29.52
260.463	25.77
260.679	99.5
260.895	52.39
261.112	119.98
261.328	11.43
261.544	19.63
261.761	62.63
261.977	-0.85
262.193	29.87
262.409	87.21
262.626	68.78
262.842	62.63
263.058	1.19
263.274	79.02
263.49	5.29
263.707	38.06
263.923	23.72
264.139	38.06
264.355	1.19
264.571	36.01
264.787	-4.95
265.004	48.3
265.22	50.35
265.436	3.24
265.652	17.58
265.868	-9.05
266.084	1.19
266.3	-4.95
266.516	15.53
266.732	21.67
266.948	17.58
267.164	126.12
267.38	3.24
267.596	72.87
267.812	44.2
268.028	66.73
268.244	3.24
268.46	-35.67
268.676	46.25
268.892	50.35
269.108	21.67
269.324	11.43
269.54	-41.81
269.756	-4.95
269.972	5.29
270.188	-15.19
270.403	40.11
270.619	113.83
270.835	81.07
271.051	-11.09
271.267	-17.24
271.483	42.15
271.698	36.01
271.914	62.63
272.13	9.39
272.346	33.96
272.562	-9.05
272.777	9.39
272.993	-4.95
273.209	25.77
273.425	5.29
273.64	-25.43
273.856	44.2
274.072	21.67
274.287	-23.38
274.503	66.73
274.719	-11.09
274.934	21.67
275.15	-9.05
275.366	-11.09
275.581	-0.85
275.797	29.87
276.012	64.68
276.228	-43.86
276.444	62.63
276.659	58.54
276.875	-27.48
277.09	3.24
277.306	13.48
277.521	19.63
277.737	-62.29
277.952	15.53
278.168	9.39
278.383	42.15
278.599	-7
278.814	-54.1
279.03	-2.9
279.245	42.15
279.461	5.29
279.676	21.67
279.892	-58.2
280.107	21.67
280.322	-27.48
280.538	23.72
280.753	-7
280.969	19.63
281.184	40.11
281.399	-0.85
281.615	17.58
281.83	-23.38
282.045	-25.43
282.26	-29.52
282.476	27.82
282.691	5.29
282.906	38.06
283.122	21.67
283.337	-39.76
283.552	-23.38
283.767	48.3
283.983	1.19
284.198	-39.76
284.413	-23.38
284.628	17.58
284.843	87.21
285.058	68.78
285.274	-29.52
285.489	27.82
285.704	33.96
285.919	64.68
286.134	-4.95
286.349	21.67
286.564	27.82
286.779	44.2
286.995	36.01
287.21	-7
287.425	21.67
287.64	87.21
287.855	-37.72
288.07	-4.95
288.285	21.67
288.5	-4.95
288.715	52.39
288.93	-15.19
289.145	-0.85
289.36	50.35
289.575	-17.24
289.79	87.21
290.004	36.01
290.219	46.25
290.434	19.63
290.649	-33.62
290.864	-31.57
291.079	29.87
291.294	-15.19
291.509	54.44
291.724	52.39
291.938	-9.05
292.153	11.43
292.368	13.48
292.583	19.63
292.798	29.87
293.012	134.31
293.227	11.43
293.442	-64.34
293.657	11.43
293.871	-35.67
294.086	-2.9
294.301	70.83
294.516	93.35
294.73	31.91
294.945	-52.05
295.16	-23.38
295.374	13.48
295.589	40.11
295.804	-0.85
296.018	11.43
296.233	66.73
296.447	62.63
296.662	-0.85
296.877	113.83
297.091	-23.38
297.306	15.53
297.52	-21.33
297.735	52.39
297.949	5.29
298.164	38.06
298.378	50.35
298.593	17.58
298.807	9.39
299.022	17.58
299.236	64.68
299.451	46.25
299.665	48.3
299.88	36.01
300.094	-2.9
300.309	13.48
300.523	9.39
300.737	-21.33
300.952	29.87
301.166	5.29
301.381	27.82
301.595	-60.24
301.809	25.77
302.024	68.78
302.238	40.11
302.452	7.34
302.667	-41.81
302.881	-29.52
303.095	33.96
303.309	72.87
303.524	-35.67
303.738	25.77
303.952	-66.39
304.166	11.43
304.381	5.29
304.595	105.64
304.809	-72.53
305.023	7.34
305.237	-68.44
305.452	-70.48
305.666	72.87
305.88	83.11
306.094	70.83
306.308	15.53
306.522	-52.05
306.736	23.72
306.95	-2.9
307.164	17.58
307.379	-23.38
307.593	44.2
307.807	-0.85
308.021	56.49
308.235	9.39
308.449	33.96
308.663	31.91
308.877	58.54
309.091	11.43
309.305	31.91
309.519	23.72
309.733	83.11
309.947	31.91
310.161	109.74
310.374	36.01
310.588	-7
310.802	58.54
311.016	66.73
311.23	23.72
311.444	-21.33
311.658	48.3
311.872	44.2
312.085	107.69
312.299	25.77
312.513	9.39
312.727	50.35
312.941	-13.14
313.154	60.59
313.368	91.31
313.582	38.06
313.796	31.91
314.009	23.72
314.223	122.02
314.437	27.82
314.651	-4.95
314.864	40.11
315.078	48.3
315.292	9.39
315.505	-4.95
315.719	38.06
315.933	21.67
316.146	13.48
316.36	21.67
316.573	68.78
316.787	87.21
317.001	54.44
317.214	-7
317.428	76.97
317.641	-19.29
317.855	21.67
318.068	-27.48
318.282	70.83
318.495	31.91
318.709	11.43
318.922	-21.33
319.136	105.64
319.349	66.73
319.563	-11.09
319.776	19.63
319.99	-7
320.203	33.96
320.417	19.63
320.63	-21.33
320.843	29.87
321.057	-7
321.27	-41.81
321.483	17.58
321.697	58.54
321.91	52.39
322.124	40.11
322.337	56.49
322.55	23.72
322.763	-27.48
322.977	-2.9
323.19	52.39
323.403	13.48
323.617	-35.67
323.83	52.39
324.043	23.72
324.256	11.43
324.469	40.11
324.683	-2.9
324.896	9.39
325.109	-13.14
325.322	-80.72
325.535	56.49
325.748	21.67
325.962	25.77
326.175	17.58
326.388	-4.95
326.601	101.55
326.814	54.44
327.027	40.11
327.24	19.63
327.453	-66.39
327.666	-0.85
327.879	-19.29
328.092	81.07
328.305	11.43
328.518	-27.48
328.731	76.97
328.944	21.67
329.157	50.35
329.37	-7
329.583	95.4
329.796	46.25
330.009	-21.33
330.222	-47.96
330.435	58.54
330.648	21.67
330.861	-23.38
331.073	40.11
331.286	1.19
331.499	11.43
331.712	-37.72
331.925	11.43
332.138	46.25
332.35	50.35
332.563	-35.67
332.776	66.73
332.989	-13.14
333.202	-31.57
333.414	-17.24
333.627	-39.76
333.84	-7
334.053	29.87
334.265	-13.14
334.478	38.06
334.691	-56.15
334.903	70.83
335.116	33.96
335.329	1.19
335.541	50.35
335.754	103.59
335.966	23.72
336.179	52.39
336.392	-4.95
336.604	1.19
336.817	46.25
337.029	19.63
337.242	-7
337.454	74.92
337.667	7.34
337.88	42.15
338.092	46.25
338.305	-19.29
338.517	-54.1
338.729	83.11
338.942	-4.95
339.154	-2.9
339.367	-17.24
339.579	52.39
339.792	9.39
340.004	66.73
340.217	-15.19
340.429	93.35
340.641	23.72
340.854	-2.9
341.066	-29.52
341.278	29.87
341.491	40.11
341.703	97.45
341.915	42.15
342.128	-29.52
342.34	-52.05
342.552	-11.09
342.764	54.44
342.977	60.59
343.189	62.63
343.401	31.91
343.613	17.58
343.826	38.06
344.038	-45.91
344.25	5.29
344.462	48.3
344.674	70.83
344.886	27.82
345.099	1.19
345.311	99.5
345.523	3.24
345.735	-86.87
345.947	60.59
346.159	-35.67
346.371	46.25
346.583	48.3
346.795	21.67
347.007	36.01
347.219	1.19
347.431	56.49
347.643	46.25
347.855	79.02
348.067	11.43
348.279	-25.43
348.491	-11.09
348.703	40.11
348.915	40.11
349.127	38.06
349.339	60.59
349.551	5.29
349.763	72.87
349.975	-25.43
350.187	21.67
350.399	13.48
350.61	5.29
350.822	-35.67
351.034	62.63
351.246	58.54
351.458	-35.67
351.669	27.82
351.881	11.43
352.093	36.01
352.305	66.73
352.517	7.34
352.728	42.15
352.94	7.34
353.152	-25.43
353.363	-9.05
353.575	40.11
353.787	66.73
353.999	5.29
354.21	-0.85
354.422	17.58
354.633	-2.9
354.845	50.35
355.057	-0.85
355.268	44.2
355.48	-15.19
355.692	11.43
355.903	1.19
356.115	38.06
356.326	-7
356.538	81.07
356.749	9.39
356.961	105.64
357.172	50.35
357.384	85.16
357.595	19.63
357.807	74.92
358.018	-4.95
358.23	79.02
358.441	46.25
358.653	9.39
358.864	-41.81
359.075	33.96
359.287	1.19
359.498	50.35
359.709	31.91
359.921	89.26
360.132	5.29
360.344	23.72
360.555	-0.85
360.766	40.11
360.977	23.72
361.189	83.11
361.4	27.82
361.611	58.54
361.823	-21.33
362.034	111.78
362.245	-17.24
362.456	52.39
362.667	-45.91
362.879	52.39
363.09	81.07
363.301	64.68
363.512	3.24
363.723	-9.05
363.935	19.63
364.146	64.68
364.357	81.07
364.568	93.35
364.779	-33.62
364.99	33.96
365.201	29.87
365.412	19.63
365.623	87.21
365.834	99.5
366.045	-41.81
366.256	17.58
366.467	13.48
366.678	17.58
366.889	11.43
367.1	44.2
367.311	21.67
367.522	44.2
367.733	-50
367.944	21.67
368.155	-25.43
368.366	99.5
368.577	23.72
368.788	33.96
368.999	68.78
369.209	7.34
369.42	87.21
369.631	42.15
369.842	76.97
370.053	44.2
370.264	44.2
370.474	60.59
370.685	-47.96
370.896	27.82
371.107	-0.85
371.317	-9.05
371.528	25.77
371.739	5.29
371.95	11.43
372.16	89.26
372.371	11.43
372.582	50.35
372.792	-37.72
373.003	95.4
373.214	74.92
373.424	46.25
373.635	-11.09
373.846	66.73
374.056	-43.86
374.267	46.25
374.477	-11.09
374.688	54.44
374.898	107.69
375.109	58.54
375.319	91.31
375.53	68.78
375.74	9.39
375.951	48.3
376.161	-23.38
376.372	68.78
376.582	23.72
376.793	-29.52
377.003	54.44
377.214	-21.33
377.424	-21.33
377.635	-25.43
377.845	-31.57
378.055	38.06
378.266	3.24
378.476	42.15
378.686	7.34
378.897	21.67
379.107	27.82
379.317	87.21
379.528	15.53
379.738	17.58
379.948	44.2
380.158	19.63
380.369	93.35
380.579	-27.48
380.789	17.58
380.999	58.54
381.21	70.83
381.42	44.2
381.63	48.3
381.84	48.3
382.05	-7
382.261	5.29
382.471	33.96
382.681	23.72
382.891	25.77
383.101	48.3
383.311	38.06
383.521	19.63
383.731	115.88
383.941	-15.19
384.151	58.54
384.361	-13.14
384.571	36.01
384.781	31.91
384.991	23.72
385.201	89.26
385.411	9.39
385.621	15.53
385.831	-35.67
386.041	81.07
386.251	81.07
386.461	3.24
386.671	68.78
386.881	11.43
387.091	-4.95
387.301	99.5
387.511	-2.9
387.72	93.35
387.93	-33.62
388.14	-7
388.35	60.59
388.56	36.01
388.769	-11.09
388.979	33.96
389.189	36.01
389.399	15.53
389.609	58.54
389.818	25.77
390.028	-4.95
390.238	23.72
390.447	50.35
390.657	83.11
390.867	44.2
391.076	11.43
391.286	76.97
391.496	62.63
391.705	64.68
391.915	48.3
392.125	107.69
392.334	76.97
392.544	50.35
392.753	5.29
392.963	25.77
393.172	23.72
393.382	-82.77
393.591	87.21
393.801	89.26
394.01	93.35
394.22	107.69
394.429	52.39
394.639	50.35
394.848	36.01
395.058	36.01
395.267	5.29
395.477	1.19
395.686	89.26
395.895	60.59
396.105	148.65
396.314	58.54
396.524	79.02
396.733	58.54
396.942	128.17
397.152	93.35
397.361	89.26
397.57	-37.72
397.78	91.31
397.989	158.89
398.198	99.5
398.407	42.15
398.617	46.25
398.826	83.11
399.035	128.17
399.244	126.12
399.453	83.11
399.663	44.2
399.872	115.88
400.081	42.15
400.29	128.17
400.499	31.91
400.708	70.83
400.917	13.48
401.127	91.31
401.336	60.59
401.545	107.69
401.754	7.34
401.963	119.98
402.172	95.4
402.381	91.31
402.59	101.55
402.799	95.4
403.008	83.11
403.217	36.01
403.426	97.45
403.635	95.4
403.844	85.16
404.053	111.78
404.262	134.31
404.471	165.03
404.68	93.35
404.888	99.5
405.097	7.34
405.306	83.11
405.515	113.83
405.724	68.78
405.933	193.7
406.142	115.88
406.35	126.12
406.559	103.59
406.768	130.22
406.977	165.03
407.185	122.02
407.394	195.75
407.603	132.26
407.812	203.94
408.02	152.74
408.229	169.13
408.438	216.23
408.646	154.79
408.855	244.9
409.064	201.9
409.272	236.71
409.481	246.95
409.69	216.23
409.898	183.46
410.107	236.71
410.315	224.42
410.524	220.33
410.733	165.03
410.941	296.1
411.15	285.86
411.358	302.25
411.567	357.54
411.775	277.67
411.984	304.29
412.192	310.44
412.401	414.88
412.609	445.6
412.818	355.49
413.026	392.36
413.234	494.76
413.443	423.08
413.651	433.32
413.86	375.97
414.068	568.48
414.276	423.08
414.485	429.22
414.693	453.8
414.901	527.52
415.11	566.43
415.318	586.91
415.526	504.99
415.734	601.25
415.943	541.86
416.151	625.83
416.359	631.97
416.567	644.26
416.776	695.46
416.984	748.7
417.192	699.55
417.4	822.43
417.608	789.66
417.817	804
418.025	859.29
418.233	933.02
418.441	857.25
418.649	1049.75
418.857	945.31
419.065	1002.65
419.273	978.08
419.481	1057.95
419.689	1002.65
419.897	1117.34
420.105	1203.35
420.313	1238.17
420.521	1205.4
420.729	1272.98
420.937	1332.37
421.145	1375.38
421.353	1430.68
421.561	1543.32
421.769	1508.5
421.977	1592.47
422.185	1586.32
422.393	1690.77
422.601	1770.64
422.809	1725.58
423.017	1846.41
423.224	1879.18
423.432	1944.72
423.64	2063.5
423.848	2122.89
424.056	2067.6
424.263	2317.45
424.471	2245.77
424.679	2307.21
424.887	2370.69
425.094	2512
425.302	2456.71
425.51	2659.46
425.718	2763.9
425.925	2550.92
426.133	2880.64
426.341	2952.32
426.548	3142.78
426.756	2993.28
426.964	3091.58
427.171	3337.34
427.379	3449.97
427.586	3478.65
427.794	3550.32
428.001	3646.58
428.209	3878
428.417	3730.55
428.624	4037.74
428.832	4080.75
429.039	4019.31
429.247	4150.38
429.454	4377.7
429.662	4625.51
429.869	4486.25
430.076	4645.99
430.284	4670.56
430.491	4983.9
430.699	5231.71
430.906	5196.89
431.114	5235.8
431.321	5497.94
431.528	5663.83
431.736	5813.33
431.943	5973.07
432.15	5815.38
432.358	6071.37
432.565	6351.95
432.772	6364.23
432.979	6593.61
433.187	6689.86
433.394	6906.95
433.601	7271.48
433.808	7281.72
434.016	7220.28
434.223	7463.99
434.43	7898.16
434.637	7687.22
434.844	8260.65
435.052	8555.56
435.259	8361
435.466	8573.99
435.673	8604.71
435.88	9022.5
436.087	9450.52
436.294	9489.43
436.501	9415.71
436.708	9565.21
436.915	9888.79
437.122	10345.48
437.329	10175.5
437.537	10333.2
437.743	10869.76
437.95	10820.61
438.157	11072.51
438.364	11449.34
438.571	11453.44
438.778	11674.62
438.985	12866.53
439.192	11981.81
439.399	12575.72
439.606	12186.61
439.813	12821.48
440.02	13773.78
440.227	13421.53
440.433	13407.2
440.64	13685.72
440.847	13718.49
441.054	13865.94
441.261	15104.96
441.467	15115.2
441.674	15203.27
441.881	15713.21
442.088	15565.76
442.294	15555.52
442.501	15956.92
442.708	16360.37
442.914	17062.82
443.121	17605.53
443.328	17161.12
443.534	18660.24
443.741	17980.31
443.948	17570.72
444.154	19071.88
444.361	18715.53
444.568	18852.75
444.774	19196.81
444.981	19434.37
445.187	20013.95
445.394	20530.03
445.6	20401.01
445.807	22639.44
446.013	21085.03
446.22	21822.3
446.426	22621.01
446.633	22985.55
446.839	23665.47
447.046	22670.16
447.252	23880.51
447.459	24128.31
447.665	23917.37
447.871	24978.22
448.078	25803.55
448.284	24873.78
448.491	25762.59
448.697	26540.82
448.903	26805.01
449.11	27028.24
449.316	26549.01
449.522	27108.11
449.728	27908.86
449.935	28187.39
450.141	27843.33
450.347	28611.32
450.553	27904.77
450.76	28248.83
450.966	29199.09
451.172	28818.16
451.378	29317.87
451.584	29031.15
451.791	29606.63
451.997	29442.79
452.203	29833.96
452.409	29971.17
452.615	29997.79
452.821	28680.95
453.027	28660.47
453.233	30124.77
453.44	28672.76
453.646	28773.11
453.852	29076.21
454.058	29940.45
454.264	28891.89
454.47	29281
454.676	28912.37
454.882	29848.29
455.088	27034.38
455.294	27517.7
455.5	28001.02
455.705	28087.04
455.911	27327.24
456.117	26749.71
456.323	26493.72
456.529	25170.73
456.735	25795.36
456.941	25426.73
457.147	25027.37
457.352	24195.9
457.558	23948.09
457.764	23886.65
457.97	23548.74
458.176	23116.62
458.381	22874.96
458.587	21980
458.793	21980
458.999	20626.29
459.204	22299.48
459.41	21678.94
459.616	20239.22
459.821	20429.68
460.027	19940.22
460.233	19825.53
460.438	19084.17
460.644	19078.02
460.85	18066.33
461.055	17888.15
461.261	17800.09
461.466	16430
461.672	16120.76
461.878	17206.18
462.083	16184.24
462.289	15653.82
462.494	15473.6
462.7	14836.68
462.905	14402.51
463.111	14994.37
463.316	14900.17
463.522	14721.99
463.727	14922.69
463.932	14392.27
464.138	14492.62
464.343	14482.38
464.549	14140.37
464.754	14762.95
464.959	14435.28
465.165	14199.76
465.37	13650.91
465.575	13577.18
465.781	14093.27
465.986	14078.93
466.191	13599.71
466.397	13181.92
466.602	12651.5
466.807	13147.11
467.012	12991.46
467.218	12987.36
467.423	12962.79
467.628	12891.11
467.833	13673.43
468.038	12946.41
468.244	12581.87
468.449	13067.24
468.654	12690.41
468.859	12618.73
469.064	12524.52
469.269	11910.13
469.474	12256.24
469.679	12393.45
469.885	12059.63
470.09	12219.38
470.295	12256.24
470.5	11830.26
470.705	11879.41
470.91	11783.16
471.115	11510.78
471.32	11643.9
471.525	11582.46
471.73	11271.17
471.935	11172.86
472.139	11006.98
472.344	10957.83
472.549	10918.92
472.754	11015.17
472.959	10826.76
473.164	10378.25
473.369	10468.36
473.574	10832.9
473.778	10345.48
473.983	10437.64
474.188	10464.27
474.393	10114.06
474.598	10044.43
474.802	9948.18
475.007	9870.36
475.212	9864.21
475.417	9468.95
475.621	9436.19
475.826	9522.2
476.031	9382.94
476.235	9143.33
476.44	9292.83
476.645	9161.76
476.849	9180.19
477.054	8924.19
477.259	8920.1
477.463	8895.52
477.668	8774.69
477.872	8786.98
478.077	8565.8
478.282	8262.7
478.486	8422.44
478.691	8326.19
478.895	8410.15
479.1	8281.13
479.304	8236.08
479.509	8025.14
479.713	8111.15
479.918	7920.69
480.122	7806
480.326	7914.55
480.531	8041.52
480.735	7769.14
480.94	7875.63
481.144	8033.33
481.348	7609.4
481.553	7881.78
481.757	7486.52
481.961	7640.12
482.166	7834.68
482.37	7746.61
482.574	7640.12
482.778	7746.61
482.983	7650.36
483.187	7550.01
483.391	7816.24
483.595	7500.86
483.8	7527.48
484.004	7476.28
484.208	7703.61
484.412	7676.98
484.616	7640.12
484.821	7756.85
485.025	7521.34
485.229	7863.35
485.433	7838.77
485.637	7568.44
485.841	7531.58
486.045	7517.24
486.249	7644.21
486.453	7482.42
486.657	7683.13
486.861	7719.99
487.065	7496.76
487.269	7527.48
487.473	7431.23
487.677	7568.44
487.881	7679.03
488.085	7724.08
488.289	7623.73
488.493	7562.3
488.697	7771.19
488.901	7642.17
489.105	7730.23
489.309	7818.29
489.512	7748.66
489.716	7826.48
489.92	7713.84
490.124	7687.22
490.328	8006.7
490.531	7920.69
490.735	7857.2
490.939	7932.98
491.143	7898.16
491.346	7992.37
491.55	8086.58
491.754	7898.16
491.958	8090.67
492.161	7857.2
492.365	7924.79
492.569	7765.04
492.772	8105.01
492.976	8193.07
493.18	8184.88
493.383	8283.18
493.587	8258.6
493.79	8285.23
493.994	8307.76
494.197	8240.17
494.401	8393.77
494.605	8389.67
494.808	8653.86
495.012	8440.87
495.215	8619.05
495.419	8795.17
495.622	8709.16
495.825	8942.63
496.029	8918.05
496.232	8989.73
496.436	8979.49
496.639	9102.37
496.843	9126.94
497.046	9284.64
497.249	9399.32
497.453	9446.43
497.656	9405.47
497.859	9833.49
498.063	9851.92
498.266	9839.64
498.469	9972.75
498.673	9817.11
498.876	9974.8
499.079	10208.27
499.282	10232.85
499.485	10447.88
499.689	10382.35
499.892	10609.67
500.095	10769.41
500.298	10746.89
500.501	10701.83
500.705	11256.83
500.908	11052.03
501.111	11435
501.314	11533.31
501.517	11633.66
501.72	11645.94
501.923	11676.66
502.126	11848.69
502.329	12248.05
502.532	12164.08
502.735	12227.57
502.938	12659.69
503.141	12483.56
503.344	12698.6
503.547	12889.06
503.75	13128.67
503.953	13286.37
504.156	13358.05
504.359	13296.61
504.562	13272.03
504.765	13597.66
504.968	13712.35
505.17	13886.42
505.373	14160.85
505.576	14457.81
505.779	14388.18
505.982	14560.2
506.185	14752.71
506.387	14836.68
506.59	14867.4
506.793	15231.94
506.996	15231.94
507.198	15549.37
507.401	15436.74
507.604	15672.25
507.807	16010.17
508.009	16202.68
508.212	16419.76
508.415	16141.24
508.617	16556.97
508.82	16698.28
509.022	16636.84
509.225	16960.42
509.428	17261.48
509.63	17494.94
509.833	17687.45
510.035	17974.17
510.238	17894.3
510.44	17884.06
510.643	18277.27
510.845	18334.61
511.048	18514.83
511.25	18860.94
511.453	18848.65
511.655	19411.84
511.858	18918.28
512.06	19166.09
512.262	19635.07
512.465	19344.26
512.667	19934.07
512.87	20054.9
513.072	20102.01
513.274	20521.84
513.477	20575.09
513.679	20894.57
513.881	21023.59
514.084	21250.92
514.286	21099.37
514.488	21506.91
514.69	22254.42
514.893	22014.81
515.095	21887.84
515.297	22201.18
515.499	22651.73
515.701	22610.77
515.904	22809.42
516.106	22911.82
516.308	23456.58
516.51	23196.49
516.712	23470.92
516.914	23898.94
517.116	23964.48
517.318	24451.89
517.52	24169.27
517.722	24845.1
517.925	24759.09
518.127	25078.57
518.329	24931.12
518.531	25240.36
518.733	25529.13
518.935	25525.03
519.136	25944.86
519.338	25918.24
519.54	26215.19
519.742	26364.7
519.944	26549.01
520.146	26962.7
520.348	26946.32
520.55	26903.31
520.752	27409.16
520.954	27761.41
521.155	27362.06
521.357	27986.69
521.559	28334.84
521.761	28484.34
521.963	28529.4
522.164	28658.42
522.366	28885.75
522.568	29090.54
522.77	29049.58
522.971	29455.08
523.173	29469.42
523.375	29934.31
523.576	29793
523.778	29874.91
523.98	30137.05
524.181	30335.71
524.383	30456.54
524.584	30974.67
524.786	30571.22
524.988	30833.36
525.189	31279.82
525.391	31537.87
525.592	31496.91
525.794	31277.77
525.995	31513.29
526.197	31609.54
526.398	31953.6
526.6	31828.68
526.801	32299.71
527.003	32197.31
527.204	32469.69
527.406	32379.58
527.607	32533.18
527.808	32801.46
528.01	32062.15
528.211	32830.13
528.412	32973.49
528.614	33112.75
528.815	33039.03
529.016	33471.15
529.218	33272.49
529.419	33299.12
529.62	33063.6
529.822	33272.49
530.023	33434.28
530.224	33563.31
530.425	33125.04
530.626	33063.6
530.828	33477.29
531.029	33798.82
531.23	33430.19
531.431	33876.65
531.632	33682.09
531.833	33792.68
532.035	33950.37
532.236	33888.93
532.437	34116.26
532.638	33686.18
532.839	33942.18
533.04	34007.72
533.241	33972.9
533.442	34325.15
533.643	34226.85
533.844	34101.92
534.045	33933.99
534.246	33962.66
534.447	34439.84
534.648	34177.7
534.849	34161.31
535.05	33884.84
535.251	33999.52
535.451	34067.11
535.652	34056.87
535.853	34235.04
536.054	34103.97
536.255	34384.54
536.456	34020
536.657	34595.48
536.857	34140.83
537.058	33710.76
537.259	34423.45
537.46	34652.83
537.66	33874.6
537.861	34335.39
538.062	34263.71
538.263	34198.18
538.463	34171.55
538.664	34046.63
538.865	34329.25
539.065	34773.66
539.266	34036.39
539.466	34132.64
539.667	33850.02
539.868	34589.34
540.068	34712.22
540.269	34200.22
540.469	34615.96
540.67	33925.8
540.87	33972.9
541.071	34333.34
541.271	34562.72
541.472	34093.73
541.672	33819.3
541.873	34198.18
542.073	33583.79
542.274	34683.55
542.474	34527.9
542.675	34009.76
542.875	34151.07
543.075	33802.92
543.276	33727.14
543.476	34652.83
543.676	34187.94
543.877	34284.19
544.077	34001.57
544.277	33936.04
544.478	33954.47
544.678	34034.34
544.878	33940.13
545.078	33839.78
545.279	33897.13
545.479	33800.87
545.679	34661.02
545.879	34282.14
546.079	34056.87
546.28	33893.03
546.48	34063.01
546.68	33911.46
546.88	34243.23
547.08	34435.74
547.28	33958.56
547.48	33591.98
547.68	34065.06
547.88	33731.24
548.081	34202.27
548.281	34065.06
548.481	33788.58
548.681	34329.25
548.881	33929.89
549.081	34087.59
549.28	33909.41
549.48	34183.84
549.68	33870.5
549.88	34380.45
550.08	33788.58
550.28	33716.9
550.48	33991.33
550.68	34017.96
550.88	33634.99
551.08	33682.09
551.279	33882.79
551.479	33618.6
551.679	33878.69
551.879	33645.23
552.079	34208.42
552.278	33608.36
552.478	33966.76
552.678	33682.09
552.878	34144.93
553.077	33825.45
553.277	33567.4
553.477	33854.12
553.676	33538.73
553.876	33493.68
554.076	33153.71
554.275	33292.97
554.475	33319.6
554.674	33735.34
554.874	33847.97
555.074	33786.54
555.273	33598.12
555.473	33696.42
555.672	33415.85
555.872	33397.42
556.071	33053.36
556.271	33653.42
556.47	32981.68
556.67	33215.15
556.869	33323.69
557.068	33350.32
557.268	33452.72
557.467	33297.07
557.667	33143.47
557.866	33211.06
558.065	33276.59
558.265	32965.3
558.464	33000.12
558.663	33409.71
558.863	32658.1
559.062	33512.11
559.261	32901.81
559.461	33032.88
559.66	32586.43
559.859	32946.87
560.058	32672.44
560.258	32834.23
560.457	32578.23
560.656	32758.45
560.855	32567.99
561.054	32682.68
561.253	32254.65
561.453	32512.7
561.652	33004.21
561.851	32897.72
562.05	32494.27
562.249	32180.93
562.448	32617.14
562.647	32545.47
562.846	32268.99
563.045	32295.61
563.244	32146.11
563.443	32170.69
563.642	32211.65
563.841	32189.12
564.04	31990.47
564.239	32457.4
564.438	31607.5
564.637	32056
564.836	31920.84
565.035	31697.61
565.234	31754.95
565.432	31804.1
565.631	31523.53
565.83	31589.06
566.029	31509.19
566.228	31488.71
566.427	31441.61
566.625	31496.91
566.824	31259.34
567.023	31498.95
567.222	30888.66
567.42	31582.92
567.619	31531.72
567.818	31118.03
568.016	31015.63
568.215	31056.59
568.414	30798.55
568.612	30956.24
568.811	30806.74
569.01	30739.16
569.208	30560.98
569.407	30997.2
569.605	30653.14
569.804	31099.6
570.002	30411.48
570.201	30642.9
570.4	30380.76
570.598	30126.81
570.797	30245.6
570.995	30157.53
571.193	30231.26
571.392	30509.79
571.59	30030.56
571.789	30221.02
571.987	30014.18
572.186	29960.93
572.384	29723.37
572.582	29881.06
572.781	29627.11
572.979	29485.8
573.177	29575.91
573.376	29485.8
573.574	29385.45
573.772	29633.25
573.971	29483.75
574.169	29559.53
574.367	29137.65
574.565	29139.69
574.763	28984.05
574.962	28779.25
575.16	28928.75
575.358	28840.69
575.556	28820.21
575.754	28709.62
575.952	28570.36
576.151	28830.45
576.349	28672.76
576.547	28771.06
576.745	28445.43
576.943	28736.24
577.141	28463.86
577.339	28564.21
577.537	28388.09
577.735	28371.71
577.933	28074.75
578.131	28320.51
578.329	28179.2
578.527	27917.06
578.725	28107.52
578.923	27933.44
579.121	27732.74
579.319	27702.02
579.516	28093.18
579.714	27820.8
579.912	27579.14
580.11	27785.99
580.308	27478.79
580.506	27323.15
580.704	26839.83
580.901	27472.65
581.099	27628.29
581.297	26956.56
581.495	27349.77
581.692	27403.02
581.89	27233.04
582.088	27317
582.285	26739.47
582.483	26979.09
582.681	26800.91
582.878	26784.53
583.076	26450.71
583.274	26983.18
583.471	26430.23
583.669	26469.14
583.866	26315.55
584.064	26391.32
584.262	26198.81
584.459	26409.75
584.657	26336.02
584.854	26448.66
585.052	25991.97
585.249	26252.06
585.447	26333.98
585.644	25813.79
585.841	25948.96
586.039	26151.71
586.236	25901.86
586.434	26116.89
586.631	25549.6
586.828	25875.23
587.026	25273.13
587.223	25473.83
587.42	25516.84
587.618	25615.14
587.815	25201.45
588.012	25295.66
588.21	24939.31
588.407	25213.74
588.604	25258.79
588.801	24722.23
588.999	24812.34
589.196	24757.04
589.393	24855.34
589.59	24535.86
589.787	24707.89
589.984	24412.98
590.182	24355.64
590.379	24392.5
590.576	24134.46
590.773	24439.61
590.97	24339.26
591.167	24257.34
591.364	24150.84
591.561	24165.18
591.758	23894.85
591.955	23995.2
592.152	24359.73
592.349	23786.3
592.546	23872.32
592.743	23810.88
592.94	23569.22
593.137	23366.47
593.334	23589.7
593.531	23468.87
593.727	23565.12
593.924	23237.45
594.121	23249.74
594.318	23479.11
594.515	23051.08
594.712	23386.95
594.908	23112.52
595.105	22952.78
595.302	22827.85
595.499	22901.58
595.696	22975.31
595.892	22670.16
596.089	22971.21
596.286	22780.75
596.482	22289.24
596.679	22768.46
596.876	22457.17
597.072	22217.56
597.269	22680.4
597.466	21926.75
597.662	22023
597.859	22256.47
598.055	22211.42
598.252	22158.17
598.448	22158.17
598.645	21957.47
598.841	21717.86
599.038	21867.36
599.234	21961.56
599.431	21724
599.627	21508.96
599.824	21703.52
600.02	21357.41
600.217	21662.56
600.413	21291.88
600.609	21343.08
600.806	21179.24
601.002	21412.71
601.198	20923.24
601.395	21066.6
601.591	21046.12
601.787	20831.08
601.984	21152.62
602.18	20849.52
602.376	20652.91
602.572	20759.41
602.769	20925.29
602.965	20583.28
603.161	20558.7
603.357	20478.83
603.553	20323.19
603.75	20560.75
603.946	20349.81
604.142	20599.66
604.338	20157.3
604.534	20437.87
604.73	19987.32
604.926	20065.14
605.122	20142.97
605.318	20263.8
605.514	19690.37
605.71	19612.54
605.906	19704.7
606.102	19948.41
606.298	19776.38
606.494	19645.31
606.69	19868.54
606.886	19598.21
607.082	19370.88
607.278	19766.14
607.474	19239.81
607.67	19528.58
607.866	19112.84
608.062	19567.49
608.257	18946.95
608.453	19530.62
608.649	19536.77
608.845	19102.6
609.041	18949
609.236	19014.54
609.432	19172.23
609.628	19417.99
609.824	19032.97
610.019	19102.6
610.215	19088.26
610.411	18910.09
610.606	18752.4
610.802	19010.44
610.998	18707.34
611.193	18764.68
611.389	18797.45
611.584	18832.27
611.78	18725.77
611.976	18725.77
612.171	18637.71
612.367	18541.46
612.562	18807.69
612.758	18422.67
612.953	18367.38
613.149	18594.7
613.344	18336.66
613.539	18598.8
613.735	18340.75
613.93	18387.86
614.126	18430.87
614.321	18400.15
614.517	18121.62
614.712	18451.35
614.907	18080.66
615.103	18312.08
615.298	18166.68
615.493	18385.81
615.688	17851.29
615.884	18277.27
616.079	17931.16
616.274	18125.72
616.47	18070.42
616.665	18017.18
616.86	18013.08
617.055	18109.33
617.25	18097.05
617.445	17910.68
617.641	17591.2
617.836	17951.64
618.031	17410.98
618.226	17742.75
618.421	17501.09
618.616	17785.76
618.811	17337.25
619.006	17755.04
619.201	17243.04
619.396	17386.4
619.591	17120.17
619.786	17288.1
619.981	16753.58
620.176	17279.91
620.371	17071.01
620.566	16997.29
620.761	16974.76
620.956	16729
621.151	16559.02
621.346	16800.68
621.541	16534.45
621.735	16757.67
621.93	16563.12
622.125	16438.19
622.32	16151.48
622.515	16280.5
622.709	16149.43
622.904	16055.22
623.099	16425.9
623.294	16004.02
623.488	15829.95
623.683	15985.59
623.878	15637.44
624.072	15713.21
624.267	15723.45
624.462	15506.37
624.656	15340.48
624.851	15444.93
625.046	15162.31
625.24	14992.33
625.435	14898.12
625.629	15037.38
625.824	14869.45
626.018	14924.74
626.213	14478.29
626.407	14578.64
626.602	14459.85
626.796	14619.6
626.991	14445.52
627.185	14308.3
627.38	14560.2
627.574	14269.39
627.768	14076.88
627.963	14144.47
628.157	14015.44
628.352	14083.03
628.546	13642.71
628.74	13745.11
628.935	13624.28
629.129	13638.62
629.323	13380.57
629.517	13646.81
629.712	13419.49
629.906	13472.73
630.1	13331.42
630.294	13163.49
630.489	13239.26
630.683	13059.04
630.877	12915.69
631.071	12725.22
631.265	12909.54
631.459	13001.7
631.653	12782.57
631.848	12702.7
632.042	12616.68
632.236	12674.03
632.43	12258.29
632.624	12538.86
632.818	12491.76
633.012	12215.28
633.206	12452.84
633.4	12360.69
633.594	12010.48
633.788	12092.4
633.982	12215.28
634.176	11895.8
634.369	12090.35
634.563	11647.99
634.757	11777.01
634.951	11772.92
635.145	11650.04
635.339	11607.03
635.533	11619.32
635.726	11676.66
635.92	11342.85
636.114	11486.2
636.308	11344.89
636.501	11254.78
636.695	11160.58
636.889	11183.1
637.083	11082.75
637.276	11127.81
637.47	10988.55
637.664	10843.14
637.857	10923.01
638.051	10775.56
638.244	10769.41
638.438	10689.54
638.632	10482.7
638.825	10677.26
639.019	10685.45
639.212	10355.72
639.406	10646.54
639.599	10335.24
639.793	10365.96
639.986	10079.25
640.18	10322.96
640.373	10347.53
640.567	10204.17
640.76	10259.47
640.954	10003.47
641.147	10099.73
641.34	9952.27
641.534	9944.08
641.727	9991.19
641.92	9874.45
642.114	9839.64
642.307	9982.99
642.5	9853.97
642.694	9559.06
642.887	9569.3
643.08	9712.66
643.273	9321.5
643.467	9212.96
643.66	9317.4
643.853	9217.05
644.046	9200.67
644.239	9421.85
644.432	9122.85
644.626	9018.4
644.819	9059.36
645.012	9030.69
645.205	9219.1
645.398	9067.55
645.591	8959.01
645.784	8942.63
645.977	8860.71
646.17	8836.13
646.363	8807.46
646.556	8727.59
646.749	8741.93
646.942	8737.83
647.135	8688.68
647.328	8533.03
647.521	8707.11
647.714	8320.04
647.907	8485.93
648.099	8416.3
648.292	8490.03
648.485	8401.96
648.678	8328.24
648.871	8143.92
649.064	8070.19
649.256	8231.98
649.449	8186.93
649.642	8123.44
649.835	8047.66
650.027	8023.09
650.22	7820.34
650.413	7763
650.605	7889.97
650.798	7973.94
650.991	7885.87
651.183	7724.08
651.376	7584.82
651.568	7531.58
651.761	7668.79
651.954	7644.21
652.146	7666.74
652.339	7621.69
652.531	7447.61
652.724	7394.36
652.916	7343.16
653.109	7439.42
653.301	7357.5
653.494	7316.54
653.686	7189.56
653.879	7269.44
654.071	7160.89
654.263	7310.4
654.456	7238.72
654.648	7076.93
654.84	7111.74
655.033	7013.44
655.225	6892.61
655.417	6810.69
655.61	6782.02
655.802	6964.29
655.994	6759.49
656.186	6710.34
656.379	6724.68
656.571	6730.82
656.763	6829.12
656.955	6646.85
657.148	6693.96
657.34	6640.71
657.532	6571.08
657.724	6577.22
657.916	6448.2
658.108	6560.84
658.3	6423.62
658.492	6614.09
658.684	6104.14
658.876	6317.13
659.068	6331.47
659.26	6349.9
659.452	6349.9
659.644	6233.16
659.836	6155.34
660.028	6276.17
660.22	6009.93
660.412	6048.85
660.604	6009.93
660.796	6026.32
660.988	6003.79
661.18	5907.54
661.372	5889.1
661.563	5999.7
661.755	5854.29
661.947	5895.25
662.139	5758.03
662.331	5774.42
662.522	5887.06
662.714	5573.72
662.906	5895.25
663.097	5753.94
663.289	5733.46
663.481	5672.02
663.673	5567.57
663.864	5608.53
664.056	5616.72
664.247	5520.47
664.439	5418.07
664.631	5510.23
664.822	5463.13
665.014	5522.52
665.205	5469.27
665.397	5565.53
665.588	5291.1
665.78	5289.05
665.971	5377.11
666.163	5387.35
666.354	5334.11
666.546	5178.46
666.737	5182.56
666.929	5200.99
667.12	5143.64
667.311	5039.2
667.503	5143.64
667.694	5065.82
667.885	4932.7
668.077	5096.54
668.268	5022.81
668.459	5135.45
668.651	4899.94
668.842	5016.67
669.033	4889.7
669.224	4791.39
669.416	4885.6
669.607	4856.93
669.798	4940.9
669.989	4914.27
670.18	4676.71
670.371	4721.76
670.563	4760.67
670.754	4699.23
670.945	4725.86
671.136	4789.35
671.327	4793.44
671.518	4623.46
671.709	4703.33
671.9	4732
672.091	4645.99
672.282	4484.2
672.473	4437.09
672.664	4611.17
672.855	4559.97
673.046	4541.54
673.237	4723.81
673.428	4611.17
673.619	4383.85
673.809	4371.56
674	4484.2
674.191	4496.49
674.382	4447.33
674.573	4424.81
674.764	4476.01
674.954	4385.9
675.145	4377.7
675.336	4433
675.527	4330.6
675.717	4402.28
675.908	4273.26
676.099	4213.87
676.289	4295.79
676.48	4246.63
676.671	4224.11
676.861	4320.36
677.052	4197.48
677.243	4230.25
677.433	4195.43
677.624	4316.26
677.814	4209.77
678.005	4263.02
678.195	4074.6
678.386	4213.87
678.576	4050.03
678.767	4244.59
678.957	4082.8
679.148	4150.38
679.338	4129.9
679.529	4193.39
679.719	4029.55
679.909	3984.49
680.1	4127.85
680.29	3933.29
680.481	4017.26
680.671	4111.47
680.861	4019.31
681.052	3988.59
681.242	3984.49
681.432	4045.93
681.622	3914.86
681.813	3923.05
682.003	3865.71
682.193	3939.44
682.383	3994.73
682.573	3865.71
682.764	3990.64
682.954	3824.75
683.144	3912.81
683.334	3798.13
683.524	3880.05
683.714	3828.85
683.904	3910.77
684.094	3845.23
684.284	3814.51
684.474	3779.7
684.664	3736.69
684.854	3806.32
685.044	3837.04
685.234	3742.83
685.424	3789.94
685.614	3726.45
685.804	3775.6
685.994	3748.98
686.184	3738.74
686.374	3644.53
686.564	3652.72
686.753	3798.13
686.943	3734.64
687.133	3591.28
687.323	3613.81
687.513	3634.29
687.702	3523.7
687.892	3656.82
688.082	3572.85
688.272	3490.93
688.461	3519.6
688.651	3480.69
688.841	3482.74
689.03	3421.3
689.22	3507.32
689.41	3421.3
689.599	3609.72
689.789	3337.34
689.979	3368.06
690.168	3445.88
690.358	3302.52
690.547	3187.83
690.737	3417.21
690.926	3337.34
691.116	3282.04
691.305	3269.75
691.495	3277.94
691.684	3241.08
691.874	3239.03
692.063	3140.73
692.252	3169.4
692.442	3181.69
692.631	3243.13
692.82	3173.5
693.01	3071.1
693.199	3015.8
693.388	3159.16
693.578	3138.68
693.767	3077.24
693.956	3021.95
694.146	3083.39
694.335	2987.13
694.524	2860.16
694.713	2956.41
694.902	2849.92
695.092	2899.07
695.281	2937.98
695.47	2927.74
695.659	2958.46
695.848	2935.93
696.037	2944.13
696.226	2841.73
696.415	2843.78
696.604	2866.3
696.793	2780.29
696.982	2806.91
697.171	2958.46
697.36	2825.34
697.549	2788.48
697.738	2780.29
697.927	2679.94
698.116	2749.57
698.305	2743.42
698.494	2911.36
698.683	2790.53
698.872	2821.25
699.061	2778.24
699.25	2817.15
699.438	2786.43
699.627	2759.81
699.816	2724.99
700.005	2675.84
700.193	2667.65
700.382	2710.66
700.571	2548.87
700.76	2776.19
700.948	2598.02
701.137	2706.56
701.326	2671.75
701.514	2595.97
701.703	2679.94
701.892	2669.7
702.08	2751.62
702.269	2600.07
702.457	2681.99
702.646	2606.21
702.834	2624.64
703.023	2655.36
703.212	2604.16
703.4	2540.68
703.589	2720.9
703.777	2587.78
703.965	2573.44
704.154	2710.66
704.342	2608.26
704.531	2616.45
704.719	2585.73
704.907	2600.07
705.096	2679.94
705.284	2589.83
705.472	2583.68
705.661	2587.78
705.849	2569.35
706.037	2536.58
706.226	2610.31
706.414	2641.03
706.602	2571.4
706.79	2548.87
706.979	2573.44
707.167	2608.26
707.355	2514.05
707.543	2700.42
707.731	2618.5
707.919	2450.57
708.107	2542.72
708.296	2591.88
708.484	2489.48
708.672	2575.49
708.86	2550.92
709.048	2679.94
709.236	2509.96
709.424	2548.87
709.612	2469
709.8	2546.82
709.988	2485.38
710.176	2636.93
710.364	2591.88
710.551	2524.29
710.739	2636.93
710.927	2550.92
711.115	2608.26
711.303	2661.51
711.491	2481.28
711.679	2550.92
711.866	2548.87
712.054	2565.25
712.242	2524.29
712.43	2565.25
712.617	2552.96
712.805	2636.93
712.993	2518.15
713.181	2536.58
713.368	2483.33
713.556	2520.2
713.744	2440.33
713.931	2643.07
714.119	2616.45
714.306	2495.62
714.494	2479.24
714.682	2477.19
714.869	2497.67
715.057	2569.35
715.244	2493.57
715.432	2503.81
715.619	2473.09
715.807	2526.34
715.994	2565.25
716.182	2540.68
716.369	2430.09
716.556	2524.29
716.744	2473.09
716.931	2569.35
717.119	2544.77
717.306	2489.48
717.493	2591.88
717.681	2325.64
717.868	2561.16
718.055	2548.87
718.242	2479.24
718.43	2598.02
718.617	2512
718.804	2595.97
718.991	2557.06
719.179	2595.97
719.366	2585.73
719.553	2497.67
719.74	2442.37
719.927	2573.44
720.114	2493.57
720.301	2493.57
720.488	2471.04
720.676	2512
720.863	2485.38
721.05	2593.92
721.237	2520.2
721.424	2499.72
721.611	2526.34
721.798	2483.33
721.985	2598.02
722.172	2401.41
722.358	2438.28
722.545	2456.71
722.732	2530.44
722.919	2557.06
723.106	2618.5
723.293	2542.72
723.48	2559.11
723.667	2423.94
723.853	2434.18
724.04	2514.05
724.227	2436.23
724.414	2544.77
724.6	2458.76
724.787	2532.48
724.974	2526.34
725.161	2483.33
725.347	2471.04
725.534	2393.22
725.72	2454.66
725.907	2542.72
726.094	2487.43
726.28	2456.71
726.467	2387.08
726.653	2409.61
726.84	2516.1
727.027	2544.77
727.213	2585.73
727.4	2512
727.586	2469
727.773	2520.2
727.959	2573.44
728.145	2561.16
728.332	2460.81
728.518	2432.13
728.705	2477.19
728.891	2591.88
729.077	2432.13
729.264	2501.76
729.45	2524.29
729.636	2571.4
729.823	2507.91
730.009	2481.28
730.195	2403.46
730.382	2401.41
730.568	2471.04
730.754	2503.81
730.94	2460.81
731.126	2512
731.313	2581.64
731.499	2530.44
731.685	2546.82
731.871	2438.28
732.057	2385.03
732.243	2512
732.429	2485.38
732.615	2516.1
732.801	2497.67
732.987	2514.05
733.173	2509.96
733.359	2491.52
733.545	2489.48
733.731	2542.72
733.917	2469
734.103	2436.23
734.289	2565.25
734.475	2372.74
734.661	2622.59
734.847	2497.67
735.033	2473.09
735.219	2436.23
735.404	2430.09
735.59	2462.85
735.776	2434.18
735.962	2497.67
736.148	2462.85
736.333	2376.84
736.519	2536.58
736.705	2477.19
736.89	2516.1
737.076	2387.08
737.262	2485.38
737.447	2503.81
737.633	2514.05
737.819	2378.89
738.004	2483.33
738.19	2458.76
738.375	2473.09
738.561	2407.56
738.747	2430.09
738.932	2376.84
739.118	2430.09
739.303	2305.16
739.489	2444.42
739.674	2411.65
739.859	2376.84
740.045	2329.74
740.23	2309.26
740.416	2307.21
740.601	2428.04
740.786	2376.84
740.972	2157.71
741.157	2258.06
741.342	2360.45
741.528	2317.45
741.713	2387.08
741.898	2385.03
742.084	2317.45
742.269	2292.87
742.454	2272.39
742.639	2311.3
742.824	2258.06
743.01	2315.4
743.195	2284.68
743.38	2247.82
743.565	2241.67
743.75	2235.53
743.935	2251.91
744.12	2239.62
744.305	2225.29
744.49	2296.97
744.675	2194.57
744.86	2139.27
745.045	2182.28
745.23	2174.09
745.415	2145.42
745.6	2094.22
745.785	2133.13
745.97	2180.23
746.155	2139.27
746.34	2161.8
746.525	2139.27
746.71	2069.64
746.895	2002.06
747.079	2018.44
747.264	1965.2
747.449	1946.76
747.634	2057.36
747.819	2077.83
748.003	2034.83
748.188	2000.01
748.373	2008.2
748.557	2000.01
748.742	2000.01
748.927	2059.4
749.111	1989.77
749.296	1942.67
749.481	1914
749.665	1868.94
749.85	1875.09
750.034	1834.13
750.219	1840.27
750.404	1901.71
750.588	1905.81
750.773	1799.31
750.957	1848.46
751.141	1842.32
751.326	1832.08
751.51	1791.12
751.695	1680.53
751.879	1735.82
752.064	1760.4
752.248	1766.54
752.432	1727.63
752.617	1602.71
752.801	1897.61
752.985	1737.87
753.17	1664.15
753.354	1635.47
753.538	1580.18
753.722	1682.58
753.907	1574.03
754.091	1625.23
754.275	1614.99
754.459	1551.51
754.643	1619.09
754.828	1619.09
755.012	1557.65
755.196	1512.6
755.38	1490.07
755.564	1549.46
755.748	1434.77
755.932	1459.35
756.116	1361.05
756.3	1510.55
756.484	1471.64
756.668	1475.73
756.852	1483.92
757.036	1377.43
757.22	1469.59
757.404	1434.77
757.588	1498.26
757.772	1393.81
757.956	1252.5
758.14	1440.92
758.323	1373.33
758.507	1350.81
758.691	1445.01
758.875	1336.47
759.059	1379.48
759.242	1375.38
759.426	1258.65
759.61	1268.89
759.794	1225.88
759.977	1242.26
760.161	1434.77
760.345	1383.57
760.528	1281.18
760.712	1256.6
760.895	1191.06
761.079	1205.4
761.263	1203.35
761.446	1164.44
761.63	1205.4
761.813	1252.5
761.997	1295.51
762.18	1094.81
762.364	1121.43
762.547	1154.2
762.731	1143.96
762.914	1172.63
763.098	1176.73
763.281	1133.72
763.464	1143.96
763.648	1150.11
763.831	1164.44
764.015	1178.78
764.198	1111.19
764.381	1141.91
764.564	1148.06
764.748	1109.15
764.931	1074.33
765.114	1078.43
765.297	1160.34
765.481	1117.34
765.664	1133.72
765.847	1096.86
766.03	1047.71
766.213	1098.91
766.397	1000.6
766.58	1072.28
766.763	1109.15
766.946	1047.71
767.129	1019.04
767.312	996.51
767.495	1092.76
767.678	1019.04
767.861	1098.91
768.044	1033.37
768.227	1014.94
768.41	939.16
768.593	1039.51
768.776	1055.9
768.959	976.03
769.142	1051.8
769.324	822.43
769.507	1008.8
769.69	994.46
769.873	916.64
770.056	1023.13
770.239	1000.6
770.421	1025.18
770.604	955.55
770.787	963.74
770.97	965.79
771.152	885.92
771.335	912.54
771.518	937.12
771.7	943.26
771.883	885.92
772.066	910.49
772.248	922.78
772.431	810.14
772.613	849.05
772.796	844.96
772.978	875.68
773.161	836.77
773.343	892.06
773.526	910.49
773.708	828.57
773.891	767.13
774.073	869.53
774.256	726.18
774.438	830.62
774.621	822.43
774.803	828.57
774.985	785.57
775.168	789.66
775.35	808.09
775.532	816.29
775.715	861.34
775.897	740.51
776.079	711.84
776.261	851.1
776.444	754.85
776.626	752.8
776.808	789.66
776.99	767.13
777.173	726.18
777.355	754.85
777.537	738.46
777.719	695.46
777.901	744.61
778.083	734.37
778.265	648.35
778.447	722.08
778.629	660.64
778.811	611.49
778.993	613.54
779.175	662.69
779.357	695.46
779.539	578.72
779.721	666.78
779.903	672.93
780.085	658.59
780.267	652.45
780.449	613.54
780.631	588.96
780.812	603.3
780.994	599.2
781.176	640.16
781.358	576.67
781.54	566.43
781.721	648.35
781.903	484.52
782.085	564.39
782.267	582.82
782.448	599.2
782.63	550.05
782.812	535.71
782.993	578.72
783.175	560.29
783.357	451.75
783.538	513.19
783.72	554.15
783.901	574.63
784.083	480.42
784.264	498.85
784.446	482.47
784.627	414.88
784.809	500.9
784.99	453.8
785.172	543.91
785.353	525.47
785.535	490.66
785.716	427.17
785.897	500.9
786.079	576.67
786.26	527.52
786.441	525.47
786.623	429.22
786.804	388.26
786.985	486.56
787.167	435.36
787.348	400.55
787.529	414.88
787.71	435.36
787.891	435.36
788.073	461.99
788.254	412.84
788.435	412.84
788.616	443.56
788.797	423.08
788.978	414.88
789.159	365.73
789.34	418.98
789.522	398.5
789.703	402.6
789.884	326.82
790.065	451.75
790.246	410.79
790.427	414.88
790.607	365.73
790.788	402.6
790.969	345.25
791.15	416.93
791.331	421.03
791.512	412.84
791.693	410.79
791.874	337.06
792.054	461.99
792.235	455.84
792.416	357.54
792.597	335.01
792.778	351.4
792.958	378.02
793.139	380.07
793.32	281.77
793.5	271.53
793.681	359.59
793.862	353.45
794.042	414.88
794.223	400.55
794.404	365.73
794.584	349.35
794.765	341.16
794.945	310.44
795.126	328.87
795.306	373.92
795.487	289.96
795.667	316.58
795.848	322.73
796.028	240.81
796.209	337.06
796.389	283.81
796.57	287.91
796.75	302.25
796.93	304.29
797.111	251.05
797.291	240.81
797.471	308.39
797.652	312.49
797.832	267.43
798.012	246.95
798.192	216.23
798.373	281.77
798.553	330.92
798.733	324.77
798.913	253.09
799.093	277.67
799.274	308.39
799.454	208.04
799.634	277.67
799.814	232.62
799.994	314.53
800.174	289.96
800.354	261.29
800.534	222.38
800.714	257.19
800.894	216.23
801.074	265.38
801.254	154.79
801.434	173.22
801.614	277.67
801.794	185.51
801.974	619.68
802.154	220.33
802.334	240.81
802.514	185.51
802.693	162.98
802.873	208.04
803.053	337.06
803.233	265.38
803.413	232.62
803.592	318.63
803.772	212.14
803.952	117.93
804.131	185.51
804.311	193.7
804.491	242.85
804.67	175.27
804.85	308.39
805.03	249
805.209	212.14
805.389	181.42
805.568	222.38
805.748	205.99
805.928	191.66
806.107	183.46
806.287	236.71
806.466	257.19
806.646	269.48
806.825	222.38
807.004	234.66
807.184	220.33
807.363	187.56
807.543	195.75
807.722	212.14
807.901	253.09
808.081	212.14
808.26	228.52
808.439	222.38
808.619	193.7
808.798	183.46
808.977	218.28
809.156	208.04
809.336	199.85
809.515	191.66
809.694	132.26
809.873	183.46
810.052	167.08
810.231	197.8
810.411	203.94
810.59	193.7
810.769	193.7
810.948	222.38
811.127	136.36
811.306	117.93
811.485	210.09
811.664	257.19
811.843	169.13
812.022	109.74
812.201	181.42
812.38	154.79
812.559	189.61
812.737	181.42
812.916	144.55
813.095	115.88
813.274	197.8
813.453	160.94
813.632	79.02
813.811	156.84
813.989	76.97
814.168	128.17
814.347	126.12
814.526	83.11
814.704	134.31
814.883	132.26
815.062	122.02
815.24	142.5
815.419	158.89
815.598	130.22
815.776	142.5
815.955	119.98
816.133	183.46
816.312	193.7
816.49	140.46
816.669	124.07
816.847	109.74
817.026	162.98
817.204	126.12
817.383	167.08
817.561	105.64
817.74	74.92
817.918	146.6
818.097	130.22
818.275	85.16
818.453	115.88
818.632	175.27
818.81	117.93
818.988	95.4
819.167	48.3
819.345	70.83
819.523	165.03
819.701	115.88
819.879	158.89
820.058	97.45
820.236	169.13
820.414	85.16
820.592	117.93
820.77	76.97
820.948	138.41
821.127	105.64
821.305	187.56
821.483	62.63
821.661	109.74
821.839	115.88
822.017	160.94
822.195	64.68
822.373	146.6
822.551	115.88
822.729	171.18
822.907	169.13
823.085	122.02
823.262	105.64
823.44	103.59
823.618	119.98
823.796	144.55
823.974	150.7
824.152	33.96
824.329	103.59
824.507	70.83
824.685	165.03
824.863	54.44
825.04	130.22
825.218	89.26
825.396	103.59
825.574	33.96
825.751	119.98
825.929	128.17
826.107	111.78
826.284	130.22
826.462	146.6
826.639	70.83
826.817	126.12
826.994	25.77
827.172	60.59
827.349	152.74
827.527	136.36
827.704	156.84
827.882	72.87
828.059	113.83
828.237	74.92
828.414	97.45
828.591	113.83
828.769	150.7
828.946	36.01
829.124	132.26
829.301	89.26
829.478	15.53
829.655	97.45
829.833	126.12
830.01	103.59
830.187	130.22
830.364	52.39
830.542	126.12
830.719	52.39
830.896	95.4
831.073	23.72
831.25	50.35
831.427	95.4
831.604	-0.85
831.782	83.11
831.959	46.25
832.136	38.06
832.313	105.64
832.49	99.5
832.667	107.69
832.844	70.83
833.021	46.25
833.198	95.4
833.374	50.35
833.551	115.88
833.728	105.64
833.905	138.41
834.082	11.43
834.259	74.92
834.436	62.63
834.612	-29.52
834.789	158.89
834.966	91.31
835.143	42.15
835.319	21.67
835.496	124.07
835.673	93.35
835.85	95.4
836.026	72.87
836.203	31.91
836.38	-17.24
836.556	-25.43
836.733	21.67
836.909	72.87
837.086	15.53
837.262	27.82
837.439	60.59
837.616	21.67
837.792	15.53
837.968	21.67
838.145	11.43
838.321	44.2
838.498	58.54
838.674	66.73
838.851	3.24
839.027	-0.85
839.203	-0.85
839.38	101.55
839.556	36.01
839.732	122.02
839.909	31.91
840.085	95.4
840.261	23.72
840.437	89.26
840.614	64.68
840.79	109.74
840.966	56.49
841.142	48.3
841.318	33.96
841.494	74.92
841.671	56.49
841.847	-15.19
842.023	44.2
842.199	119.98
842.375	23.72
842.551	-4.95
842.727	60.59
842.903	56.49
843.079	-15.19
843.255	93.35
843.431	89.26
843.607	58.54
843.783	19.63
843.959	44.2
844.134	-15.19
844.31	101.55
844.486	-4.95
844.662	113.83
844.838	50.35
845.013	17.58
845.189	105.64
845.365	66.73
845.541	38.06
845.716	79.02
845.892	56.49
846.068	36.01
846.244	-9.05
846.419	87.21
846.595	48.3
846.77	85.16
846.946	36.01
847.122	130.22
847.297	46.25
847.473	109.74
847.648	-19.29
847.824	36.01
847.999	-27.48
848.175	50.35
848.35	11.43
848.526	66.73
848.701	56.49
848.876	52.39
849.052	76.97
849.227	-7
849.403	-11.09
849.578	95.4
849.753	31.91
849.929	29.87
850.104	1.19
850.279	-37.72
850.454	19.63
850.63	113.83
850.805	72.87
850.98	-11.09
851.155	33.96
851.33	44.2
851.505	21.67
851.681	42.15
851.856	-39.76
852.031	117.93
852.206	5.29
852.381	-9.05
852.556	-50
852.731	9.39
852.906	40.11
853.081	50.35
853.256	167.08
853.431	60.59
853.606	97.45
853.781	27.82
853.956	42.15
854.131	23.72
854.305	-9.05
854.48	-33.62
854.655	48.3
854.83	-17.24
855.005	-37.72
855.18	72.87
855.354	-17.24
855.529	38.06
855.704	-0.85
855.879	13.48
856.053	-0.85
856.228	25.77
856.403	54.44
856.577	33.96
856.752	-68.44
856.926	76.97
857.101	31.91
857.276	-29.52
857.45	81.07
857.625	85.16
857.799	60.59
857.974	13.48
858.148	9.39
858.323	23.72
858.497	62.63
858.672	64.68
858.846	19.63
859.02	-11.09
859.195	-11.09
859.369	-19.29
859.543	76.97
859.718	31.91
859.892	31.91
860.066	62.63
860.241	17.58
860.415	50.35
860.589	38.06
860.763	-35.67
860.938	31.91
861.112	50.35
861.286	-27.48
861.46	62.63
861.634	3.24
861.808	1.19
861.982	89.26
862.157	42.15
862.331	-17.24
862.505	60.59
862.679	56.49
862.853	-7
863.027	-39.76
863.201	46.25
863.375	19.63
863.549	-11.09
863.722	7.34
863.896	128.17
864.07	-19.29
864.244	36.01
864.418	46.25
864.592	124.07
864.766	-2.9
864.939	29.87
865.113	1.19
865.287	17.58
865.461	-41.81
865.634	27.82
865.808	-15.19
865.982	-60.24
866.156	-27.48
866.329	-70.48
866.503	-41.81
866.676	70.83
866.85	64.68
867.024	-52.05
867.197	-17.24
867.371	-9.05
867.544	31.91
867.718	-33.62
867.891	3.24
868.065	-50
868.238	48.3
868.412	31.91
868.585	-13.14
868.759	-23.38
868.932	-52.05
869.105	23.72
869.279	-23.38
869.452	25.77
869.625	-54.1
869.799	68.78
869.972	-0.85
870.145	-35.67
870.319	52.39
870.492	79.02
870.665	36.01
870.838	-31.57
871.011	-0.85
871.185	-21.33
871.358	-33.62
871.531	36.01
871.704	-56.15
871.877	-4.95
872.05	-15.19
872.223	17.58
872.396	89.26
872.569	-62.29
872.742	-17.24
872.915	52.39
873.088	-11.09
873.261	3.24
873.434	52.39
873.607	-86.87
873.78	-19.29
873.953	44.2
874.126	21.67
874.299	36.01
874.471	-33.62
874.644	46.25
874.817	-41.81
874.99	29.87
875.163	29.87
875.335	1.19
875.508	21.67
875.681	-0.85
875.853	70.83
876.026	68.78
876.199	-23.38
876.371	21.67
876.544	27.82
876.717	27.82
876.889	-4.95
877.062	5.29
877.234	9.39
877.407	-72.53
877.579	-0.85
877.752	29.87
877.924	68.78
878.097	-31.57
878.269	-25.43
878.442	17.58
878.614	-13.14
878.786	17.58
878.959	-74.58
879.131	-7
879.303	-82.77
879.476	19.63
879.648	17.58
879.82	76.97
879.993	-64.34
880.165	-21.33
880.337	-23.38
880.509	-29.52
880.681	9.39
880.854	23.72
881.026	-68.44
881.198	81.07
881.37	48.3
881.542	-62.29
881.714	5.29
881.886	-23.38
882.058	-17.24
882.23	66.73
882.402	-60.24
882.574	1.19
882.746	46.25
882.918	-4.95
883.09	19.63
883.262	-13.14
883.434	19.63
883.606	17.58
883.778	-29.52
883.95	25.77
884.122	50.35
884.293	-7
884.465	23.72
884.637	36.01
884.809	-29.52
884.98	62.63
885.152	40.11
885.324	42.15
885.496	-23.38
885.667	-11.09
885.839	-0.85
886.011	3.24
886.182	7.34
886.354	-2.9
886.525	-13.14
886.697	44.2
886.869	-11.09
887.04	-23.38
887.212	36.01
887.383	-62.29
887.555	40.11
887.726	15.53
887.897	36.01
888.069	1.19
888.24	33.96
888.412	-58.2
888.583	-33.62
888.754	-23.38
888.926	-47.96
889.097	1.19
889.268	-41.81
889.44	-27.48
889.611	-41.81
889.782	-2.9
889.953	-45.91
890.125	-2.9
890.296	-15.19
890.467	5.29
890.638	-64.34
890.809	-45.91
890.98	-54.1
891.151	33.96
891.323	-11.09
891.494	-19.29
891.665	-62.29
891.836	-84.82
892.007	-4.95
892.178	-0.85
892.349	-19.29
892.52	-25.43
892.691	-41.81
892.862	-29.52
893.032	-93.01
893.203	13.48
893.374	-11.09
893.545	64.68
893.716	-15.19
893.887	85.16
894.057	40.11
894.228	-13.14
894.399	-7
894.57	3.24
894.74	38.06
894.911	83.11
895.082	-13.14
895.253	-47.96
895.423	-43.86
895.594	19.63
895.764	-50
895.935	-82.77
896.106	-19.29
896.276	-27.48
896.447	13.48
896.617	31.91
896.788	-84.82
896.958	-29.52
897.129	7.34
897.299	-33.62
897.47	19.63
897.64	85.16
897.81	-58.2
897.981	66.73
898.151	40.11
898.322	23.72
898.492	1.19
898.662	-45.91
898.832	-90.96
899.003	-45.91
899.173	-7
899.343	-9.05
899.513	17.58
