Data from USB4F104151__34__12-27-18-114.txt Node

Date: Fri Mar 14 12:27:18 EDT 2025
User: louis
Spectrometer: USB4F10415
Trigger mode: 4
Integration Time (sec): 2.000000E-2
Scans to average: 1
Electric dark correction enabled: true
Nonlinearity correction enabled: false
Boxcar width: 0
XAxis mode: Wavelengths
Number of Pixels in Spectrum: 3648
>>>>>Begin Spectral Data<<<<<
178.204	15.87
178.424	15.87
178.644	15.87
178.864	-96.77
179.084	-98.81
179.304	-55.81
179.524	-0.51
179.744	-14.85
179.964	-4.61
180.184	-53.76
180.404	-35.33
180.624	-14.85
180.844	28.16
181.064	-12.8
181.283	89.6
181.503	3.58
181.723	71.17
181.943	-41.47
182.163	44.54
182.383	32.26
182.602	71.17
182.822	44.54
183.042	9.73
183.262	65.02
183.482	1.54
183.701	32.26
183.921	-31.23
184.141	11.78
184.361	30.21
184.58	5.63
184.8	7.68
185.02	62.98
185.239	13.82
185.459	75.26
185.679	46.59
185.898	9.73
186.118	38.4
186.338	-12.8
186.557	-53.76
186.777	-80.38
186.997	15.87
187.216	-39.42
187.436	7.68
187.655	52.74
187.875	17.92
188.095	5.63
188.314	-18.94
188.534	11.78
188.753	13.82
188.973	-4.61
189.192	83.45
189.412	71.17
189.631	-8.7
189.851	-59.9
190.07	81.41
190.29	5.63
190.509	-47.62
190.729	-23.04
190.948	81.41
191.168	93.69
191.387	15.87
191.607	54.78
191.826	15.87
192.045	67.07
192.265	19.97
192.484	17.92
192.704	-35.33
192.923	-4.61
193.142	24.06
193.362	42.5
193.581	17.92
193.8	13.82
194.02	1.54
194.239	-2.56
194.458	-64
194.678	36.35
194.897	24.06
195.116	73.21
195.335	44.54
195.555	54.78
195.774	9.73
195.993	-61.95
196.212	17.92
196.432	42.5
196.651	-37.38
196.87	-113.15
197.089	97.79
197.308	13.82
197.528	71.17
197.747	24.06
197.966	-10.75
198.185	81.41
198.404	-23.04
198.623	50.69
198.842	105.98
199.062	19.97
199.281	54.78
199.5	-10.75
199.719	34.3
199.938	54.78
200.157	79.36
200.376	15.87
200.595	-41.47
200.814	-18.94
201.033	46.59
201.252	-14.85
201.471	34.3
201.69	32.26
201.909	-16.9
202.128	38.4
202.347	19.97
202.566	15.87
202.785	28.16
203.004	24.06
203.223	155.13
203.442	13.82
203.661	7.68
203.879	-12.8
204.098	22.02
204.317	-25.09
204.536	60.93
204.755	30.21
204.974	71.17
205.193	38.4
205.411	71.17
205.63	50.69
205.849	-68.09
206.068	40.45
206.287	36.35
206.505	24.06
206.724	-10.75
206.943	-18.94
207.162	9.73
207.381	11.78
207.599	-16.9
207.818	-43.52
208.037	-37.38
208.255	-33.28
208.474	26.11
208.693	36.35
208.911	-6.66
209.13	11.78
209.349	1.54
209.567	32.26
209.786	52.74
210.005	-90.62
210.223	3.58
210.442	7.68
210.661	19.97
210.879	48.64
211.098	50.69
211.316	22.02
211.535	1.54
211.753	5.63
211.972	24.06
212.191	56.83
212.409	15.87
212.628	77.31
212.846	36.35
213.065	15.87
213.283	58.88
213.502	-29.18
213.72	38.4
213.938	19.97
214.157	15.87
214.375	13.82
214.594	-8.7
214.812	9.73
215.031	19.97
215.249	-61.95
215.467	-37.38
215.686	32.26
215.904	15.87
216.122	62.98
216.341	44.54
216.559	32.26
216.778	-43.52
216.996	17.92
217.214	3.58
217.432	7.68
217.651	1.54
217.869	7.68
218.087	11.78
218.306	-4.61
218.524	-2.56
218.742	-33.28
218.96	24.06
219.179	13.82
219.397	114.17
219.615	5.63
219.833	-31.23
220.051	24.06
220.27	91.65
220.488	-12.8
220.706	38.4
220.924	-4.61
221.142	52.74
221.36	-14.85
221.578	28.16
221.796	-31.23
222.015	-6.66
222.233	54.78
222.451	105.98
222.669	9.73
222.887	73.21
223.105	-25.09
223.323	3.58
223.541	-8.7
223.759	-14.85
223.977	30.21
224.195	99.84
224.413	-35.33
224.631	-29.18
224.849	-12.8
225.067	15.87
225.285	3.58
225.503	13.82
225.721	11.78
225.939	-12.8
226.157	-8.7
226.375	112.13
226.592	-6.66
226.81	1.54
227.028	52.74
227.246	130.56
227.464	58.88
227.682	44.54
227.9	5.63
228.117	58.88
228.335	13.82
228.553	89.6
228.771	40.45
228.989	40.45
229.206	46.59
229.424	69.12
229.642	17.92
229.86	81.41
230.077	5.63
230.295	87.55
230.513	-25.09
230.731	79.36
230.948	46.59
231.166	105.98
231.384	22.02
231.601	-41.47
231.819	44.54
232.037	69.12
232.254	54.78
232.472	32.26
232.689	48.64
232.907	-41.47
233.125	11.78
233.342	32.26
233.56	-23.04
233.777	-31.23
233.995	44.54
234.213	-14.85
234.43	19.97
234.648	7.68
234.865	9.73
235.083	9.73
235.3	7.68
235.518	5.63
235.735	-66.05
235.953	22.02
236.17	28.16
236.388	-45.57
236.605	60.93
236.822	32.26
237.04	17.92
237.257	34.3
237.475	-47.62
237.692	54.78
237.909	122.37
238.127	-12.8
238.344	28.16
238.562	62.98
238.779	40.45
238.996	30.21
239.214	54.78
239.431	40.45
239.648	-6.66
239.865	-27.14
240.083	-4.61
240.3	44.54
240.517	19.97
240.735	5.63
240.952	1.54
241.169	40.45
241.386	19.97
241.603	5.63
241.821	-14.85
242.038	22.02
242.255	5.63
242.472	-55.81
242.689	36.35
242.907	38.4
243.124	-18.94
243.341	-18.94
243.558	9.73
243.775	30.21
243.992	-94.72
244.209	42.5
244.426	-27.14
244.643	36.35
244.86	9.73
245.078	24.06
245.295	-64
245.512	-14.85
245.729	-12.8
245.946	-25.09
246.163	60.93
246.38	69.12
246.597	91.65
246.814	17.92
247.031	-33.28
247.248	26.11
247.464	19.97
247.681	-23.04
247.898	-39.42
248.115	32.26
248.332	-47.62
248.549	44.54
248.766	-8.7
248.983	-20.99
249.2	108.03
249.417	24.06
249.633	40.45
249.85	13.82
250.067	-45.57
250.284	48.64
250.501	11.78
250.717	69.12
250.934	28.16
251.151	26.11
251.368	22.02
251.585	62.98
251.801	24.06
252.018	-35.33
252.235	36.35
252.451	-51.71
252.668	-25.09
252.885	54.78
253.102	38.4
253.318	11.78
253.535	-14.85
253.752	-27.14
253.968	-12.8
254.185	-37.38
254.401	140.8
254.618	-25.09
254.835	-23.04
255.051	5.63
255.268	26.11
255.484	-6.66
255.701	38.4
255.917	13.82
256.134	-4.61
256.351	87.55
256.567	-8.7
256.784	40.45
257	-4.61
257.217	-20.99
257.433	9.73
257.65	17.92
257.866	32.26
258.082	-51.71
258.299	13.82
258.515	89.6
258.732	-0.51
258.948	28.16
259.165	5.63
259.381	15.87
259.597	52.74
259.814	1.54
260.03	-49.66
260.246	-37.38
260.463	44.54
260.679	46.59
260.895	50.69
261.112	60.93
261.328	52.74
261.544	-10.75
261.761	58.88
261.977	-49.66
262.193	-4.61
262.409	7.68
262.626	69.12
262.842	24.06
263.058	1.54
263.274	-8.7
263.49	26.11
263.707	-31.23
263.923	-55.81
264.139	89.6
264.355	26.11
264.571	17.92
264.787	-64
265.004	19.97
265.22	-4.61
265.436	36.35
265.652	-8.7
265.868	46.59
266.084	-4.61
266.3	-10.75
266.516	5.63
266.732	13.82
266.948	-20.99
267.164	-14.85
267.38	77.31
267.596	-8.7
267.812	9.73
268.028	7.68
268.244	-2.56
268.46	69.12
268.676	7.68
268.892	7.68
269.108	22.02
269.324	11.78
269.54	-55.81
269.756	28.16
269.972	-78.33
270.188	19.97
270.403	52.74
270.619	11.78
270.835	-0.51
271.051	38.4
271.267	-23.04
271.483	9.73
271.698	48.64
271.914	30.21
272.13	11.78
272.346	26.11
272.562	93.69
272.777	38.4
272.993	44.54
273.209	-86.53
273.425	17.92
273.64	32.26
273.856	46.59
274.072	30.21
274.287	-33.28
274.503	-29.18
274.719	5.63
274.934	19.97
275.15	-45.57
275.366	5.63
275.581	40.45
275.797	22.02
276.012	-10.75
276.228	-12.8
276.444	1.54
276.659	11.78
276.875	7.68
277.09	15.87
277.306	-43.52
277.521	42.5
277.737	50.69
277.952	26.11
278.168	38.4
278.383	-27.14
278.599	3.58
278.814	-31.23
279.03	-10.75
279.245	75.26
279.461	44.54
279.676	34.3
279.892	54.78
280.107	30.21
280.322	-23.04
280.538	67.07
280.753	-6.66
280.969	-25.09
281.184	-27.14
281.399	75.26
281.615	46.59
281.83	83.45
282.045	13.82
282.26	-25.09
282.476	36.35
282.691	26.11
282.906	93.69
283.122	62.98
283.337	-33.28
283.552	7.68
283.767	-43.52
283.983	9.73
284.198	19.97
284.413	38.4
284.628	-57.86
284.843	24.06
285.058	15.87
285.274	48.64
285.489	-8.7
285.704	-0.51
285.919	1.54
286.134	85.5
286.349	-14.85
286.564	67.07
286.779	-0.51
286.995	36.35
287.21	28.16
287.425	1.54
287.64	-16.9
287.855	-4.61
288.07	15.87
288.285	148.99
288.5	65.02
288.715	81.41
288.93	-2.56
289.145	34.3
289.36	34.3
289.575	-18.94
289.79	5.63
290.004	-20.99
290.219	15.87
290.434	5.63
290.649	15.87
290.864	-2.56
291.079	15.87
291.294	56.83
291.509	13.82
291.724	26.11
291.938	15.87
292.153	30.21
292.368	-82.43
292.583	36.35
292.798	65.02
293.012	-10.75
293.227	1.54
293.442	-55.81
293.657	40.45
293.871	26.11
294.086	13.82
294.301	60.93
294.516	-14.85
294.73	13.82
294.945	58.88
295.16	28.16
295.374	-4.61
295.589	42.5
295.804	-27.14
296.018	-33.28
296.233	13.82
296.447	40.45
296.662	50.69
296.877	138.75
297.091	5.63
297.306	-53.76
297.52	44.54
297.735	58.88
297.949	-8.7
298.164	46.59
298.378	-41.47
298.593	-16.9
298.807	22.02
299.022	13.82
299.236	56.83
299.451	1.54
299.665	17.92
299.88	-31.23
300.094	-31.23
300.309	22.02
300.523	28.16
300.737	11.78
300.952	40.45
301.166	60.93
301.381	-29.18
301.595	73.21
301.809	-8.7
302.024	40.45
302.238	-8.7
302.452	85.5
302.667	-12.8
302.881	89.6
303.095	73.21
303.309	3.58
303.524	-20.99
303.738	34.3
303.952	-37.38
304.166	-25.09
304.381	-23.04
304.595	48.64
304.809	3.58
305.023	60.93
305.237	48.64
305.452	11.78
305.666	62.98
305.88	69.12
306.094	28.16
306.308	83.45
306.522	11.78
306.736	67.07
306.95	-29.18
307.164	7.68
307.379	34.3
307.593	-18.94
307.807	48.64
308.021	17.92
308.235	-16.9
308.449	42.5
308.663	46.59
308.877	93.69
309.091	-10.75
309.305	81.41
309.519	-20.99
309.733	60.93
309.947	52.74
310.161	28.16
310.374	17.92
310.588	56.83
310.802	40.45
311.016	58.88
311.23	-29.18
311.444	58.88
311.658	65.02
311.872	40.45
312.085	42.5
312.299	67.07
312.513	30.21
312.727	81.41
312.941	-51.71
313.154	50.69
313.368	50.69
313.582	24.06
313.796	34.3
314.009	-16.9
314.223	-25.09
314.437	-6.66
314.651	19.97
314.864	-33.28
315.078	48.64
315.292	15.87
315.505	15.87
315.719	93.69
315.933	1.54
316.146	3.58
316.36	9.73
316.573	87.55
316.787	-66.05
317.001	7.68
317.214	17.92
317.428	40.45
317.641	-6.66
317.855	60.93
318.068	52.74
318.282	69.12
318.495	-8.7
318.709	32.26
318.922	11.78
319.136	48.64
319.349	36.35
319.563	-45.57
319.776	48.64
319.99	11.78
320.203	67.07
320.417	48.64
320.63	56.83
320.843	101.89
321.057	34.3
321.27	34.3
321.483	34.3
321.697	85.5
321.91	99.84
322.124	69.12
322.337	-41.47
322.55	38.4
322.763	-10.75
322.977	48.64
323.19	19.97
323.403	-35.33
323.617	91.65
323.83	60.93
324.043	-2.56
324.256	71.17
324.469	44.54
324.683	-18.94
324.896	-2.56
325.109	17.92
325.322	5.63
325.535	99.84
325.748	24.06
325.962	56.83
326.175	-23.04
326.388	24.06
326.601	-8.7
326.814	-12.8
327.027	11.78
327.24	48.64
327.453	50.69
327.666	60.93
327.879	50.69
328.092	56.83
328.305	-35.33
328.518	93.69
328.731	105.98
328.944	-6.66
329.157	54.78
329.37	24.06
329.583	-37.38
329.796	34.3
330.009	-6.66
330.222	5.63
330.435	11.78
330.648	34.3
330.861	-41.47
331.073	54.78
331.286	32.26
331.499	15.87
331.712	-55.81
331.925	46.59
332.138	3.58
332.35	97.79
332.563	-10.75
332.776	50.69
332.989	46.59
333.202	-25.09
333.414	28.16
333.627	11.78
333.84	17.92
334.053	32.26
334.265	60.93
334.478	73.21
334.691	83.45
334.903	-25.09
335.116	-14.85
335.329	-2.56
335.541	19.97
335.754	101.89
335.966	-8.7
336.179	42.5
336.392	11.78
336.604	42.5
336.817	26.11
337.029	44.54
337.242	-43.52
337.454	65.02
337.667	-6.66
337.88	30.21
338.092	24.06
338.305	-4.61
338.517	15.87
338.729	17.92
338.942	69.12
339.154	42.5
339.367	1.54
339.579	-16.9
339.792	-6.66
340.004	50.69
340.217	40.45
340.429	1.54
340.641	-16.9
340.854	46.59
341.066	95.74
341.278	13.82
341.491	103.93
341.703	54.78
341.915	-18.94
342.128	28.16
342.34	-27.14
342.552	60.93
342.764	65.02
342.977	32.26
343.189	79.36
343.401	56.83
343.613	-68.09
343.826	54.78
344.038	-47.62
344.25	9.73
344.462	-8.7
344.674	54.78
344.886	26.11
345.099	-70.14
345.311	73.21
345.523	69.12
345.735	-33.28
345.947	9.73
346.159	26.11
346.371	67.07
346.583	5.63
346.795	13.82
347.007	3.58
347.219	34.3
347.431	28.16
347.643	48.64
347.855	-47.62
348.067	11.78
348.279	40.45
348.491	116.22
348.703	91.65
348.915	-16.9
349.127	-23.04
349.339	17.92
349.551	85.5
349.763	-6.66
349.975	91.65
350.187	36.35
350.399	69.12
350.61	-6.66
350.822	15.87
351.034	112.13
351.246	-35.33
351.458	9.73
351.669	36.35
351.881	9.73
352.093	-27.14
352.305	103.93
352.517	44.54
352.728	38.4
352.94	-25.09
353.152	38.4
353.363	24.06
353.575	81.41
353.787	87.55
353.999	58.88
354.21	3.58
354.422	73.21
354.633	3.58
354.845	19.97
355.057	9.73
355.268	-29.18
355.48	44.54
355.692	19.97
355.903	17.92
356.115	71.17
356.326	-2.56
356.538	62.98
356.749	120.32
356.961	44.54
357.172	40.45
357.384	65.02
357.595	34.3
357.807	71.17
358.018	44.54
358.23	69.12
358.441	75.26
358.653	28.16
358.864	-2.56
359.075	36.35
359.287	24.06
359.498	75.26
359.709	17.92
359.921	-12.8
360.132	17.92
360.344	48.64
360.555	26.11
360.766	38.4
360.977	-31.23
361.189	19.97
361.4	-20.99
361.611	34.3
361.823	38.4
362.034	-55.81
362.245	24.06
362.456	67.07
362.667	-18.94
362.879	-14.85
363.09	22.02
363.301	93.69
363.512	79.36
363.723	69.12
363.935	22.02
364.146	52.74
364.357	75.26
364.568	7.68
364.779	13.82
364.99	85.5
365.201	-8.7
365.412	28.16
365.623	-39.42
365.834	48.64
366.045	5.63
366.256	5.63
366.467	73.21
366.678	58.88
366.889	30.21
367.1	-23.04
367.311	40.45
367.522	34.3
367.733	-14.85
367.944	38.4
368.155	-33.28
368.366	105.98
368.577	105.98
368.788	56.83
368.999	-27.14
369.209	-6.66
369.42	56.83
369.631	108.03
369.842	24.06
370.053	44.54
370.264	24.06
370.474	-2.56
370.685	5.63
370.896	5.63
371.107	26.11
371.317	65.02
371.528	89.6
371.739	116.22
371.95	-14.85
372.16	75.26
372.371	73.21
372.582	-6.66
372.792	24.06
373.003	60.93
373.214	75.26
373.424	34.3
373.635	34.3
373.846	101.89
374.056	67.07
374.267	42.5
374.477	5.63
374.688	-0.51
374.898	71.17
375.109	48.64
375.319	38.4
375.53	-35.33
375.74	30.21
375.951	81.41
376.161	15.87
376.372	54.78
376.582	15.87
376.793	11.78
377.003	77.31
377.214	36.35
377.424	71.17
377.635	17.92
377.845	26.11
378.055	-6.66
378.266	-47.62
378.476	-14.85
378.686	44.54
378.897	-2.56
379.107	108.03
379.317	24.06
379.528	85.5
379.738	54.78
379.948	5.63
380.158	67.07
380.369	28.16
380.579	71.17
380.789	-78.33
380.999	81.41
381.21	99.84
381.42	60.93
381.63	69.12
381.84	38.4
382.05	13.82
382.261	24.06
382.471	48.64
382.681	50.69
382.891	36.35
383.101	-45.57
383.311	1.54
383.521	52.74
383.731	50.69
383.941	-57.86
384.151	32.26
384.361	89.6
384.571	46.59
384.781	28.16
384.991	75.26
385.201	159.23
385.411	122.37
385.621	17.92
385.831	32.26
386.041	15.87
386.251	11.78
386.461	130.56
386.671	36.35
386.881	50.69
387.091	69.12
387.301	56.83
387.511	36.35
387.72	71.17
387.93	17.92
388.14	3.58
388.35	9.73
388.56	73.21
388.769	83.45
388.979	56.83
389.189	3.58
389.399	91.65
389.609	-12.8
389.818	-6.66
390.028	105.98
390.238	7.68
390.447	77.31
390.657	44.54
390.867	17.92
391.076	-12.8
391.286	60.93
391.496	69.12
391.705	85.5
391.915	165.37
392.125	-14.85
392.334	91.65
392.544	71.17
392.753	1.54
392.963	30.21
393.172	42.5
393.382	34.3
393.591	40.45
393.801	38.4
394.01	1.54
394.22	30.21
394.429	101.89
394.639	28.16
394.848	56.83
395.058	19.97
395.267	13.82
395.477	40.45
395.686	36.35
395.895	108.03
396.105	161.28
396.314	-0.51
396.524	134.65
396.733	81.41
396.942	38.4
397.152	34.3
397.361	128.51
397.57	91.65
397.78	-18.94
397.989	38.4
398.198	120.32
398.407	-23.04
398.617	36.35
398.826	56.83
399.035	54.78
399.244	28.16
399.453	13.82
399.663	7.68
399.872	151.04
400.081	48.64
400.29	79.36
400.499	-33.28
400.708	85.5
400.917	56.83
401.127	105.98
401.336	52.74
401.545	132.61
401.754	155.13
401.963	163.33
402.172	114.17
402.381	77.31
402.59	69.12
402.799	85.5
403.008	171.52
403.217	153.09
403.426	58.88
403.635	56.83
403.844	89.6
404.053	136.7
404.262	58.88
404.471	87.55
404.68	99.84
404.888	93.69
405.097	175.61
405.306	71.17
405.515	144.89
405.724	146.94
405.933	218.62
406.142	132.61
406.35	101.89
406.559	181.76
406.768	165.37
406.977	136.7
407.185	130.56
407.394	128.51
407.603	167.42
407.812	155.13
408.02	181.76
408.229	122.37
408.438	212.48
408.646	148.99
408.855	200.19
409.064	185.85
409.272	310.78
409.481	226.81
409.69	198.14
409.898	208.38
410.107	261.63
410.315	257.53
410.524	230.91
410.733	255.48
410.941	269.82
411.15	275.96
411.358	304.64
411.567	359.93
411.775	273.92
411.984	318.97
412.192	253.44
412.401	329.21
412.609	392.7
412.818	394.75
413.026	433.66
413.234	386.55
413.443	427.51
413.651	488.95
413.86	437.75
414.068	474.62
414.276	495.1
414.485	460.28
414.693	521.72
414.901	527.86
415.11	495.1
415.318	513.53
415.526	583.16
415.734	583.16
415.943	534.01
416.151	613.88
416.359	609.78
416.567	607.73
416.776	624.12
416.984	734.71
417.192	781.81
417.4	747
417.608	722.42
417.817	753.14
418.025	798.2
418.233	882.16
418.441	906.74
418.649	955.89
418.857	1025.52
419.065	1019.38
419.273	945.65
419.481	1144.3
419.689	1164.78
419.897	1125.87
420.105	1164.78
420.313	1170.93
420.521	1150.45
420.729	1299.95
420.937	1267.18
421.145	1324.52
421.353	1482.22
421.561	1476.07
421.769	1512.94
421.977	1676.77
422.185	1562.09
422.393	1676.77
422.601	1781.22
422.809	1754.6
423.017	1857
423.224	1887.72
423.432	1975.78
423.64	2016.74
423.848	2074.08
424.056	2035.17
424.263	2199.01
424.471	2129.38
424.679	2354.65
424.887	2364.89
425.094	2518.49
425.302	2536.92
425.51	2559.45
425.718	2756.05
425.925	2782.68
426.133	2745.81
426.341	3014.1
426.548	3130.83
426.756	3186.13
426.964	3048.91
427.171	3239.37
427.379	3511.75
427.586	3474.89
427.794	3507.66
428.001	3689.93
428.209	3929.54
428.417	3841.48
428.624	4175.3
428.832	4142.53
429.039	4191.68
429.247	4040.13
429.454	4459.96
429.662	4853.17
429.869	4335.04
430.076	4736.44
430.284	4502.97
430.491	4879.8
430.699	5023.16
430.906	5162.42
431.114	5178.8
431.321	5434.8
431.528	5430.7
431.736	5727.66
431.943	6350.24
432.15	5936.55
432.358	6208.93
432.565	6303.14
432.772	6317.47
432.979	6759.83
433.187	6790.55
433.394	6729.11
433.601	7048.6
433.808	7306.64
434.016	7060.88
434.223	7478.67
434.43	7886.22
434.637	7937.41
434.844	8351.1
435.052	8406.4
435.259	8508.8
435.466	8508.8
435.673	8263.04
435.88	9090.42
436.087	9528.69
436.294	9626.99
436.501	9336.18
436.708	9446.77
436.915	9885.03
437.122	10339.68
437.329	10114.41
437.537	10526.05
437.743	10818.91
437.95	10595.68
438.157	11177.3
438.364	11541.84
438.571	11562.32
438.778	11547.98
438.985	12557.63
439.192	12385.6
439.399	12490.05
439.606	12270.92
439.813	13032.76
440.02	13636.91
440.227	13446.45
440.433	13495.6
440.64	13847.85
440.847	13708.59
441.054	14069.03
441.261	15045.91
441.467	15021.34
441.674	15291.67
441.881	15398.17
442.088	15519
442.294	15676.69
442.501	15916.3
442.708	16301.32
442.914	16909.57
443.121	17614.07
443.328	16844.03
443.534	18400.49
443.741	17962.22
443.948	17695.99
444.154	18984.16
444.361	18668.77
444.568	19010.78
444.774	18889.95
444.981	18855.14
445.187	19616.98
445.394	20448.46
445.6	20225.23
445.807	22019.25
446.013	21165.25
446.22	21892.27
446.426	22488.23
446.633	22740.13
446.839	23508.12
447.046	22666.41
447.252	24075.41
447.459	23712.92
447.665	23682.2
447.871	25011.33
448.078	25734.26
448.284	24573.07
448.491	25406.59
448.697	26385.52
448.903	26809.45
449.11	27055.2
449.316	26399.85
449.522	26973.28
449.728	27741.27
449.935	28101.72
450.141	27984.98
450.347	28443.73
450.553	27507.8
450.76	28212.31
450.966	28830.79
451.172	28482.64
451.378	29219.91
451.584	28492.88
451.791	29664.32
451.997	29242.43
452.203	29848.63
452.409	29879.35
452.615	29666.36
452.821	28486.73
453.027	28562.51
453.233	29867.06
453.44	28351.57
453.646	29160.52
453.852	29330.5
454.058	29695.03
454.264	28632.14
454.47	29353.02
454.676	28728.39
454.882	29482.05
455.088	27272.29
455.294	27759.7
455.5	27556.96
455.705	28402.77
455.911	27499.61
456.117	26500.2
456.323	26217.58
456.529	24947.84
456.735	26154.1
456.941	25240.7
457.147	25044.1
457.352	24120.46
457.558	23942.29
457.764	23919.76
457.97	23422.11
458.176	23002.27
458.381	22809.76
458.587	22062.26
458.793	21746.87
458.999	20677.83
459.204	22539.43
459.41	21509.3
459.616	19979.47
459.821	20149.45
460.027	19948.75
460.233	19862.74
460.438	18916.58
460.644	19119.32
460.85	17792.24
461.055	17962.22
461.261	18044.14
461.466	16559.36
461.672	16002.32
461.878	17046.78
462.083	16196.87
462.289	15641.87
462.494	15549.71
462.7	14933.28
462.905	14521.63
463.111	14992.67
463.316	15088.92
463.522	14597.41
463.727	14542.11
463.932	14372.13
464.138	14435.62
464.343	14392.61
464.549	14284.07
464.754	14779.68
464.959	14232.87
465.165	14390.56
465.37	13718.83
465.575	13380.92
465.781	13722.93
465.986	13882.67
466.191	13526.32
466.397	13294.9
466.602	12805.44
466.807	12963.13
467.012	13036.86
467.218	13032.76
467.423	12844.35
467.628	12965.18
467.833	13421.88
468.038	13040.95
468.244	12754.24
468.449	13063.48
468.654	12563.78
468.859	12670.27
469.064	12660.03
469.269	11941.19
469.474	12123.46
469.679	12551.49
469.885	11992.39
470.09	12119.37
470.295	12205.38
470.5	11654.48
470.705	11873.61
470.91	11564.37
471.115	11576.66
471.32	11701.58
471.525	11760.97
471.73	11251.03
471.935	11414.87
472.139	10917.21
472.344	11101.53
472.549	10925.4
472.754	10818.91
472.959	10628.45
473.164	10440.03
473.369	10323.3
473.574	10622.3
473.778	10567.01
473.983	10255.72
474.188	10503.52
474.393	9942.38
474.598	10009.96
474.802	10005.86
475.007	9882.99
475.212	9829.74
475.417	9434.48
475.621	9422.19
475.826	9618.8
476.031	9471.34
476.235	9080.18
476.44	9293.17
476.645	8945.02
476.849	9182.58
477.054	8969.59
477.259	8834.43
477.463	8795.51
477.668	8815.99
477.872	8744.31
478.077	8502.65
478.282	8347.01
478.486	8332.67
478.691	8220.03
478.895	8310.15
479.1	8265.09
479.304	8134.02
479.509	8115.59
479.713	8125.83
479.918	7990.66
480.122	7871.88
480.326	7902.6
480.531	7867.78
480.735	7898.5
480.94	7658.89
481.144	8125.83
481.348	7615.88
481.553	7777.67
481.757	7540.11
481.961	7880.07
482.166	7832.97
482.37	7705.99
482.574	7523.73
482.778	7603.6
482.983	7806.34
483.187	7617.93
483.391	7773.58
483.595	7722.38
483.8	7669.13
484.004	7806.34
484.208	7796.11
484.412	7628.17
484.616	7685.51
484.821	7460.24
485.025	7210.39
485.229	7662.99
485.433	7699.85
485.637	7665.04
485.841	7486.86
486.045	7568.78
486.249	7843.21
486.453	7560.59
486.657	7785.87
486.861	7757.19
487.065	7452.05
487.269	7572.88
487.473	7478.67
487.677	7669.13
487.881	7820.68
488.085	7574.92
488.289	7574.92
488.493	7585.16
488.697	7773.58
488.901	7636.36
489.105	7570.83
489.309	7746.95
489.512	7757.19
489.716	7851.4
489.92	7716.23
490.124	7814.54
490.328	7857.54
490.531	7650.7
490.735	7806.34
490.939	7880.07
491.143	7732.62
491.346	7837.06
491.55	8078.72
491.754	8041.86
491.958	8076.68
492.161	8019.33
492.365	8140.16
492.569	8015.24
492.772	7972.23
492.976	8117.64
493.18	8334.72
493.383	8121.73
493.587	8320.39
493.79	8482.17
493.994	8265.09
494.197	8248.71
494.401	8562.05
494.605	8586.62
494.808	8680.83
495.012	8551.81
495.215	8746.36
495.419	8650.11
495.622	8791.42
495.825	8830.33
496.029	8924.54
496.232	9035.13
496.436	9149.81
496.639	9151.86
496.843	9178.48
497.046	9508.21
497.249	9422.19
497.453	9497.97
497.656	9774.44
497.859	9715.05
498.063	9776.49
498.266	9885.03
498.469	9964.9
498.673	10042.73
498.876	10169.7
499.079	10181.99
499.282	10263.91
499.485	10505.57
499.689	10671.45
499.892	10724.7
500.095	10857.82
500.298	10925.4
500.501	10892.63
500.705	11197.78
500.908	11416.91
501.111	11504.98
501.314	11584.85
501.517	11609.42
501.72	11937.1
501.923	11724.11
502.126	11916.62
502.329	12184.9
502.532	12248.39
502.735	12424.51
502.938	12574.02
503.141	12541.25
503.344	13018.43
503.547	12795.2
503.75	13206.84
503.953	13133.11
504.156	13450.55
504.359	13436.21
504.562	13434.16
504.765	13878.57
504.968	14046.51
505.17	14069.03
505.373	14316.84
505.576	14216.49
505.779	14542.11
505.982	14695.71
506.185	14947.61
506.387	15176.98
506.59	15174.94
506.793	15488.28
506.996	15293.72
507.198	15566.1
507.401	15701.26
507.604	15688.98
507.807	16370.95
508.009	16248.07
508.212	16313.61
508.415	16563.46
508.617	16717.06
508.82	16725.25
509.022	16536.84
509.225	17134.84
509.428	17227
509.63	17566.96
509.833	17521.91
510.035	17773.81
510.238	17775.86
510.44	18058.48
510.643	18355.43
510.845	18543.85
511.048	18353.38
511.25	18517.22
511.453	18521.32
511.655	19477.72
511.858	19281.11
512.06	19262.68
512.262	19440.86
512.465	19584.21
512.667	20313.29
512.87	20147.4
513.072	20051.15
513.274	20436.17
513.477	20944.06
513.679	20774.08
513.881	21161.15
514.084	21200.06
514.286	21435.58
514.488	21507.26
514.69	22052.02
514.893	22205.61
515.095	21824.69
515.297	22600.87
515.499	22799.52
515.701	22561.96
515.904	22961.31
516.106	23053.47
516.308	23067.81
516.51	23579.8
516.712	23282.84
516.914	23854.23
517.116	24470.67
517.318	24071.31
517.52	24380.56
517.722	24564.87
517.925	24757.38
518.127	24982.66
518.329	25146.5
518.531	25144.45
518.733	25480.32
518.935	25701.5
519.136	25785.46
519.338	26274.93
519.54	26467.44
519.742	26547.31
519.944	26485.87
520.146	27038.82
520.348	27085.92
520.55	27315.3
520.752	27378.78
520.954	28126.29
521.155	27698.27
521.357	28107.86
521.559	27991.12
521.761	28599.37
521.963	28712.01
522.164	28662.86
522.366	28703.82
522.568	28881.99
522.77	29160.52
522.971	29506.62
523.173	29342.78
523.375	29545.53
523.576	29549.63
523.778	29762.62
523.98	30315.57
524.181	30362.67
524.383	30741.55
524.584	30831.66
524.786	30590
524.988	30647.34
525.189	31261.73
525.391	31159.33
525.592	31196.2
525.794	31116.33
525.995	31265.83
526.197	31704.09
526.398	31497.25
526.6	32095.25
526.801	31872.03
527.003	31968.28
527.204	31814.68
527.406	32345.11
527.607	32510.99
527.808	32461.84
528.01	32148.5
528.211	32330.77
528.412	32934.92
528.614	32764.94
528.815	33215.49
529.016	33248.26
529.218	33012.74
529.419	33334.28
529.62	32902.15
529.822	32766.99
530.023	32789.52
530.224	33367.04
530.425	33504.26
530.626	33213.45
530.828	33301.51
531.029	33674.24
531.23	33387.52
531.431	33485.83
531.632	33936.38
531.833	33930.23
532.035	33397.76
532.236	33438.72
532.437	33833.98
532.638	33653.76
532.839	33909.75
533.04	34098.17
533.241	33457.15
533.442	34374.64
533.643	33702.91
533.844	34046.97
534.045	34116.6
534.246	33768.44
534.447	33915.9
534.648	34079.74
534.849	34163.7
535.05	33883.13
535.251	33819.64
535.451	33967.1
535.652	34284.53
535.853	33670.14
536.054	34057.21
536.255	34470.9
536.456	33784.83
536.657	34761.71
536.857	33948.67
537.058	34161.65
537.259	34354.16
537.46	34290.68
537.66	34010.11
537.861	33934.33
538.062	33848.32
538.263	34112.5
538.463	33963
538.664	34302.96
538.865	34003.96
539.065	34221.05
539.266	33543.17
539.466	34294.77
539.667	33885.18
539.868	34219
540.068	34135.03
540.269	33897.47
540.469	34022.39
540.67	33952.76
540.87	33995.77
541.071	34012.15
541.271	34094.07
541.472	33987.58
541.672	33948.67
541.873	33713.15
542.073	33664
542.274	34122.74
542.474	33811.45
542.675	34053.11
542.875	33965.05
543.075	33723.39
543.276	33629.18
543.476	34143.22
543.676	33965.05
543.877	34137.08
544.077	33704.96
544.277	33696.77
544.478	33919.99
544.678	33999.87
544.878	34022.39
545.078	33680.38
545.279	33727.49
545.479	33684.48
545.679	33801.21
545.879	34030.58
546.079	33506.3
546.28	33616.9
546.48	33141.77
546.68	33926.14
546.88	33756.16
547.08	33772.54
547.28	33567.74
547.48	33508.35
547.68	33711.1
547.88	33293.32
548.081	33698.81
548.281	33661.95
548.481	33541.12
548.681	33956.86
548.881	33612.8
549.081	33465.35
549.28	33508.35
549.48	33625.09
549.68	33467.39
549.88	34042.87
550.08	33817.6
550.28	33844.22
550.48	33735.68
550.68	33911.8
550.88	33403.91
551.08	33678.33
551.279	33690.62
551.479	33278.98
551.679	33696.77
551.879	33412.1
552.079	33432.58
552.278	33215.49
552.478	33385.47
552.678	33451.01
552.878	33602.56
553.077	33475.59
553.277	32975.88
553.477	34034.68
553.676	33162.25
553.876	33436.67
554.076	33309.7
554.275	33235.97
554.475	33027.08
554.674	33291.27
554.874	33350.66
555.074	33199.11
555.273	33420.29
555.473	33379.33
555.672	33078.28
555.872	33152.01
556.071	33238.02
556.271	33395.71
556.47	33231.88
556.67	32805.9
556.869	33037.32
557.068	33192.97
557.268	32576.53
557.467	32785.42
557.667	33047.56
557.866	33141.77
558.065	32977.93
558.265	32865.29
558.464	32910.35
558.663	33344.52
558.863	32723.98
559.062	33160.2
559.261	32390.16
559.461	32875.53
559.66	32470.03
559.859	32939.02
560.058	32517.14
560.258	32640.01
560.457	32271.38
560.656	32572.43
560.855	32398.35
561.054	32388.11
561.253	32152.6
561.453	32269.33
561.652	32398.35
561.851	32336.91
562.05	32087.06
562.249	32095.25
562.448	32670.73
562.647	32414.74
562.846	32175.13
563.045	31917.08
563.244	31718.43
563.443	32078.87
563.642	31704.09
563.841	32355.35
564.04	31867.93
564.239	32156.69
564.438	31753.24
564.637	31700
564.836	31548.45
565.035	31595.55
565.234	31835.16
565.432	31568.93
565.631	31376.42
565.83	31525.92
566.029	31503.39
566.228	31147.04
566.427	31323.17
566.625	31054.89
566.824	30452.78
567.023	30987.3
567.222	30686.25
567.42	31198.24
567.619	31009.83
567.818	30927.91
568.016	30817.32
568.215	31136.8
568.414	30688.3
568.612	31216.68
568.811	30485.55
569.01	30766.12
569.208	30436.4
569.407	30719.02
569.605	30225.46
569.804	30649.39
570.002	30374.96
570.201	30497.84
570.4	30049.33
570.598	30131.25
570.797	30286.9
570.995	29926.46
571.193	29918.26
571.392	30366.77
571.59	30037.05
571.789	30014.52
571.987	29932.6
572.186	29781.05
572.384	29746.23
572.582	30012.47
572.781	29918.26
572.979	29211.71
573.177	29594.68
573.376	29828.15
573.574	29312.06
573.772	29008.97
573.971	29035.59
574.169	29191.23
574.367	29051.97
574.565	29180.99
574.763	29021.25
574.962	28953.67
575.16	28740.68
575.358	29074.5
575.556	28793.93
575.754	29023.3
575.952	28810.31
576.151	28802.12
576.349	28562.51
576.547	28554.32
576.745	28429.39
576.943	28488.78
577.141	28384.33
577.339	28529.74
577.537	28019.8
577.735	27946.07
577.933	28267.6
578.131	28425.29
578.329	27970.65
578.527	27892.82
578.725	27587.68
578.923	27958.36
579.121	28005.46
579.319	27808.86
579.516	27886.68
579.714	27677.79
579.912	27810.9
580.11	27702.36
580.308	27554.91
580.506	27391.07
580.704	27192.42
580.901	27685.98
581.099	27155.55
581.297	27133.03
581.495	26995.81
581.692	27112.55
581.89	26885.22
582.088	27063.4
582.285	26778.73
582.483	26897.51
582.681	26879.08
582.878	26498.16
583.076	26809.45
583.274	26864.74
583.471	26244.21
583.669	26365.04
583.866	26418.28
584.064	26500.2
584.262	26131.57
584.459	26403.95
584.657	26199.15
584.854	26305.65
585.052	25435.26
585.249	25775.22
585.447	25871.48
585.644	25652.34
585.841	26016.88
586.039	26055.79
586.236	25511.03
586.434	25386.11
586.631	25226.37
586.828	25715.83
587.026	25658.49
587.223	25486.46
587.42	25175.17
587.618	25537.66
587.815	24915.08
588.012	25171.07
588.21	24943.75
588.407	25162.88
588.604	24976.51
588.801	24702.09
588.999	24620.17
589.196	24482.95
589.393	24741
589.59	24482.95
589.787	24534.15
589.984	24577.16
590.182	24312.97
590.379	24245.39
590.576	24042.64
590.773	24183.95
590.97	24306.83
591.167	23964.82
591.364	23729.3
591.561	24097.94
591.758	23717.01
591.955	23755.93
592.152	23958.67
592.349	23868.56
592.546	23725.21
592.743	23841.94
592.94	23352.48
593.137	23669.91
593.334	23430.3
593.531	23278.75
593.727	23372.96
593.924	23375
594.121	23174.3
594.318	23393.44
594.515	23137.44
594.712	23143.58
594.908	22899.87
595.105	22944.93
595.302	22633.64
595.499	22803.62
595.696	22502.57
595.892	22492.33
596.089	22645.93
596.286	22686.89
596.482	22475.95
596.679	22545.58
596.876	22455.47
597.072	22344.88
597.269	22275.24
597.466	22174.89
597.662	22095.02
597.859	21970.1
598.055	22099.12
598.252	21658.81
598.448	21757.11
598.645	21845.17
598.841	21834.93
599.038	21753.01
599.234	21562.55
599.431	21093.57
599.627	21361.85
599.824	21411
600.02	21359.8
600.217	21165.25
600.413	21234.88
600.609	21179.58
600.806	21206.2
601.002	21089.47
601.198	21167.29
601.395	20530.37
601.591	20839.62
601.787	20733.12
601.984	20765.89
602.18	20833.47
602.376	20677.83
602.572	20665.54
602.769	20845.76
602.965	20257.99
603.161	20622.53
603.357	20569.29
603.553	20239.56
603.75	20307.15
603.946	19739.86
604.142	20415.69
604.338	20165.84
604.534	20149.45
604.73	19801.3
604.926	19651.8
605.122	19848.4
605.318	19889.36
605.514	19836.11
605.71	19838.16
605.906	19950.8
606.102	19475.67
606.298	19655.89
606.494	19424.47
606.69	19520.73
606.886	19227.87
607.082	19301.59
607.278	19584.21
607.474	19084.51
607.67	19119.32
607.866	18955.49
608.062	19555.54
608.257	19174.62
608.453	19158.24
608.649	19217.63
608.845	19121.37
609.041	19244.25
609.236	19088.6
609.432	18828.51
609.628	18828.51
609.824	18785.51
610.019	18830.56
610.215	18566.37
610.411	18773.22
610.606	18646.24
610.802	18578.66
610.998	18816.22
611.193	18736.35
611.389	18668.77
611.584	18685.15
611.78	18515.17
611.976	18414.82
612.171	18457.83
612.367	18357.48
612.562	18597.09
612.758	18048.24
612.953	17917.17
613.149	18470.12
613.344	18175.21
613.539	18447.59
613.735	18117.87
613.93	18181.35
614.126	18136.3
614.321	18357.48
614.517	18038
614.712	18068.72
614.907	17880.3
615.103	18191.59
615.298	18031.85
615.493	18365.67
615.688	17802.48
615.884	18224.36
616.079	17841.39
616.274	17784.05
616.47	17716.47
616.665	18076.91
616.86	17818.86
617.055	17730.8
617.25	17487.09
617.445	17726.71
617.641	17278.2
617.836	17698.03
618.031	17288.44
618.226	17470.71
618.421	17360.12
618.616	17757.43
618.811	17214.71
619.006	17583.35
619.201	16899.33
619.396	17366.26
619.591	17030.4
619.786	17159.42
619.981	16698.63
620.176	16866.56
620.371	16717.06
620.566	16948.48
620.761	16590.08
620.956	16772.35
621.151	16567.56
621.346	16409.86
621.541	16307.46
621.735	16391.43
621.93	16291.08
622.125	16231.69
622.32	15766.8
622.515	16094.47
622.709	16020.75
622.904	15820.05
623.099	15854.86
623.294	15699.22
623.488	15643.92
623.683	15432.98
623.878	15422.74
624.072	15475.99
624.267	15291.67
624.462	15308.05
624.656	15043.87
624.851	15099.16
625.046	15056.15
625.24	14996.76
625.435	14701.86
625.629	15072.54
625.824	14689.57
626.018	14531.87
626.213	14415.14
626.407	14409
626.602	14507.3
626.796	14394.66
626.991	14384.42
627.185	14443.81
627.38	14239.01
627.574	14146.86
627.768	14028.07
627.963	13776.17
628.157	13827.37
628.352	13911.34
628.546	13368.63
628.74	13915.44
628.935	13448.5
629.129	13522.23
629.323	13337.91
629.517	13409.59
629.712	13299
629.906	13319.48
630.1	12944.7
630.294	12940.6
630.489	12922.17
630.683	13239.61
630.877	12989.75
631.071	12754.24
631.265	12662.08
631.459	12655.93
631.653	12526.91
631.848	12662.08
632.042	12395.84
632.236	12574.02
632.43	12488
632.624	12313.92
632.818	12326.21
633.012	11939.15
633.206	12039.5
633.4	12074.31
633.594	11875.66
633.788	11951.43
633.982	11900.23
634.176	11871.56
634.369	11748.68
634.563	11519.31
634.757	11783.5
634.951	11582.8
635.145	11687.25
635.339	11480.4
635.533	11345.23
635.726	11443.54
635.92	11269.46
636.114	11255.12
636.308	11230.55
636.501	11064.66
636.695	11068.76
636.889	10808.67
637.083	10853.72
637.276	10607.97
637.47	10560.86
637.664	10982.74
637.857	10788.19
638.051	10829.15
638.244	10538.34
638.438	10401.12
638.632	10370.4
638.825	10452.32
639.019	10376.55
639.212	10384.74
639.406	10372.45
639.599	10358.11
639.793	10345.83
639.986	10032.49
640.18	10163.56
640.373	10132.84
640.567	9739.63
640.76	9930.09
640.954	9850.22
641.147	9919.85
641.34	9657.71
641.534	9934.18
641.727	9616.75
641.92	9686.38
642.114	9835.88
642.307	9563.5
642.5	9565.55
642.694	9252.21
642.887	9338.23
643.08	9506.16
643.273	9420.14
643.467	9215.35
643.66	9221.49
643.853	9033.08
644.046	9057.65
644.239	9115
644.432	9176.44
644.626	8922.49
644.819	8957.3
645.012	8906.1
645.205	8779.13
645.398	8801.66
645.591	8496.51
645.784	8529.28
645.977	8775.03
646.17	8615.29
646.363	8650.11
646.556	8500.61
646.749	8621.44
646.942	8516.99
647.135	8281.47
647.328	8394.11
647.521	8338.82
647.714	8197.51
647.907	8252.8
648.099	8156.55
648.292	8076.68
648.485	8039.81
648.678	8011.14
648.871	8115.59
649.064	7978.37
649.256	7974.28
649.449	7888.26
649.642	8027.53
649.835	7847.3
650.027	7894.41
650.22	7765.39
650.413	7744.91
650.605	7769.48
650.798	7589.26
650.991	7597.45
651.183	7656.84
651.376	7556.49
651.568	7593.36
651.761	7470.48
651.954	7406.99
652.146	7398.8
652.339	7372.18
652.531	7288.21
652.724	7304.59
652.916	7189.91
653.109	7196.05
653.301	7019.92
653.494	7183.76
653.686	6854.04
653.879	7058.84
654.071	7083.41
654.263	7038.36
654.456	7122.32
654.648	6888.85
654.84	6845.85
655.033	6788.5
655.225	6856.09
655.417	6706.59
655.61	6665.63
655.802	6606.24
655.994	6843.8
656.186	6596
656.379	6575.52
656.571	6735.26
656.763	6557.08
656.955	6579.61
657.148	6497.69
657.34	6483.36
657.532	6479.26
657.724	6245.79
657.916	6368.67
658.108	6333.86
658.3	6215.07
658.492	6143.39
658.684	6270.37
658.876	6153.63
659.068	6272.42
659.26	6108.58
659.452	6020.52
659.644	6024.61
659.836	5971.36
660.028	6016.42
660.22	5858.73
660.412	5893.54
660.604	5885.35
660.796	5918.12
660.988	5727.66
661.18	5719.46
661.372	5793.19
661.563	5750.18
661.755	5557.68
661.947	5615.02
662.139	5686.7
662.331	5647.79
662.522	5578.15
662.714	5612.97
662.906	5586.35
663.097	5397.93
663.289	5486
663.481	5488.04
663.673	5600.68
663.864	5457.32
664.056	5436.85
664.247	5344.69
664.439	5217.71
664.631	5297.58
664.822	5127.6
665.014	5270.96
665.205	5326.25
665.397	5154.23
665.588	5125.55
665.78	5074.35
665.971	5078.45
666.163	5356.97
666.354	5035.44
666.546	5017.01
666.737	5029.3
666.929	5072.31
667.12	5170.61
667.311	5051.83
667.503	5146.03
667.694	5086.64
667.885	4908.47
668.077	4900.28
668.268	4777.4
668.459	4763.06
668.651	4976.05
668.842	4801.97
669.033	4687.29
669.224	4711.86
669.416	4871.61
669.607	4806.07
669.798	4634.04
669.989	4668.86
670.18	4666.81
670.371	4707.77
670.563	4769.21
670.754	4767.16
670.945	4664.76
671.136	4384.19
671.327	4623.8
671.518	4414.91
671.709	4699.58
671.9	4576.7
672.091	4584.89
672.282	4644.28
672.473	4439.48
672.664	4459.96
672.855	4324.8
673.046	4470.2
673.237	4322.75
673.428	4416.96
673.619	4337.09
673.809	4357.57
674	4163.01
674.191	4267.45
674.382	4173.25
674.573	4197.82
674.764	4277.69
674.954	4351.42
675.145	4099.52
675.336	4287.93
675.527	4144.58
675.717	4203.97
675.908	4212.16
676.099	4122.05
676.289	4105.67
676.48	3882.44
676.671	4132.29
676.861	4031.94
677.052	4003.27
677.243	4093.38
677.433	4058.56
677.624	4062.66
677.814	4062.66
678.005	4040.13
678.195	3982.79
678.386	3911.11
678.576	3937.73
678.767	3888.58
678.957	4005.31
679.148	4081.09
679.338	3954.12
679.529	3978.69
679.719	3831.24
679.909	4003.27
680.1	3847.62
680.29	3833.29
680.481	3782.09
680.671	3915.2
680.861	3947.97
681.052	3839.43
681.242	3849.67
681.432	3855.81
681.622	3823.05
681.813	3749.32
682.003	3773.89
682.193	3710.41
682.383	3886.53
682.573	3755.46
682.764	3720.65
682.954	3657.16
683.144	3775.94
683.334	3661.26
683.524	3720.65
683.714	3710.41
683.904	3743.17
684.094	3593.67
684.284	3628.49
684.474	3667.4
684.664	3605.96
684.854	3556.81
685.044	3597.77
685.234	3599.82
685.424	3526.09
685.614	3521.99
685.804	3622.34
685.994	3517.9
686.184	3501.51
686.374	3483.08
686.564	3534.28
686.753	3495.37
686.943	3550.67
687.133	3612.1
687.323	3544.52
687.513	3440.08
687.702	3386.83
687.892	3319.25
688.082	3405.26
688.272	3356.11
688.461	3222.99
688.651	3354.06
688.841	3266
689.03	3390.92
689.22	3270.09
689.41	3382.73
689.599	3313.1
689.789	3222.99
689.979	3272.14
690.168	3251.66
690.358	3079.63
690.547	3120.59
690.737	3235.28
690.926	3065.3
691.116	3163.6
691.305	3071.44
691.495	3102.16
691.684	2973.14
691.874	3118.54
692.063	3055.06
692.252	3005.91
692.442	2983.38
692.631	2917.84
692.82	3010
693.01	2991.57
693.199	2917.84
693.388	2874.84
693.578	2842.07
693.767	2903.51
693.956	2858.45
694.146	2827.73
694.335	2840.02
694.524	2819.54
694.713	2819.54
694.902	2815.45
695.092	2868.69
695.281	2829.78
695.47	2713.05
695.659	2780.63
695.848	2780.63
696.037	2776.53
696.226	2811.35
696.415	2809.3
696.604	2688.47
696.793	2676.18
696.982	2725.33
697.171	2737.62
697.36	2704.85
697.549	2649.56
697.738	2610.65
697.927	2637.27
698.116	2614.74
698.305	2692.57
698.494	2598.36
698.683	2495.96
698.872	2690.52
699.061	2598.36
699.25	2647.51
699.438	2516.44
699.627	2624.98
699.816	2690.52
700.005	2622.94
700.193	2651.61
700.382	2534.87
700.571	2559.45
700.76	2547.16
700.948	2581.98
701.137	2588.12
701.326	2463.19
701.514	2506.2
701.703	2463.19
701.892	2434.52
702.08	2465.24
702.269	2541.02
702.457	2430.43
702.646	2422.24
702.834	2551.26
703.023	2414.04
703.212	2414.04
703.4	2446.81
703.589	2508.25
703.777	2397.66
703.965	2373.08
704.154	2348.51
704.342	2420.19
704.531	2508.25
704.719	2332.12
704.907	2463.19
705.096	2377.18
705.284	2354.65
705.472	2436.57
705.661	2407.9
705.849	2426.33
706.037	2379.23
706.226	2387.42
706.414	2346.46
706.602	2360.8
706.79	2393.56
706.979	2315.74
707.167	2393.56
707.355	2299.36
707.543	2340.32
707.731	2412
707.919	2289.12
708.107	2389.47
708.296	2375.13
708.484	2440.67
708.672	2371.04
708.86	2475.48
709.048	2338.27
709.236	2469.34
709.424	2354.65
709.612	2434.52
709.8	2358.75
709.988	2442.71
710.176	2446.81
710.364	2346.46
710.551	2330.08
710.739	2389.47
710.927	2321.88
711.115	2309.6
711.303	2342.36
711.491	2184.67
711.679	2344.41
711.866	2442.71
712.054	2422.24
712.242	2289.12
712.43	2342.36
712.617	2256.35
712.805	2330.08
712.993	2266.59
713.181	2428.38
713.368	2407.9
713.556	2287.07
713.744	2323.93
713.931	2285.02
714.119	2360.8
714.306	2313.69
714.494	2244.06
714.682	2405.85
714.869	2311.64
715.057	2334.17
715.244	2258.4
715.432	2350.56
715.619	2407.9
715.807	2344.41
715.994	2364.89
716.182	2371.04
716.369	2274.78
716.556	2270.69
716.744	2371.04
716.931	2446.81
717.119	2317.79
717.306	2360.8
717.493	2352.6
717.681	2307.55
717.868	2342.36
718.055	2297.31
718.242	2199.01
718.43	2389.47
718.617	2342.36
718.804	2399.71
718.991	2219.49
719.179	2401.76
719.366	2276.83
719.553	2305.5
719.74	2291.17
719.927	2328.03
720.114	2338.27
720.301	2213.34
720.488	2289.12
720.676	2264.54
720.863	2301.4
721.05	2272.73
721.237	2334.17
721.424	2276.83
721.611	2303.45
721.798	2305.5
721.985	2323.93
722.172	2287.07
722.358	2344.41
722.545	2268.64
722.732	2295.26
722.919	2354.65
723.106	2239.97
723.293	2254.3
723.48	2315.74
723.667	2164.19
723.853	2315.74
724.04	2389.47
724.227	2368.99
724.414	2190.81
724.6	2385.37
724.787	2272.73
724.974	2319.84
725.161	2387.42
725.347	2276.83
725.534	2242.01
725.72	2211.29
725.907	2266.59
726.094	2342.36
726.28	2315.74
726.467	2231.77
726.653	2248.16
726.84	2362.84
727.027	2405.85
727.213	2188.77
727.4	2276.83
727.586	2383.32
727.773	2266.59
727.959	2350.56
728.145	2268.64
728.332	2274.78
728.518	2428.38
728.705	2344.41
728.891	2325.98
729.077	2221.53
729.264	2199.01
729.45	2250.21
729.636	2371.04
729.823	2362.84
730.009	2311.64
730.195	2268.64
730.382	2274.78
730.568	2360.8
730.754	2354.65
730.94	2311.64
731.126	2311.64
731.313	2389.47
731.499	2221.53
731.685	2282.97
731.871	2334.17
732.057	2264.54
732.243	2340.32
732.429	2199.01
732.615	2229.73
732.801	2352.6
732.987	2194.91
733.173	2264.54
733.359	2412
733.545	2346.46
733.731	2311.64
733.917	2207.2
734.103	2371.04
734.289	2280.93
734.475	2323.93
734.661	2313.69
734.847	2196.96
735.033	2301.4
735.219	2260.45
735.404	2270.69
735.59	2233.82
735.776	2268.64
735.962	2330.08
736.148	2242.01
736.333	2192.86
736.519	2262.49
736.705	2274.78
736.89	2190.81
737.076	2254.3
737.262	2285.02
737.447	2172.38
737.633	2237.92
737.819	2186.72
738.004	2248.16
738.19	2350.56
738.375	2242.01
738.561	2274.78
738.747	2258.4
738.932	2276.83
739.118	2258.4
739.303	2207.2
739.489	2244.06
739.674	2254.3
739.859	2217.44
740.045	2246.11
740.23	2151.9
740.416	2072.03
740.601	2233.82
740.786	2182.62
740.972	2225.63
741.157	2139.62
741.342	2164.19
741.528	2131.42
741.713	2164.19
741.898	2119.14
742.084	2141.66
742.269	2069.98
742.454	2143.71
742.639	2123.23
742.824	2061.79
743.01	2260.45
743.195	2102.75
743.38	2065.89
743.565	2061.79
743.75	2106.85
743.935	2153.95
744.12	2024.93
744.305	2100.7
744.49	1983.97
744.675	1900
744.86	2069.98
745.045	2024.93
745.23	1975.78
745.415	1900
745.6	2014.69
745.785	1983.97
745.97	1994.21
746.155	1914.34
746.34	1863.14
746.525	1906.15
746.71	1891.81
746.895	1781.22
747.079	1883.62
747.264	1908.19
747.449	1887.72
747.634	1932.77
747.819	1848.8
748.003	1820.13
748.188	1816.04
748.373	1826.28
748.557	1816.04
748.742	1805.8
748.927	1824.23
749.111	1705.45
749.296	1730.02
749.481	1766.89
749.665	1621.48
749.85	1721.83
750.034	1713.64
750.219	1691.11
750.404	1660.39
750.588	1676.77
750.773	1605.1
750.957	1705.45
751.141	1695.21
751.326	1605.1
751.51	1594.86
751.695	1555.94
751.879	1576.42
752.064	1586.66
752.248	1580.52
752.432	1525.22
752.617	1641.96
752.801	1545.7
752.985	1471.98
753.17	1570.28
753.354	1539.56
753.538	1504.75
753.722	1431.02
753.907	1510.89
754.091	1426.92
754.275	1539.56
754.459	1465.83
754.643	1441.26
754.828	1508.84
755.012	1412.59
755.196	1357.29
755.38	1439.21
755.564	1414.63
755.748	1469.93
755.932	1463.79
756.116	1357.29
756.3	1402.35
756.484	1302
756.668	1267.18
756.852	1351.15
757.036	1455.59
757.22	1328.62
757.404	1287.66
757.588	1314.28
757.772	1261.04
757.956	1236.46
758.14	1295.85
758.323	1295.85
758.507	1252.84
758.691	1181.17
758.875	1154.54
759.059	1263.08
759.242	1215.98
759.426	1246.7
759.61	1140.21
759.794	1170.93
759.977	1183.21
760.161	1248.75
760.345	1248.75
760.528	1252.84
760.712	1209.84
760.895	1181.17
761.079	1179.12
761.263	1187.31
761.446	1062.38
761.63	1078.77
761.813	1154.54
761.997	1095.15
762.18	1127.92
762.364	1172.97
762.547	1029.62
762.731	1099.25
762.914	1074.67
763.098	1129.97
763.281	974.32
763.464	1031.66
763.648	1043.95
763.831	1037.81
764.015	1029.62
764.198	1048.05
764.381	976.37
764.564	1064.43
764.748	994.8
764.931	1082.86
765.114	1013.23
765.297	998.9
765.481	867.83
765.664	964.08
765.847	945.65
766.03	1021.42
766.213	1031.66
766.397	935.41
766.58	984.56
766.763	906.74
766.946	959.99
767.129	964.08
767.312	912.88
767.495	962.03
767.678	876.02
767.861	982.51
768.044	945.65
768.227	890.35
768.41	933.36
768.593	947.7
768.776	998.9
768.959	933.36
769.142	894.45
769.324	929.27
769.507	833.01
769.69	1046
769.873	945.65
770.056	937.46
770.239	892.4
770.421	919.03
770.604	841.2
770.787	923.12
770.97	839.16
771.152	830.96
771.335	853.49
771.518	792.05
771.7	808.44
771.883	876.02
772.066	871.92
772.248	945.65
772.431	833.01
772.613	828.92
772.796	773.62
772.978	884.21
773.161	783.86
773.343	759.28
773.526	749.04
773.708	787.96
773.891	783.86
774.073	755.19
774.256	742.9
774.438	830.96
774.621	675.32
774.803	753.14
774.985	767.48
775.168	763.38
775.35	693.75
775.532	787.96
775.715	714.23
775.897	734.71
776.079	671.22
776.261	665.08
776.444	663.03
776.626	726.52
776.808	730.61
776.99	669.17
777.173	740.85
777.355	693.75
777.537	716.28
777.719	660.98
777.901	560.63
778.083	632.31
778.265	652.79
778.447	665.08
778.629	605.69
778.811	706.04
778.993	564.73
779.175	642.55
779.357	609.78
779.539	529.91
779.721	613.88
779.903	626.17
780.085	548.34
780.267	652.79
780.449	538.1
780.631	652.79
780.812	669.17
780.994	634.36
781.176	591.35
781.358	615.93
781.54	513.53
781.721	613.88
781.903	495.1
782.085	540.15
782.267	488.95
782.448	491
782.63	579.06
782.812	476.66
782.993	574.97
783.175	509.43
783.357	534.01
783.538	458.23
783.72	400.89
783.901	505.34
784.083	460.28
784.264	456.19
784.446	443.9
784.627	413.18
784.809	441.85
784.99	497.14
785.172	482.81
785.353	505.34
785.535	431.61
785.716	390.65
785.897	527.86
786.079	419.32
786.26	505.34
786.441	513.53
786.623	382.46
786.804	404.99
786.985	450.04
787.167	423.42
787.348	425.47
787.529	355.83
787.71	468.47
787.891	392.7
788.073	435.71
788.254	388.6
788.435	345.59
788.616	419.32
788.797	351.74
788.978	370.17
789.159	359.93
789.34	394.75
789.522	335.35
789.703	366.07
789.884	312.83
790.065	394.75
790.246	417.27
790.427	335.35
790.607	343.55
790.788	380.41
790.969	372.22
791.15	282.11
791.331	331.26
791.512	345.59
791.693	273.92
791.874	390.65
792.054	366.07
792.235	400.89
792.416	339.45
792.597	347.64
792.778	288.25
792.958	388.6
793.139	392.7
793.32	394.75
793.5	292.35
793.681	366.07
793.862	263.68
794.042	282.11
794.223	306.68
794.404	321.02
794.584	284.16
794.765	271.87
794.945	239.1
795.126	316.92
795.306	292.35
795.487	230.91
795.667	265.72
795.848	255.48
796.028	374.27
796.209	298.49
796.389	247.29
796.57	247.29
796.75	308.73
796.93	273.92
797.111	316.92
797.291	261.63
797.471	273.92
797.652	318.97
797.832	183.81
798.012	284.16
798.192	318.97
798.373	192
798.553	249.34
798.733	245.24
798.913	269.82
799.093	220.67
799.274	214.52
799.454	216.57
799.634	222.72
799.814	263.68
799.994	214.52
800.174	249.34
800.354	198.14
800.534	196.09
800.714	214.52
800.894	222.72
801.074	175.61
801.254	196.09
801.434	224.76
801.614	237.05
801.794	204.28
801.974	640.5
802.154	241.15
802.334	273.92
802.514	194.05
802.693	196.09
802.873	230.91
803.053	261.63
803.233	151.04
803.413	216.57
803.592	220.67
803.772	194.05
803.952	189.95
804.131	163.33
804.311	278.01
804.491	177.66
804.67	159.23
804.85	177.66
805.03	275.96
805.209	228.86
805.389	155.13
805.568	208.38
805.748	187.9
805.928	177.66
806.107	198.14
806.287	130.56
806.466	187.9
806.646	148.99
806.825	153.09
807.004	194.05
807.184	171.52
807.363	200.19
807.543	159.23
807.722	177.66
807.901	232.96
808.081	181.76
808.26	118.27
808.439	200.19
808.619	171.52
808.798	161.28
808.977	202.24
809.156	161.28
809.336	148.99
809.515	179.71
809.694	91.65
809.873	128.51
810.052	163.33
810.231	179.71
810.411	134.65
810.59	171.52
810.769	192
810.948	114.17
811.127	114.17
811.306	87.55
811.485	138.75
811.664	196.09
811.843	103.93
812.022	105.98
812.201	134.65
812.38	173.57
812.559	128.51
812.737	208.38
812.916	144.89
813.095	183.81
813.274	136.7
813.453	167.42
813.632	167.42
813.811	144.89
813.989	108.03
814.168	183.81
814.347	50.69
814.526	108.03
814.704	179.71
814.883	155.13
815.062	153.09
815.24	165.37
815.419	171.52
815.598	148.99
815.776	83.45
815.955	91.65
816.133	153.09
816.312	144.89
816.49	38.4
816.669	124.41
816.847	79.36
817.026	155.13
817.204	144.89
817.383	163.33
817.561	69.12
817.74	112.13
817.918	146.94
818.097	175.61
818.275	116.22
818.453	138.75
818.632	153.09
818.81	151.04
818.988	118.27
819.167	151.04
819.345	185.85
819.523	52.74
819.701	138.75
819.879	136.7
820.058	60.93
820.236	130.56
820.414	118.27
820.592	218.62
820.77	85.5
820.948	157.18
821.127	108.03
821.305	130.56
821.483	93.69
821.661	120.32
821.839	124.41
822.017	60.93
822.195	140.8
822.373	124.41
822.551	144.89
822.729	159.23
822.907	87.55
823.085	103.93
823.262	42.5
823.44	71.17
823.618	71.17
823.796	142.85
823.974	71.17
824.152	50.69
824.329	108.03
824.507	120.32
824.685	103.93
824.863	46.59
825.04	52.74
825.218	77.31
825.396	56.83
825.574	144.89
825.751	93.69
825.929	75.26
826.107	65.02
826.284	97.79
826.462	105.98
826.639	77.31
826.817	89.6
826.994	97.79
827.172	122.37
827.349	89.6
827.527	101.89
827.704	126.46
827.882	65.02
828.059	128.51
828.237	148.99
828.414	114.17
828.591	48.64
828.769	99.84
828.946	157.18
829.124	99.84
829.301	28.16
829.478	58.88
829.655	118.27
829.833	71.17
830.01	124.41
830.187	151.04
830.364	34.3
830.542	212.48
830.719	120.32
830.896	67.07
831.073	-20.99
831.25	3.58
831.427	73.21
831.604	71.17
831.782	19.97
831.959	173.57
832.136	42.5
832.313	132.61
832.49	-20.99
832.667	101.89
832.844	67.07
833.021	-0.51
833.198	89.6
833.374	103.93
833.551	89.6
833.728	130.56
833.905	85.5
834.082	22.02
834.259	97.79
834.436	89.6
834.612	144.89
834.789	73.21
834.966	38.4
835.143	134.65
835.319	105.98
835.496	105.98
835.673	89.6
835.85	60.93
836.026	77.31
836.203	124.41
836.38	77.31
836.556	34.3
836.733	50.69
836.909	140.8
837.086	-27.14
837.262	146.94
837.439	-14.85
837.616	114.17
837.792	-0.51
837.968	40.45
838.145	101.89
838.321	97.79
838.498	153.09
838.674	34.3
838.851	34.3
839.027	26.11
839.203	122.37
839.38	13.82
839.556	60.93
839.732	110.08
839.909	-0.51
840.085	101.89
840.261	-18.94
840.437	-4.61
840.614	58.88
840.79	3.58
840.966	50.69
841.142	103.93
841.318	62.98
841.494	40.45
841.671	71.17
841.847	-2.56
842.023	46.59
842.199	81.41
842.375	-8.7
842.551	5.63
842.727	60.93
842.903	85.5
843.079	-12.8
843.255	-4.61
843.431	116.22
843.607	38.4
843.783	9.73
843.959	-4.61
844.134	17.92
844.31	19.97
844.486	89.6
844.662	62.98
844.838	-10.75
845.013	110.08
845.189	56.83
845.365	105.98
845.541	26.11
845.716	116.22
845.892	75.26
846.068	34.3
846.244	46.59
846.419	-2.56
846.595	3.58
846.77	36.35
846.946	32.26
847.122	101.89
847.297	79.36
847.473	9.73
847.648	28.16
847.824	3.58
847.999	-6.66
848.175	65.02
848.35	24.06
848.526	11.78
848.701	-18.94
848.876	81.41
849.052	69.12
849.227	9.73
849.403	-41.47
849.578	75.26
849.753	28.16
849.929	-16.9
850.104	19.97
850.279	65.02
850.454	-6.66
850.63	19.97
850.805	7.68
850.98	54.78
851.155	69.12
851.33	79.36
851.505	13.82
851.681	81.41
851.856	-10.75
852.031	-18.94
852.206	77.31
852.381	-2.56
852.556	-8.7
852.731	58.88
852.906	58.88
853.081	71.17
853.256	54.78
853.431	48.64
853.606	22.02
853.781	40.45
853.956	-49.66
854.131	-57.86
854.305	52.74
854.48	58.88
854.655	26.11
854.83	99.84
855.005	-20.99
855.18	-12.8
855.354	89.6
855.529	77.31
855.704	-35.33
855.879	30.21
856.053	15.87
856.228	116.22
856.403	-18.94
856.577	54.78
856.752	44.54
856.926	87.55
857.101	42.5
857.276	40.45
857.45	15.87
857.625	32.26
857.799	-49.66
857.974	34.3
858.148	-35.33
858.323	79.36
858.497	17.92
858.672	65.02
858.846	-0.51
859.02	-0.51
859.195	-14.85
859.369	-29.18
859.543	40.45
859.718	36.35
859.892	-14.85
860.066	-4.61
860.241	-12.8
860.415	-8.7
860.589	40.45
860.763	15.87
860.938	-25.09
861.112	26.11
861.286	-61.95
861.46	-18.94
861.634	13.82
861.808	38.4
861.982	15.87
862.157	1.54
862.331	22.02
862.505	-8.7
862.679	5.63
862.853	46.59
863.027	-35.33
863.201	105.98
863.375	-18.94
863.549	58.88
863.722	22.02
863.896	73.21
864.07	-12.8
864.244	34.3
864.418	15.87
864.592	13.82
864.766	13.82
864.939	36.35
865.113	-12.8
865.287	38.4
865.461	-18.94
865.634	24.06
865.808	22.02
865.982	-10.75
866.156	24.06
866.329	83.45
866.503	13.82
866.676	24.06
866.85	42.5
867.024	62.98
867.197	-14.85
867.371	-2.56
867.544	5.63
867.718	-8.7
867.891	13.82
868.065	-2.56
868.238	15.87
868.412	60.93
868.585	48.64
868.759	67.07
868.932	-27.14
869.105	-47.62
869.279	-16.9
869.452	15.87
869.625	89.6
869.799	44.54
869.972	5.63
870.145	-14.85
870.319	103.93
870.492	5.63
870.665	48.64
870.838	-0.51
871.011	17.92
871.185	46.59
871.358	-12.8
871.531	30.21
871.704	67.07
871.877	-12.8
872.05	58.88
872.223	17.92
872.396	85.5
872.569	15.87
872.742	-64
872.915	32.26
873.088	7.68
873.261	54.78
873.434	-16.9
873.607	-39.42
873.78	-33.28
873.953	11.78
874.126	48.64
874.299	-27.14
874.471	-57.86
874.644	-49.66
874.817	-10.75
874.99	69.12
875.163	-8.7
875.335	5.63
875.508	-2.56
875.681	-4.61
875.853	9.73
876.026	-8.7
876.199	40.45
876.371	-16.9
876.544	-33.28
876.717	-47.62
876.889	44.54
877.062	81.41
877.234	-23.04
877.407	-37.38
877.579	3.58
877.752	-57.86
877.924	30.21
878.097	13.82
878.269	9.73
878.442	-23.04
878.614	60.93
878.786	28.16
878.959	-16.9
879.131	5.63
879.303	7.68
879.476	-18.94
879.648	42.5
879.82	56.83
879.993	40.45
880.165	-10.75
880.337	-72.19
880.509	26.11
880.681	-94.72
880.854	-0.51
881.026	-18.94
881.198	124.41
881.37	-29.18
881.542	24.06
881.714	-8.7
881.886	-20.99
882.058	30.21
882.23	38.4
882.402	5.63
882.574	5.63
882.746	65.02
882.918	3.58
883.09	-20.99
883.262	-74.24
883.434	-29.18
883.606	32.26
883.778	36.35
883.95	40.45
884.122	-10.75
884.293	-2.56
884.465	-2.56
884.637	-0.51
884.809	56.83
884.98	-16.9
885.152	-8.7
885.324	5.63
885.496	-64
885.667	-27.14
885.839	-35.33
886.011	13.82
886.182	-29.18
886.354	71.17
886.525	-35.33
886.697	-53.76
886.869	36.35
887.04	-25.09
887.212	1.54
887.383	108.03
887.555	7.68
887.726	13.82
887.897	-8.7
888.069	17.92
888.24	7.68
888.412	-18.94
888.583	-14.85
888.754	-16.9
888.926	52.74
889.097	-66.05
889.268	42.5
889.44	3.58
889.611	-25.09
889.782	-37.38
889.953	-66.05
890.125	81.41
890.296	-8.7
890.467	-6.66
890.638	-0.51
890.809	-12.8
890.98	60.93
891.151	-29.18
891.323	13.82
891.494	32.26
891.665	-6.66
891.836	36.35
892.007	17.92
892.178	-82.43
892.349	48.64
892.52	-18.94
892.691	7.68
892.862	-18.94
893.032	-61.95
893.203	-66.05
893.374	-47.62
893.545	62.98
893.716	-70.14
893.887	13.82
894.057	-29.18
894.228	5.63
894.399	-23.04
894.57	46.59
894.74	-27.14
894.911	-45.57
895.082	-6.66
895.253	30.21
895.423	13.82
895.594	7.68
895.764	-33.28
895.935	-14.85
896.106	7.68
896.276	1.54
896.447	-10.75
896.617	-16.9
896.788	-33.28
896.958	75.26
897.129	17.92
897.299	36.35
897.47	46.59
897.64	-2.56
897.81	79.36
897.981	-51.71
898.151	-29.18
898.322	69.12
898.492	19.97
898.662	13.82
898.832	-6.66
899.003	5.63
899.173	-29.18
899.343	-43.52
899.513	3.58
