Data from USB4F104151__24__12-27-10-355.txt Node

Date: Fri Mar 14 12:27:10 EDT 2025
User: louis
Spectrometer: USB4F10415
Trigger mode: 4
Integration Time (sec): 2.000000E-2
Scans to average: 1
Electric dark correction enabled: true
Nonlinearity correction enabled: false
Boxcar width: 0
XAxis mode: Wavelengths
Number of Pixels in Spectrum: 3648
>>>>>Begin Spectral Data<<<<<
178.204	-85.16
178.424	-85.16
178.644	-85.16
178.864	-46.25
179.084	-52.39
179.304	-19.63
179.524	4.95
179.744	-33.96
179.964	52.05
180.184	54.1
180.404	-9.39
180.624	52.05
180.844	7
181.064	-76.97
181.283	-85.16
181.503	39.76
181.723	15.19
181.943	19.29
182.163	52.05
182.383	54.1
182.602	35.67
182.822	-13.48
183.042	82.77
183.262	13.14
183.482	-1.19
183.701	58.2
183.921	54.1
184.141	78.68
184.361	72.53
184.58	101.2
184.8	50
185.02	121.68
185.239	82.77
185.459	62.29
185.679	23.38
185.898	-3.24
186.118	68.44
186.338	21.33
186.557	72.53
186.777	15.19
186.997	72.53
187.216	60.24
187.436	52.05
187.655	95.06
187.875	101.2
188.095	113.49
188.314	60.24
188.534	56.15
188.753	54.1
188.973	33.62
189.192	78.68
189.412	35.67
189.631	58.2
189.851	17.24
190.07	84.82
190.29	31.57
190.509	35.67
190.729	-21.67
190.948	54.1
191.168	127.83
191.387	9.05
191.607	25.43
191.826	129.88
192.045	39.76
192.265	-1.19
192.484	93.01
192.704	82.77
192.923	17.24
193.142	105.3
193.362	68.44
193.581	86.87
193.8	13.14
194.02	47.96
194.239	58.2
194.458	119.64
194.678	105.3
194.897	27.48
195.116	86.87
195.335	80.72
195.555	41.81
195.774	54.1
195.993	35.67
196.212	-3.24
196.432	2.9
196.651	62.29
196.87	4.95
197.089	50
197.308	41.81
197.528	21.33
197.747	70.48
197.966	74.58
198.185	56.15
198.404	88.92
198.623	58.2
198.842	9.05
199.062	60.24
199.281	19.29
199.5	21.33
199.719	17.24
199.938	7
200.157	19.29
200.376	54.1
200.595	121.68
200.814	7
201.033	43.86
201.252	107.35
201.471	70.48
201.69	111.44
201.909	64.34
202.128	52.05
202.347	-68.78
202.566	-17.58
202.785	78.68
203.004	56.15
203.223	105.3
203.442	29.52
203.661	37.72
203.879	60.24
204.098	19.29
204.317	39.76
204.536	78.68
204.755	-7.34
204.974	119.64
205.193	41.81
205.411	154.45
205.63	13.14
205.849	82.77
206.068	-7.34
206.287	-9.39
206.505	11.09
206.724	29.52
206.943	-15.53
207.162	4.95
207.381	45.91
207.599	88.92
207.818	-40.11
208.037	-29.87
208.255	64.34
208.474	66.39
208.693	68.44
208.911	90.96
209.13	56.15
209.349	93.01
209.567	82.77
209.786	70.48
210.005	15.19
210.223	47.96
210.442	43.86
210.661	50
210.879	54.1
211.098	62.29
211.316	41.81
211.535	62.29
211.753	78.68
211.972	0.85
212.191	72.53
212.409	62.29
212.628	9.05
212.846	111.44
213.065	-58.54
213.283	21.33
213.502	15.19
213.72	31.57
213.938	43.86
214.157	41.81
214.375	90.96
214.594	33.62
214.812	97.11
215.031	45.91
215.249	41.81
215.467	-3.24
215.686	29.52
215.904	43.86
216.122	4.95
216.341	60.24
216.559	105.3
216.778	129.88
216.996	52.05
217.214	45.91
217.432	27.48
217.651	50
217.869	13.14
218.087	72.53
218.306	41.81
218.524	78.68
218.742	4.95
218.96	-19.63
219.179	47.96
219.397	47.96
219.615	74.58
219.833	52.05
220.051	2.9
220.27	21.33
220.488	64.34
220.706	88.92
220.924	80.72
221.142	33.62
221.36	76.63
221.578	82.77
221.796	-15.53
222.015	37.72
222.233	-9.39
222.451	-13.48
222.669	56.15
222.887	95.06
223.105	-66.73
223.323	70.48
223.541	72.53
223.759	-7.34
223.977	33.62
224.195	31.57
224.413	88.92
224.631	93.01
224.849	97.11
225.067	45.91
225.285	-3.24
225.503	109.4
225.721	2.9
225.939	17.24
226.157	45.91
226.375	99.16
226.592	72.53
226.81	7
227.028	52.05
227.246	60.24
227.464	86.87
227.682	52.05
227.9	74.58
228.117	13.14
228.335	21.33
228.553	-25.77
228.771	23.38
228.989	17.24
229.206	43.86
229.424	-29.87
229.642	50
229.86	29.52
230.077	105.3
230.295	13.14
230.513	84.82
230.731	72.53
230.948	60.24
231.166	56.15
231.384	93.01
231.601	47.96
231.819	37.72
232.037	66.39
232.254	72.53
232.472	62.29
232.689	-23.72
232.907	90.96
233.125	78.68
233.342	-11.43
233.56	54.1
233.777	52.05
233.995	88.92
234.213	62.29
234.43	29.52
234.648	50
234.865	72.53
235.083	64.34
235.3	90.96
235.518	31.57
235.735	113.49
235.953	70.48
236.17	41.81
236.388	39.76
236.605	74.58
236.822	136.02
237.04	88.92
237.257	17.24
237.475	0.85
237.692	76.63
237.909	35.67
238.127	15.19
238.344	-3.24
238.562	82.77
238.779	-27.82
238.996	88.92
239.214	45.91
239.431	68.44
239.648	74.58
239.865	50
240.083	47.96
240.3	-42.15
240.517	45.91
240.735	72.53
240.952	119.64
241.169	50
241.386	74.58
241.603	97.11
241.821	95.06
242.038	97.11
242.255	33.62
242.472	23.38
242.689	103.25
242.907	109.4
243.124	66.39
243.341	19.29
243.558	7
243.775	68.44
243.992	13.14
244.209	4.95
244.426	99.16
244.643	25.43
244.86	58.2
245.078	23.38
245.295	27.48
245.512	17.24
245.729	56.15
245.946	31.57
246.163	45.91
246.38	74.58
246.597	47.96
246.814	72.53
247.031	17.24
247.248	-21.67
247.464	121.68
247.681	-1.19
247.898	-66.73
248.115	21.33
248.332	-50.35
248.549	17.24
248.766	64.34
248.983	82.77
249.2	117.59
249.417	64.34
249.633	35.67
249.85	88.92
250.067	17.24
250.284	58.2
250.501	97.11
250.717	29.52
250.934	9.05
251.151	93.01
251.368	119.64
251.585	-7.34
251.801	93.01
252.018	13.14
252.235	17.24
252.451	37.72
252.668	72.53
252.885	17.24
253.102	76.63
253.318	41.81
253.535	13.14
253.752	70.48
253.968	29.52
254.185	31.57
254.401	21.33
254.618	43.86
254.835	27.48
255.051	-52.39
255.268	68.44
255.484	39.76
255.701	35.67
255.917	-36.01
256.134	-9.39
256.351	21.33
256.567	-3.24
256.784	74.58
257	-5.29
257.217	37.72
257.433	113.49
257.65	68.44
257.866	123.73
258.082	11.09
258.299	90.96
258.515	2.9
258.732	58.2
258.948	25.43
259.165	80.72
259.381	62.29
259.597	93.01
259.814	35.67
260.03	99.16
260.246	15.19
260.463	82.77
260.679	84.82
260.895	19.29
261.112	47.96
261.328	99.16
261.544	76.63
261.761	84.82
261.977	72.53
262.193	68.44
262.409	62.29
262.626	27.48
262.842	80.72
263.058	7
263.274	62.29
263.49	29.52
263.707	66.39
263.923	-7.34
264.139	-31.91
264.355	50
264.571	101.2
264.787	29.52
265.004	80.72
265.22	45.91
265.436	13.14
265.652	9.05
265.868	68.44
266.084	27.48
266.3	109.4
266.516	68.44
266.732	150.36
266.948	80.72
267.164	-9.39
267.38	29.52
267.596	64.34
267.812	43.86
268.028	82.77
268.244	70.48
268.46	68.44
268.676	39.76
268.892	86.87
269.108	0.85
269.324	56.15
269.54	37.72
269.756	33.62
269.972	54.1
270.188	62.29
270.403	-1.19
270.619	56.15
270.835	88.92
271.051	19.29
271.267	27.48
271.483	74.58
271.698	25.43
271.914	70.48
272.13	41.81
272.346	68.44
272.562	64.34
272.777	113.49
272.993	54.1
273.209	21.33
273.425	0.85
273.64	15.19
273.856	54.1
274.072	21.33
274.287	39.76
274.503	103.25
274.719	35.67
274.934	4.95
275.15	4.95
275.366	60.24
275.581	56.15
275.797	78.68
276.012	0.85
276.228	90.96
276.444	56.15
276.659	37.72
276.875	-58.54
277.09	88.92
277.306	119.64
277.521	140.12
277.737	17.24
277.952	70.48
278.168	127.83
278.383	43.86
278.599	101.2
278.814	37.72
279.03	105.3
279.245	86.87
279.461	23.38
279.676	15.19
279.892	-58.54
280.107	11.09
280.322	-15.53
280.538	11.09
280.753	-23.72
280.969	84.82
281.184	19.29
281.399	21.33
281.615	-1.19
281.83	52.05
282.045	95.06
282.26	17.24
282.476	25.43
282.691	95.06
282.906	13.14
283.122	9.05
283.337	45.91
283.552	88.92
283.767	29.52
283.983	60.24
284.198	37.72
284.413	56.15
284.628	52.05
284.843	64.34
285.058	74.58
285.274	136.02
285.489	13.14
285.704	97.11
285.919	115.54
286.134	-36.01
286.349	29.52
286.564	78.68
286.779	66.39
286.995	11.09
287.21	-11.43
287.425	88.92
287.64	-3.24
287.855	76.63
288.07	-1.19
288.285	54.1
288.5	82.77
288.715	117.59
288.93	62.29
289.145	31.57
289.36	60.24
289.575	78.68
289.79	43.86
290.004	7
290.219	68.44
290.434	-27.82
290.649	84.82
290.864	19.29
291.079	50
291.294	11.09
291.509	78.68
291.724	-9.39
291.938	50
292.153	-7.34
292.368	37.72
292.583	62.29
292.798	45.91
293.012	25.43
293.227	-5.29
293.442	23.38
293.657	90.96
293.871	117.59
294.086	47.96
294.301	21.33
294.516	80.72
294.73	88.92
294.945	84.82
295.16	70.48
295.374	62.29
295.589	56.15
295.804	-31.91
296.018	-11.43
296.233	84.82
296.447	47.96
296.662	27.48
296.877	23.38
297.091	52.05
297.306	29.52
297.52	70.48
297.735	76.63
297.949	93.01
298.164	54.1
298.378	72.53
298.593	31.57
298.807	19.29
299.022	62.29
299.236	68.44
299.451	84.82
299.665	43.86
299.88	37.72
300.094	47.96
300.309	45.91
300.523	45.91
300.737	86.87
300.952	68.44
301.166	62.29
301.381	52.05
301.595	31.57
301.809	43.86
302.024	19.29
302.238	23.38
302.452	90.96
302.667	50
302.881	115.54
303.095	68.44
303.309	17.24
303.524	66.39
303.738	66.39
303.952	54.1
304.166	39.76
304.381	50
304.595	60.24
304.809	-9.39
305.023	54.1
305.237	33.62
305.452	25.43
305.666	11.09
305.88	50
306.094	47.96
306.308	82.77
306.522	-29.87
306.736	13.14
306.95	56.15
307.164	72.53
307.379	37.72
307.593	86.87
307.807	54.1
308.021	113.49
308.235	7
308.449	90.96
308.663	-3.24
308.877	70.48
309.091	105.3
309.305	74.58
309.519	-66.73
309.733	113.49
309.947	37.72
310.161	93.01
310.374	35.67
310.588	90.96
310.802	64.34
311.016	56.15
311.23	86.87
311.444	35.67
311.658	25.43
311.872	95.06
312.085	45.91
312.299	119.64
312.513	68.44
312.727	45.91
312.941	15.19
313.154	52.05
313.368	43.86
313.582	25.43
313.796	45.91
314.009	47.96
314.223	0.85
314.437	90.96
314.651	72.53
314.864	62.29
315.078	80.72
315.292	27.48
315.505	41.81
315.719	-1.19
315.933	-31.91
316.146	-21.67
316.36	13.14
316.573	31.57
316.787	19.29
317.001	39.76
317.214	74.58
317.428	45.91
317.641	86.87
317.855	54.1
318.068	11.09
318.282	54.1
318.495	88.92
318.709	68.44
318.922	90.96
319.136	54.1
319.349	84.82
319.563	99.16
319.776	95.06
319.99	52.05
320.203	74.58
320.417	68.44
320.63	11.09
320.843	90.96
321.057	-15.53
321.27	58.2
321.483	-38.06
321.697	78.68
321.91	39.76
322.124	66.39
322.337	58.2
322.55	90.96
322.763	117.59
322.977	0.85
323.19	72.53
323.403	43.86
323.617	66.39
323.83	76.63
324.043	33.62
324.256	45.91
324.469	78.68
324.683	47.96
324.896	60.24
325.109	93.01
325.322	52.05
325.535	58.2
325.748	123.73
325.962	88.92
326.175	56.15
326.388	93.01
326.601	37.72
326.814	25.43
327.027	-50.35
327.24	74.58
327.453	-9.39
327.666	15.19
327.879	72.53
328.092	136.02
328.305	23.38
328.518	-29.87
328.731	15.19
328.944	15.19
329.157	27.48
329.37	103.25
329.583	25.43
329.796	93.01
330.009	45.91
330.222	97.11
330.435	97.11
330.648	35.67
330.861	41.81
331.073	45.91
331.286	99.16
331.499	23.38
331.712	68.44
331.925	33.62
332.138	54.1
332.35	84.82
332.563	15.19
332.776	60.24
332.989	37.72
333.202	35.67
333.414	35.67
333.627	23.38
333.84	45.91
334.053	29.52
334.265	29.52
334.478	15.19
334.691	27.48
334.903	72.53
335.116	15.19
335.329	52.05
335.541	78.68
335.754	-5.29
335.966	54.1
336.179	66.39
336.392	50
336.604	19.29
336.817	9.05
337.029	76.63
337.242	56.15
337.454	56.15
337.667	21.33
337.88	78.68
338.092	25.43
338.305	35.67
338.517	56.15
338.729	31.57
338.942	129.88
339.154	41.81
339.367	27.48
339.579	58.2
339.792	7
340.004	70.48
340.217	50
340.429	70.48
340.641	60.24
340.854	66.39
341.066	80.72
341.278	23.38
341.491	117.59
341.703	66.39
341.915	54.1
342.128	76.63
342.34	86.87
342.552	33.62
342.764	39.76
342.977	7
343.189	15.19
343.401	29.52
343.613	2.9
343.826	105.3
344.038	152.4
344.25	31.57
344.462	66.39
344.674	74.58
344.886	31.57
345.099	123.73
345.311	127.83
345.523	-31.91
345.735	54.1
345.947	68.44
346.159	17.24
346.371	78.68
346.583	60.24
346.795	111.44
347.007	78.68
347.219	64.34
347.431	27.48
347.643	105.3
347.855	15.19
348.067	84.82
348.279	54.1
348.491	113.49
348.703	21.33
348.915	56.15
349.127	62.29
349.339	19.29
349.551	72.53
349.763	113.49
349.975	68.44
350.187	56.15
350.399	-38.06
350.61	56.15
350.822	33.62
351.034	129.88
351.246	4.95
351.458	21.33
351.669	-13.48
351.881	86.87
352.093	11.09
352.305	66.39
352.517	99.16
352.728	105.3
352.94	43.86
353.152	54.1
353.363	86.87
353.575	23.38
353.787	56.15
353.999	144.21
354.21	39.76
354.422	-25.77
354.633	97.11
354.845	31.57
355.057	52.05
355.268	95.06
355.48	82.77
355.692	111.44
355.903	-48.3
356.115	115.54
356.326	80.72
356.538	82.77
356.749	58.2
356.961	39.76
357.172	-3.24
357.384	37.72
357.595	99.16
357.807	29.52
358.018	-15.53
358.23	115.54
358.441	152.4
358.653	45.91
358.864	23.38
359.075	95.06
359.287	35.67
359.498	52.05
359.709	76.63
359.921	93.01
360.132	15.19
360.344	11.09
360.555	86.87
360.766	50
360.977	60.24
361.189	105.3
361.4	80.72
361.611	80.72
361.823	27.48
362.034	76.63
362.245	39.76
362.456	107.35
362.667	72.53
362.879	111.44
363.09	43.86
363.301	93.01
363.512	93.01
363.723	111.44
363.935	78.68
364.146	105.3
364.357	-29.87
364.568	111.44
364.779	23.38
364.99	68.44
365.201	23.38
365.412	97.11
365.623	7
365.834	2.9
366.045	56.15
366.256	39.76
366.467	80.72
366.678	52.05
366.889	86.87
367.1	82.77
367.311	78.68
367.522	109.4
367.733	74.58
367.944	84.82
368.155	43.86
368.366	72.53
368.577	97.11
368.788	68.44
368.999	47.96
369.209	168.79
369.42	111.44
369.631	78.68
369.842	68.44
370.053	35.67
370.264	64.34
370.474	95.06
370.685	52.05
370.896	74.58
371.107	111.44
371.317	103.25
371.528	56.15
371.739	115.54
371.95	105.3
372.16	45.91
372.371	7
372.582	9.05
372.792	62.29
373.003	119.64
373.214	70.48
373.424	50
373.635	52.05
373.846	58.2
374.056	52.05
374.267	33.62
374.477	117.59
374.688	54.1
374.898	52.05
375.109	47.96
375.319	76.63
375.53	39.76
375.74	97.11
375.951	31.57
376.161	90.96
376.372	109.4
376.582	54.1
376.793	25.43
377.003	82.77
377.214	54.1
377.424	41.81
377.635	90.96
377.845	-3.24
378.055	17.24
378.266	2.9
378.476	88.92
378.686	140.12
378.897	76.63
379.107	33.62
379.317	88.92
379.528	52.05
379.738	58.2
379.948	45.91
380.158	115.54
380.369	58.2
380.579	90.96
380.789	17.24
380.999	17.24
381.21	39.76
381.42	125.78
381.63	76.63
381.84	123.73
382.05	125.78
382.261	72.53
382.471	33.62
382.681	64.34
382.891	90.96
383.101	105.3
383.311	70.48
383.521	80.72
383.731	103.25
383.941	111.44
384.151	35.67
384.361	70.48
384.571	88.92
384.781	103.25
384.991	66.39
385.201	111.44
385.411	23.38
385.621	84.82
385.831	33.62
386.041	27.48
386.251	39.76
386.461	140.12
386.671	45.91
386.881	82.77
387.091	31.57
387.301	80.72
387.511	15.19
387.72	47.96
387.93	78.68
388.14	62.29
388.35	197.46
388.56	80.72
388.769	54.1
388.979	17.24
389.189	86.87
389.399	7
389.609	111.44
389.818	107.35
390.028	105.3
390.238	107.35
390.447	82.77
390.657	74.58
390.867	21.33
391.076	80.72
391.286	60.24
391.496	27.48
391.705	113.49
391.915	31.57
392.125	76.63
392.334	109.4
392.544	23.38
392.753	52.05
392.963	115.54
393.172	82.77
393.382	62.29
393.591	84.82
393.801	103.25
394.01	121.68
394.22	144.21
394.429	119.64
394.639	56.15
394.848	136.02
395.058	52.05
395.267	62.29
395.477	78.68
395.686	93.01
395.895	70.48
396.105	115.54
396.314	72.53
396.524	84.82
396.733	105.3
396.942	164.69
397.152	99.16
397.361	144.21
397.57	74.58
397.78	189.27
397.989	121.68
398.198	136.02
398.407	72.53
398.617	64.34
398.826	41.81
399.035	70.48
399.244	146.26
399.453	88.92
399.663	105.3
399.872	144.21
400.081	93.01
400.29	107.35
400.499	35.67
400.708	119.64
400.917	150.36
401.127	111.44
401.336	121.68
401.545	131.92
401.754	121.68
401.963	129.88
402.172	76.63
402.381	105.3
402.59	140.12
402.799	70.48
403.008	131.92
403.217	129.88
403.426	105.3
403.635	88.92
403.844	56.15
404.053	176.98
404.262	133.97
404.471	158.55
404.68	127.83
404.888	203.6
405.097	95.06
405.306	115.54
405.515	156.5
405.724	148.31
405.933	97.11
406.142	183.12
406.35	170.83
406.559	123.73
406.768	179.03
406.977	217.94
407.185	119.64
407.394	107.35
407.603	236.37
407.812	205.65
408.02	162.64
408.229	168.79
408.438	215.89
408.646	248.66
408.855	209.75
409.064	174.93
409.272	160.59
409.481	281.43
409.69	142.16
409.898	275.28
410.107	273.23
410.315	285.52
410.524	269.14
410.733	371.54
410.941	281.43
411.15	324.43
411.358	295.76
411.567	342.86
411.775	367.44
411.984	332.62
412.192	332.62
412.401	338.77
412.609	414.54
412.818	381.78
413.026	389.97
413.234	332.62
413.443	441.17
413.651	375.63
413.86	383.82
414.068	490.32
414.276	508.75
414.485	467.79
414.693	514.89
414.901	564.04
415.11	506.7
415.318	508.75
415.526	496.46
415.734	590.67
415.943	602.96
416.151	670.54
416.359	613.2
416.567	650.06
416.776	650.06
416.984	725.83
417.192	779.08
417.4	713.55
417.608	777.03
417.817	742.22
418.025	836.42
418.233	834.38
418.441	871.24
418.649	887.62
418.857	947.01
419.065	961.35
419.273	994.12
419.481	936.78
419.689	1055.56
419.897	1207.11
420.105	1186.63
420.313	1200.96
420.521	1153.86
420.729	1147.72
420.937	1336.13
421.145	1291.07
421.353	1383.23
421.561	1411.9
421.769	1534.78
421.977	1471.29
422.185	1530.69
422.393	1440.58
422.601	1684.28
422.809	1641.28
423.017	1751.87
423.224	1731.39
423.432	1825.59
423.64	1925.94
423.848	2016.05
424.056	1952.57
424.263	2063.16
424.471	2140.98
424.679	2102.07
424.887	2116.41
425.094	2229.04
425.302	2282.29
425.51	2456.37
425.718	2485.04
425.925	2444.08
426.133	2620.21
426.341	2712.36
426.548	2827.05
426.756	2900.78
426.964	2894.63
427.171	3040.04
427.379	3097.38
427.586	3275.56
427.794	3304.23
428.001	3504.93
428.209	3580.7
428.417	3611.42
428.624	3752.73
428.832	3783.45
429.039	3814.17
429.247	3703.58
429.454	4266.77
429.662	4453.14
429.869	4195.09
430.076	4569.87
430.284	4203.29
430.491	4430.61
430.699	4702.99
430.906	4760.33
431.114	4936.46
431.321	5022.47
431.528	5237.51
431.736	5505.79
431.943	5618.43
432.15	5597.95
432.358	5731.07
432.565	5956.35
432.772	5903.1
432.979	6193.91
433.187	6400.76
433.394	6290.17
433.601	6636.27
433.808	6712.05
434.016	6705.9
434.223	6978.28
434.43	7443.17
434.637	7469.8
434.844	7774.94
435.052	7910.11
435.259	7877.34
435.466	8053.47
435.673	7854.81
435.88	8426.2
436.087	8714.96
436.294	9040.59
436.501	8577.75
436.708	8893.13
436.915	9108.17
437.122	9454.28
437.329	9507.52
437.537	9669.31
437.743	10072.76
437.95	9704.13
438.157	10490.55
438.364	10881.71
438.571	10769.07
438.778	10623.67
438.985	11819.68
439.192	11307.69
439.399	11559.59
439.606	11360.94
439.813	12173.98
440.02	12780.18
440.227	12620.44
440.433	12493.46
440.64	12784.27
440.847	12737.17
441.054	13068.94
441.261	13808.26
441.467	13953.66
441.674	14056.06
441.881	14598.77
442.088	14561.91
442.294	14363.26
442.501	14873.2
442.708	15241.84
442.914	15708.77
443.121	16437.85
443.328	15936.1
443.534	17052.24
443.741	16534.11
443.948	16392.8
444.154	17801.8
444.361	17517.13
444.568	17537.61
444.774	17748.55
444.981	17865.28
445.187	18401.85
445.394	19229.23
445.6	18954.8
445.807	21047.83
446.013	19773.99
446.22	20185.63
446.426	21164.56
446.633	21158.42
446.839	21881.35
447.046	21182.99
447.252	22475.26
447.459	22530.56
447.665	22254.08
447.871	23421.42
448.078	24250.85
448.284	23052.79
448.491	23912.94
448.697	24609.25
448.903	24971.74
449.11	25178.58
449.316	24658.4
449.522	25328.08
449.728	26110.41
449.935	26128.84
450.141	26216.9
450.347	26925.5
450.553	25725.39
450.76	26460.61
450.966	27376.05
451.172	26896.83
451.378	27318.71
451.584	27308.47
451.791	27783.6
451.997	27826.6
452.203	28363.17
452.409	28203.43
452.615	27916.72
452.821	26937.79
453.027	26689.98
453.233	28170.66
453.44	26833.34
453.646	27482.55
453.852	27328.95
454.058	28215.72
454.264	26845.63
454.47	27730.35
454.676	27201.97
454.882	28117.42
455.088	25369.04
455.294	25797.07
455.5	26382.79
455.705	26784.19
455.911	25602.51
456.117	24990.17
456.323	24742.36
456.529	23224.82
456.735	24494.56
456.941	23826.92
457.147	23456.24
457.352	22692.35
457.558	22475.26
457.764	22817.27
457.97	22082.05
458.176	21438.99
458.381	21611.02
458.587	20716.06
458.793	20699.67
458.999	19522.09
459.204	20857.37
459.41	20331.04
459.616	18948.66
459.821	18858.55
460.027	18661.94
460.233	18637.37
460.438	17803.85
460.644	17916.48
460.85	17029.71
461.055	16783.96
461.261	16978.51
461.466	15569.51
461.672	15172.21
461.878	16380.51
462.083	15172.21
462.289	14824.05
462.494	14604.92
462.7	14006.91
462.905	13628.04
463.111	13957.76
463.316	14107.26
463.522	13777.54
463.727	14002.82
463.932	13621.89
464.138	13703.81
464.343	13871.75
464.549	13394.57
464.754	13849.22
464.959	13806.21
465.165	13462.15
465.37	12989.07
465.575	12708.5
465.781	13083.28
465.986	13359.75
466.191	12573.33
466.397	12647.06
466.602	12206.75
466.807	12524.18
467.012	12391.06
467.218	12362.39
467.423	12202.65
467.628	12276.38
467.833	12835.47
468.038	12135.07
468.244	11981.47
468.449	12305.05
468.654	12016.29
468.859	12108.44
469.064	11985.57
469.269	11348.65
469.474	11383.46
469.679	11651.75
469.885	11489.96
470.09	11471.53
470.295	11354.79
470.5	11010.73
470.705	11322.02
470.91	10963.63
471.115	11037.36
471.32	11127.47
471.525	11156.14
471.73	10730.16
471.935	10777.26
472.139	10330.81
472.344	10549.94
472.549	10359.48
472.754	10048.19
472.959	10109.63
473.164	9982.65
473.369	9876.16
473.574	10144.44
473.778	9892.54
473.983	10126.01
474.188	10025.66
474.393	9587.4
474.598	9423.56
474.802	9460.42
475.007	9536.2
475.212	9312.97
475.417	9222.86
475.621	8852.17
475.826	9114.31
476.031	8930
476.235	8680.14
476.44	8944.33
476.645	8501.97
476.849	8661.71
477.054	8610.51
477.259	8608.47
477.463	8452.82
477.668	8198.87
477.872	8340.18
478.077	8254.17
478.282	7998.17
478.486	8057.56
478.691	7811.81
478.895	7842.53
479.1	7731.94
479.304	7867.1
479.509	7578.34
479.713	7731.94
479.918	7404.26
480.122	7484.13
480.326	7633.63
480.531	7545.57
480.735	7533.28
480.94	7617.25
481.144	7631.58
481.348	7332.58
481.553	7580.39
481.757	7183.08
481.961	7246.57
482.166	7385.83
482.37	7420.64
482.574	7256.81
482.778	7389.92
482.983	7439.08
483.187	7324.39
483.391	7285.48
483.595	7144.17
483.8	7262.95
484.004	7267.05
484.208	7308.01
484.412	7291.62
484.616	7437.03
484.821	7367.4
485.025	7269.09
485.229	7439.08
485.433	7310.05
485.637	7207.66
485.841	7119.59
486.045	7209.7
486.249	7281.38
486.453	7168.74
486.657	7297.77
486.861	7244.52
487.065	7092.97
487.269	7351.01
487.473	7269.09
487.677	7271.14
487.881	7328.49
488.085	7240.42
488.289	7293.67
488.493	7285.48
488.697	7451.36
488.901	7408.36
489.105	7125.74
489.309	7361.25
489.512	7424.74
489.716	7490.28
489.92	7475.94
490.124	7506.66
490.328	7506.66
490.531	7441.12
490.735	7629.54
490.939	7592.67
491.143	7641.82
491.346	7471.84
491.55	7576.29
491.754	7527.14
491.958	7885.53
492.161	7699.17
492.365	7688.93
492.569	7641.82
492.772	7754.46
492.976	7971.55
493.18	7733.98
493.383	7783.13
493.587	7975.64
493.79	8082.14
493.994	7903.96
494.197	8176.34
494.401	8092.38
494.605	8071.9
494.808	7996.12
495.012	8346.33
495.215	8254.17
495.419	8356.57
495.622	8538.84
495.825	8350.42
496.029	8377.05
496.232	8600.27
496.436	8540.88
496.639	8671.95
496.843	8735.44
497.046	8868.56
497.249	9073.35
497.453	9073.35
497.656	9022.16
497.859	9040.59
498.063	9528
498.266	9517.76
498.469	9351.88
498.673	9497.28
498.876	9720.51
499.079	9507.52
499.282	9798.34
499.485	10023.61
499.689	10195.64
499.892	10187.45
500.095	10295.99
500.298	10470.07
500.501	10482.36
500.705	10713.78
500.908	10719.92
501.111	10996.4
501.314	10873.52
501.517	11328.17
501.72	11039.4
501.923	11229.87
502.126	11391.66
502.329	11633.32
502.532	11737.76
502.735	11809.44
502.938	11920.03
503.141	11993.76
503.344	12350.1
503.547	12354.2
503.75	12548.76
503.953	12802.71
504.156	12960.4
504.359	12903.06
504.562	12917.39
504.765	13216.4
504.968	13193.87
505.17	13654.66
505.373	13511.3
505.576	13654.66
505.779	13779.59
505.982	14025.34
506.185	14172.8
506.387	14430.84
506.59	14299.77
506.793	14582.39
506.996	14463.61
507.198	15116.91
507.401	14940.79
507.604	15323.76
507.807	15544.94
508.009	15954.53
508.212	15848.04
508.415	15845.99
508.617	16093.79
508.82	15868.52
509.022	16161.37
509.225	16540.25
509.428	16530.01
509.63	16712.28
509.833	16935.51
510.035	17281.61
510.238	17027.67
510.44	17287.76
510.643	17496.65
510.845	17707.59
511.048	17760.84
511.25	18061.89
511.453	17945.16
511.655	18854.45
511.858	18491.96
512.06	18854.45
512.262	19036.72
512.465	18913.84
512.667	19247.66
512.87	19317.29
513.072	19655.21
513.274	19950.12
513.477	20003.36
513.679	19825.19
513.881	20359.71
514.084	20660.76
514.286	20337.18
514.488	20957.72
514.69	20972.05
514.893	21289.49
515.095	21461.52
515.297	21598.73
515.499	21600.78
515.701	21793.29
515.904	21977.61
516.106	22512.13
516.308	22391.3
516.51	22675.96
516.712	22723.07
516.914	22919.67
517.116	23083.51
517.318	23476.72
517.52	23618.03
517.722	23689.71
517.925	23742.96
518.127	23919.08
518.329	24312.29
518.531	24146.4
518.733	24719.84
518.935	25137.62
519.136	25055.7
519.338	25358.8
519.54	25659.85
519.742	25678.29
519.944	25643.47
520.146	26196.42
520.348	26296.77
520.55	26370.5
520.752	26720.7
520.954	27455.92
521.155	26667.45
521.357	27271.61
521.559	27451.83
521.761	27896.24
521.963	27689.39
522.164	27984.3
522.366	27939.24
522.568	28246.44
522.77	28703.14
522.971	28952.99
523.173	28586.4
523.375	29256.09
523.576	29137.3
523.778	28858.78
523.98	29358.49
524.181	29671.82
524.383	29614.48
524.584	30167.43
524.786	29884.81
524.988	29770.13
525.189	30194.06
525.391	30323.08
525.592	30560.64
525.794	30783.87
525.995	30718.34
526.197	31029.63
526.398	31170.94
526.6	31056.25
526.801	31007.1
527.003	31515
527.204	31058.3
527.406	31486.32
527.607	31889.77
527.808	32080.24
528.01	31119.74
528.211	31830.38
528.412	32366.95
528.614	32682.34
528.815	32110.96
529.016	32563.56
529.218	32176.49
529.419	32541.03
529.62	32448.87
529.822	32557.41
530.023	32393.58
530.224	32672.1
530.425	32608.61
530.626	32360.81
530.828	32489.83
531.029	33147.23
531.23	32627.04
531.431	32848.22
531.632	33034.59
531.833	33040.73
532.035	33059.16
532.236	33024.35
532.437	33171.8
532.638	33257.82
532.839	33063.26
533.04	33358.17
533.241	32995.68
533.442	33780.05
533.643	33382.74
533.844	33317.21
534.045	33206.62
534.246	32883.04
534.447	33864.02
534.648	33302.87
534.849	33356.12
535.05	33198.43
535.251	33323.35
535.451	33481.05
535.652	33876.3
535.853	33440.09
536.054	33677.65
536.255	33743.19
536.456	33180
536.657	33968.46
536.857	33522.01
537.058	33538.39
537.259	33773.91
537.46	33550.68
537.66	33571.16
537.861	33689.94
538.062	33474.9
538.263	33356.12
538.463	33544.53
538.664	33804.63
538.865	33806.67
539.065	33870.16
539.266	33223
539.466	33689.94
539.667	33034.59
539.868	33907.02
540.068	33874.26
540.269	33624.4
540.469	33829.2
540.67	33311.07
540.87	33417.56
541.071	33663.32
541.271	33915.22
541.472	33218.91
541.672	33374.55
541.873	33433.94
542.073	32989.53
542.274	33839.44
542.474	33392.98
542.675	33524.05
542.875	33608.02
543.075	33237.34
543.276	33182.04
543.476	33476.95
543.676	33208.67
543.877	33812.82
544.077	33646.93
544.277	33474.9
544.478	33296.73
544.678	33747.28
544.878	33263.96
545.078	33456.47
545.279	33427.8
545.479	33225.05
545.679	33665.36
545.879	33513.81
546.079	33481.05
546.28	33255.77
546.48	33038.69
546.68	33452.37
546.88	33366.36
547.08	33331.54
547.28	33255.77
547.48	33323.35
547.68	33749.33
547.88	33257.82
548.081	33612.12
548.281	33698.13
548.481	33030.49
548.681	33198.43
548.881	33141.08
549.081	33556.82
549.28	33130.84
549.48	33120.6
549.68	33325.4
549.88	33700.18
550.08	33223
550.28	32981.34
550.48	33223
550.68	33763.67
550.88	33124.7
551.08	33155.42
551.279	33235.29
551.479	33239.39
551.679	33495.38
551.879	32967.01
552.079	33329.5
552.278	33409.37
552.478	33325.4
552.678	33276.25
552.878	33304.92
553.077	33356.12
553.277	33028.45
553.477	33663.32
553.676	33005.92
553.876	33239.39
554.076	33122.65
554.275	33122.65
554.475	32815.46
554.674	33036.64
554.874	33200.47
555.074	32864.61
555.273	33263.96
555.473	33130.84
555.672	32854.37
555.872	33020.25
556.071	32817.5
556.271	33354.07
556.47	32725.35
556.67	32741.73
556.869	32571.75
557.068	32907.62
557.268	32876.9
557.467	32883.04
557.667	32668
557.866	32616.8
558.065	32745.83
558.265	32153.96
558.464	32563.56
558.663	32745.83
558.863	32676.19
559.062	32770.4
559.261	32393.58
559.461	32383.34
559.66	32063.85
559.859	32131.44
560.058	32299.37
560.258	32471.4
560.457	32166.25
560.656	32409.96
560.855	31904.11
561.054	32389.48
561.253	31797.62
561.453	31938.93
561.652	32266.6
561.851	32137.58
562.05	31916.4
562.249	31469.94
562.448	31920.49
562.647	31920.49
562.846	31836.53
563.045	32002.41
563.244	31699.31
563.443	31859.06
563.642	31207.8
563.841	31551.86
564.04	31816.05
564.239	31508.85
564.438	31172.99
564.637	31678.83
564.836	31713.65
565.035	31222.14
565.234	31306.1
565.432	31023.48
565.631	31070.59
565.83	31474.04
566.029	31306.1
566.228	31287.67
566.427	30929.28
566.625	30509.44
566.824	30925.18
567.023	30783.87
567.222	30466.44
567.42	31072.64
567.619	30767.49
567.818	30650.75
568.016	30300.55
568.215	30775.68
568.414	30650.75
568.612	30964.09
568.811	30484.87
569.01	30345.61
569.208	29841.81
569.407	30392.71
569.605	29825.42
569.804	30175.62
570.002	30118.28
570.201	29936.01
570.4	29614.48
570.598	29559.19
570.797	29639.06
570.995	29550.99
571.193	29262.23
571.392	29637.01
571.59	29471.12
571.789	29510.04
571.987	29114.78
572.186	29446.55
572.384	29395.35
572.582	29311.38
572.781	29340.05
572.979	29055.39
573.177	28871.07
573.376	28875.16
573.574	28742.05
573.772	28871.07
573.971	28932.51
574.169	28563.87
574.367	28727.71
574.565	28780.96
574.763	28731.81
574.962	28469.67
575.16	28254.63
575.358	28658.08
575.556	28047.79
575.754	28543.39
575.952	27910.57
576.151	28326.31
576.349	27838.89
576.547	27951.53
576.745	27863.47
576.943	28096.94
577.141	27953.58
577.339	27806.13
577.537	27892.14
577.735	27670.96
577.933	27728.3
578.131	27765.17
578.329	27562.42
578.527	27214.26
578.725	27513.27
578.923	27421.11
579.121	27421.11
579.319	26925.5
579.516	27296.18
579.714	27349.43
579.912	27077.05
580.11	27152.82
580.308	27224.5
580.506	27138.49
580.704	26425.79
580.901	26862.01
581.099	26735.04
581.297	26716.61
581.495	26350.02
581.692	26618.3
581.89	26163.65
582.088	26743.23
582.285	26485.19
582.483	26520
582.681	26313.16
582.878	26157.51
583.076	25813.45
583.274	26509.76
583.471	25842.12
583.669	26087.88
583.866	25829.84
584.064	25719.24
584.262	25676.24
584.459	25911.75
584.657	25571.79
584.854	25860.55
585.052	25205.2
585.249	25483.73
585.447	25340.37
585.644	25260.5
585.841	25293.27
586.039	25278.93
586.236	24924.63
586.434	24981.98
586.631	25067.99
586.828	25012.7
587.026	25442.77
587.223	25147.86
587.42	25049.56
587.618	25061.85
587.815	24515.04
588.012	24631.77
588.21	24521.18
588.407	24852.95
588.604	24805.85
588.801	24048.1
588.999	24572.38
589.196	24236.52
589.393	24113.64
589.59	24015.33
589.787	24254.95
589.984	23798.25
590.182	23931.37
590.379	23914.98
590.576	23605.74
590.773	23759.34
590.97	23587.31
591.167	23900.65
591.364	23364.08
591.561	23667.18
591.758	23605.74
591.955	23437.81
592.152	23548.4
592.349	23263.73
592.546	23454.19
592.743	23382.51
592.94	22923.77
593.137	23335.41
593.334	23386.61
593.531	22878.71
593.727	22944.25
593.924	22688.25
594.121	22862.33
594.318	22516.22
594.515	22409.73
594.712	22653.44
594.908	22571.52
595.105	22739.45
595.302	22088.2
595.499	22581.76
595.696	22440.45
595.892	22348.29
596.089	21979.65
596.286	22317.57
596.482	21860.87
596.679	22041.09
596.876	22297.09
597.072	21828.1
597.269	21764.62
597.466	21590.54
597.662	21594.64
597.859	21645.84
598.055	21422.61
598.252	21443.09
598.448	21475.85
598.645	21363.22
598.841	21197.33
599.038	20863.51
599.234	21549.58
599.431	21115.41
599.627	20937.24
599.824	21217.81
600.02	20879.89
600.217	21230.1
600.413	21056.02
600.609	20744.73
600.806	20963.86
601.002	21103.12
601.198	20496.92
601.395	20451.87
601.591	20548.12
601.787	20765.21
601.984	20189.73
602.18	20627.99
602.376	20558.36
602.572	20279.84
602.769	20214.3
602.965	20197.92
603.161	20300.32
603.357	20111.91
603.553	19886.63
603.75	19911.21
603.946	19921.45
604.142	19720.74
604.338	19427.88
604.534	20038.18
604.73	19503.66
604.926	19614.25
605.122	19610.15
605.318	19395.12
605.514	19403.31
605.71	19309.1
605.906	19474.99
606.102	19313.2
606.298	19413.55
606.494	19298.86
606.69	19372.59
606.886	19280.43
607.082	19042.87
607.278	19020.34
607.474	18811.45
607.67	19087.92
607.866	18866.74
608.062	19452.46
608.257	18940.47
608.453	18696.76
608.649	18842.17
608.845	18694.71
609.041	18833.97
609.236	18778.68
609.432	18702.9
609.628	18682.42
609.824	18420.28
610.019	18545.21
610.215	18594.36
610.411	18453.05
610.606	18401.85
610.802	18266.69
610.998	18375.23
611.193	18350.65
611.389	18227.78
611.584	18205.25
611.78	18035.27
611.976	17998.4
612.171	18147.9
612.367	18270.78
612.562	17992.26
612.758	17947.2
612.953	18082.37
613.149	18172.48
613.344	17666.63
613.539	18217.54
613.735	17947.2
613.93	18129.47
614.126	17887.81
614.321	18025.03
614.517	17850.95
614.712	18035.27
614.907	17785.41
615.103	17564.23
615.298	17896
615.493	17801.8
615.688	17306.19
615.884	17795.65
616.079	17543.75
616.274	17797.7
616.47	17582.67
616.665	17527.37
616.86	17539.66
617.055	17527.37
617.25	17388.11
617.445	17171.02
617.641	17162.83
617.836	17465.93
618.031	17156.69
618.226	17154.64
618.421	17089.1
618.616	17371.72
618.811	17050.19
619.006	17232.46
619.201	16673.37
619.396	16806.48
619.591	16720.47
619.786	17052.24
619.981	16366.17
620.176	17060.43
620.371	16454.23
620.566	16769.62
620.761	16560.73
620.956	16573.02
621.151	16099.94
621.346	16497.24
621.541	16304.73
621.735	16161.37
621.93	15862.37
622.125	15972.96
622.32	15854.18
622.515	16095.84
622.709	15620.71
622.904	15796.84
623.099	15759.97
623.294	15626.85
623.488	15606.38
623.683	15227.5
623.878	15260.27
624.072	14987.89
624.267	15243.88
624.462	15018.61
624.656	14963.31
624.851	14979.7
625.046	14697.08
625.24	14779
625.435	14475.9
625.629	14860.91
625.824	14639.73
626.018	14355.07
626.213	14156.41
626.407	14666.36
626.602	13982.34
626.796	14174.85
626.991	14197.37
627.185	13974.14
627.38	13949.57
627.574	13873.79
627.768	13970.05
627.963	13580.93
628.157	13607.56
628.352	13619.85
628.546	13347.47
628.74	13548.17
628.935	13337.23
629.129	13286.03
629.323	13365.9
629.517	13296.27
629.712	12929.68
629.906	13060.75
630.1	12956.3
630.294	12997.26
630.489	12669.59
630.683	12919.44
630.877	12671.64
631.071	12579.48
631.265	12714.64
631.459	12423.83
631.653	12370.58
631.848	12450.46
632.042	12432.02
632.236	12454.55
632.43	12038.81
632.624	12374.68
632.818	12204.7
633.012	11903.65
633.206	11928.22
633.4	11975.33
633.594	11844.26
633.788	11866.78
633.982	11829.92
634.176	11848.35
634.369	11709.09
634.563	11510.44
634.757	11319.98
634.951	11547.3
635.145	11444.9
635.339	11432.61
635.533	11088.56
635.726	11426.47
635.92	11139.76
636.114	11209.39
636.308	11074.22
636.501	11037.36
636.695	11074.22
636.889	10973.87
637.083	10623.67
637.276	10838.7
637.47	10814.13
637.664	10730.16
637.857	10869.42
638.051	10576.56
638.244	10525.36
638.438	10668.72
638.632	10566.32
638.825	10250.94
639.019	10349.24
639.212	10175.16
639.406	10355.38
639.599	10152.63
639.793	10298.04
639.986	9910.97
640.18	9970.37
640.373	10056.38
640.567	9857.73
640.76	10017.47
640.954	9671.36
641.147	9734.85
641.34	9591.49
641.534	9806.53
641.727	9697.99
641.92	9829.06
642.114	9599.68
642.307	9722.56
642.5	9577.16
642.694	9413.32
642.887	9327.3
643.08	9634.5
643.273	9349.83
643.467	9315.02
643.66	9083.59
643.853	9331.4
644.046	9020.11
644.239	8968.91
644.432	9081.55
644.626	8864.46
644.819	8911.57
645.012	8846.03
645.205	8735.44
645.398	8770.26
645.591	8753.87
645.784	8866.51
645.977	8577.75
646.17	8651.47
646.363	8493.78
646.556	8385.24
646.749	8604.37
646.942	8506.07
647.135	8442.58
647.328	8401.62
647.521	8305.37
647.714	8090.33
647.907	8245.98
648.099	8065.75
648.292	8127.19
648.485	8231.64
648.678	7893.72
648.871	7895.77
649.064	7860.96
649.256	8018.65
649.449	7989.98
649.642	7844.57
649.835	7664.35
650.027	7824.09
650.22	7811.81
650.413	7660.26
650.605	7635.68
650.798	7668.45
650.991	7619.3
651.183	7656.16
651.376	7461.6
651.568	7465.7
651.761	7637.73
651.954	7371.49
652.146	7344.87
652.339	7410.4
652.531	7410.4
652.724	7215.85
652.916	7209.7
653.109	7365.35
653.301	7090.92
653.494	7115.5
653.686	6863.6
653.879	7166.7
654.071	7017.19
654.263	6935.28
654.456	6986.47
654.648	6882.03
654.84	6761.2
655.033	6644.46
655.225	6916.84
655.417	6793.97
655.61	6757.1
655.802	6683.38
655.994	6542.07
656.186	6531.83
656.379	6640.37
656.571	6634.22
656.763	6517.49
656.955	6501.11
657.148	6376.18
657.34	6552.31
657.532	6261.49
657.724	6386.42
657.916	6337.27
658.108	6327.03
658.3	6353.65
658.492	6245.11
658.684	6337.27
658.876	6191.86
659.068	6142.71
659.26	6206.2
659.452	6142.71
659.644	6077.18
659.836	6140.66
660.028	6001.4
660.22	5886.72
660.412	5825.28
660.604	5802.75
660.796	6062.84
660.988	5976.83
661.18	5743.36
661.372	5769.98
661.563	5933.82
661.755	5600
661.947	5872.38
662.139	5772.03
662.331	5583.62
662.522	5649.15
662.714	5636.86
662.906	5626.62
663.097	5653.25
663.289	5561.09
663.481	5479.17
663.673	5577.47
663.864	5387.01
664.056	5425.92
664.247	5401.35
664.439	5292.8
664.631	5315.33
664.822	5509.89
665.014	5321.48
665.205	5374.72
665.397	5290.76
665.588	5262.09
665.78	5116.68
665.971	5264.13
666.163	5196.55
666.354	5094.15
666.546	5032.71
666.737	5047.05
666.929	5036.81
667.12	4965.13
667.311	5061.38
667.503	5061.38
667.694	5024.52
667.885	4961.03
668.077	5006.09
668.268	4895.5
668.459	4782.86
668.651	4819.72
668.842	4911.88
669.033	4766.48
669.224	4846.35
669.416	4858.64
669.607	4707.09
669.798	4741.9
669.989	4784.91
670.18	4598.54
670.371	4754.19
670.563	4584.21
670.754	4674.32
670.945	4713.23
671.136	4610.83
671.327	4555.54
671.518	4696.85
671.709	4606.74
671.9	4676.37
672.091	4410.13
672.282	4569.87
672.473	4397.84
672.664	4481.81
672.855	4573.97
673.046	4526.86
673.237	4381.46
673.428	4344.6
673.619	4317.97
673.809	4475.67
674	4336.4
674.191	4430.61
674.382	4330.26
674.573	4324.12
674.764	4371.22
674.954	4420.37
675.145	4084.5
675.336	4141.85
675.527	4332.31
675.717	4236.05
675.908	4184.85
676.099	4127.51
676.289	4180.76
676.48	4213.53
676.671	4166.42
676.861	4123.41
677.052	4102.93
677.243	3992.34
677.433	4104.98
677.624	4010.78
677.814	3998.49
678.005	4014.87
678.195	4090.65
678.386	4104.98
678.576	3986.2
678.767	4018.97
678.957	3984.15
679.148	3996.44
679.338	3953.43
679.529	3996.44
679.719	3988.25
679.909	4025.11
680.1	4041.5
680.29	3990.3
680.481	3879.71
680.671	3947.29
680.861	3730.2
681.052	3846.94
681.242	3965.72
681.432	3912.47
681.622	3750.68
681.813	3771.16
682.003	3797.79
682.193	3887.9
682.383	3754.78
682.573	3887.9
682.764	3783.45
682.954	3836.7
683.144	3742.49
683.334	3810.08
683.524	3783.45
683.714	3740.44
683.904	3773.21
684.094	3781.4
684.284	3654.43
684.474	3789.6
684.664	3767.07
684.854	3607.33
685.044	3703.58
685.234	3564.32
685.424	3756.83
685.614	3656.48
685.804	3609.37
685.994	3633.95
686.184	3537.7
686.374	3513.12
686.564	3588.89
686.753	3609.37
686.943	3564.32
687.133	3423.01
687.323	3521.31
687.513	3502.88
687.702	3443.49
687.892	3478.3
688.082	3357.47
688.272	3445.54
688.461	3543.84
688.651	3531.55
688.841	3248.93
689.03	3402.53
689.22	3324.71
689.41	3425.06
689.599	3427.11
689.789	3324.71
689.979	3373.86
690.168	3232.55
690.358	3160.87
690.547	3281.7
690.737	3285.8
690.926	3158.82
691.116	3164.97
691.305	3201.83
691.495	3162.92
691.684	3083.05
691.874	3029.8
692.063	3158.82
692.252	3074.85
692.442	3050.28
692.631	3095.33
692.82	3052.33
693.01	3046.18
693.199	3066.66
693.388	2980.65
693.578	2970.41
693.767	2958.12
693.956	3009.32
694.146	2933.54
694.335	2888.49
694.524	2964.26
694.713	2958.12
694.902	2896.68
695.092	2849.58
695.281	2857.77
695.47	2829.1
695.659	2825
695.848	2720.56
696.037	2825
696.226	2833.19
696.415	2972.46
696.604	2962.22
696.793	2822.95
696.982	2855.72
697.171	2913.06
697.36	2714.41
697.549	2851.63
697.738	2794.28
697.927	2777.9
698.116	2800.43
698.305	2720.56
698.494	2788.14
698.683	2810.67
698.872	2710.32
699.061	2753.32
699.25	2683.69
699.438	2655.02
699.627	2741.04
699.816	2738.99
700.005	2603.82
700.193	2683.69
700.382	2769.71
700.571	2693.93
700.76	2595.63
700.948	2704.17
701.137	2636.59
701.326	2659.12
701.514	2626.35
701.703	2671.4
701.892	2523.95
702.08	2620.21
702.269	2593.58
702.457	2554.67
702.646	2564.91
702.834	2454.32
703.023	2548.53
703.212	2642.73
703.4	2528.05
703.589	2493.23
703.777	2718.51
703.965	2661.16
704.154	2599.73
704.342	2513.71
704.531	2487.09
704.719	2667.31
704.907	2595.63
705.096	2528.05
705.284	2581.29
705.472	2564.91
705.661	2591.53
705.849	2575.15
706.037	2442.03
706.226	2560.81
706.414	2544.43
706.602	2478.9
706.79	2503.47
706.979	2515.76
707.167	2521.9
707.355	2618.16
707.543	2448.18
707.731	2605.87
707.919	2538.29
708.107	2530.09
708.296	2505.52
708.484	2528.05
708.672	2605.87
708.86	2546.48
709.048	2542.38
709.236	2579.25
709.424	2562.86
709.612	2474.8
709.8	2442.03
709.988	2599.73
710.176	2577.2
710.364	2556.72
710.551	2544.43
710.739	2536.24
710.927	2485.04
711.115	2569.01
711.303	2556.72
711.491	2515.76
711.679	2493.23
711.866	2474.8
712.054	2652.97
712.242	2415.41
712.43	2581.29
712.617	2603.82
712.805	2526
712.993	2550.57
713.181	2466.61
713.368	2548.53
713.556	2485.04
713.744	2532.14
713.931	2585.39
714.119	2503.47
714.306	2634.54
714.494	2595.63
714.682	2542.38
714.869	2466.61
715.057	2468.66
715.244	2540.33
715.432	2534.19
715.619	2405.17
715.807	2478.9
715.994	2351.92
716.182	2546.48
716.369	2417.46
716.556	2503.47
716.744	2493.23
716.931	2339.63
717.119	2632.49
717.306	2642.73
717.493	2616.11
717.681	2632.49
717.868	2478.9
718.055	2597.68
718.242	2446.13
718.43	2648.88
718.617	2552.62
718.804	2517.81
718.991	2575.15
719.179	2382.64
719.366	2480.94
719.553	2474.8
719.74	2573.1
719.927	2579.25
720.114	2554.67
720.301	2417.46
720.488	2530.09
720.676	2593.58
720.863	2474.8
721.05	2501.42
721.237	2556.72
721.424	2538.29
721.611	2573.1
721.798	2442.03
721.985	2466.61
722.172	2472.75
722.358	2497.33
722.545	2489.14
722.732	2534.19
722.919	2446.13
723.106	2569.01
723.293	2482.99
723.48	2609.97
723.667	2413.36
723.853	2439.98
724.04	2526
724.227	2538.29
724.414	2491.18
724.6	2546.48
724.787	2482.99
724.974	2480.94
725.161	2419.5
725.347	2448.18
725.534	2583.34
725.72	2507.57
725.907	2515.76
726.094	2530.09
726.28	2347.83
726.467	2583.34
726.653	2534.19
726.84	2579.25
727.027	2550.57
727.213	2399.02
727.4	2456.37
727.586	2521.9
727.773	2569.01
727.959	2437.94
728.145	2405.17
728.332	2515.76
728.518	2468.66
728.705	2644.78
728.891	2495.28
729.077	2542.38
729.264	2534.19
729.45	2439.98
729.636	2597.68
729.823	2472.75
730.009	2429.74
730.195	2458.42
730.382	2544.43
730.568	2562.86
730.754	2558.77
730.94	2513.71
731.126	2542.38
731.313	2464.56
731.499	2548.53
731.685	2450.22
731.871	2546.48
732.057	2458.42
732.243	2444.08
732.429	2624.3
732.615	2485.04
732.801	2562.86
732.987	2560.81
733.173	2556.72
733.359	2554.67
733.545	2605.87
733.731	2569.01
733.917	2591.53
734.103	2394.93
734.289	2478.9
734.475	2413.36
734.661	2464.56
734.847	2474.8
735.033	2607.92
735.219	2530.09
735.404	2528.05
735.59	2478.9
735.776	2380.59
735.962	2499.38
736.148	2517.81
736.333	2364.21
736.519	2601.77
736.705	2566.96
736.89	2435.89
737.076	2435.89
737.262	2507.57
737.447	2368.31
737.633	2364.21
737.819	2480.94
738.004	2310.96
738.19	2550.57
738.375	2368.31
738.561	2427.7
738.747	2360.11
738.932	2386.74
739.118	2482.99
739.303	2351.92
739.489	2407.22
739.674	2413.36
739.859	2319.15
740.045	2294.58
740.23	2419.5
740.416	2229.04
740.601	2501.42
740.786	2249.52
740.972	2249.52
741.157	2390.83
741.342	2388.78
741.528	2364.21
741.713	2310.96
741.898	2290.48
742.084	2245.43
742.269	2302.77
742.454	2212.66
742.639	2241.33
742.824	2261.81
743.01	2296.63
743.195	2276.15
743.38	2343.73
743.565	2167.6
743.75	2239.28
743.935	2253.62
744.12	2190.13
744.305	2169.65
744.49	2208.56
744.675	2233.14
744.86	2149.17
745.045	2183.99
745.23	2134.84
745.415	2126.64
745.6	2116.41
745.785	2147.12
745.97	2093.88
746.155	2143.03
746.34	2173.75
746.525	2063.16
746.71	2069.3
746.895	1960.76
747.079	1913.66
747.264	2018.1
747.449	2030.39
747.634	2126.64
747.819	2001.72
748.003	2057.01
748.188	2087.73
748.373	2001.72
748.557	2032.44
748.742	1925.94
748.927	1946.42
749.111	1930.04
749.296	1833.79
749.481	1895.22
749.665	1897.27
749.85	1905.46
750.034	1919.8
750.219	1874.74
750.404	1844.03
750.588	1864.5
750.773	1803.07
750.957	1760.06
751.141	1876.79
751.326	1766.2
751.51	1770.3
751.695	1768.25
751.879	1680.19
752.064	1809.21
752.248	1733.43
752.432	1749.82
752.617	1688.38
752.801	1696.57
752.985	1704.76
753.17	1590.08
753.354	1723.2
753.538	1782.59
753.722	1616.7
753.907	1540.93
754.091	1551.17
754.275	1778.49
754.459	1590.08
754.643	1592.13
754.828	1643.32
755.012	1526.59
755.196	1465.15
755.38	1536.83
755.564	1536.83
755.748	1461.06
755.932	1493.82
756.116	1516.35
756.3	1469.25
756.484	1477.44
756.668	1545.02
756.852	1379.14
757.036	1473.34
757.22	1495.87
757.404	1327.94
757.588	1395.52
757.772	1278.79
757.956	1381.18
758.14	1323.84
758.323	1342.27
758.507	1354.56
758.691	1385.28
758.875	1426.24
759.059	1346.37
759.242	1317.7
759.426	1385.28
759.61	1317.7
759.794	1260.35
759.977	1266.5
760.161	1321.79
760.345	1377.09
760.528	1278.79
760.712	1286.98
760.895	1198.92
761.079	1184.58
761.263	1239.87
761.446	1211.2
761.63	1168.2
761.813	1243.97
761.997	1258.31
762.18	1151.81
762.364	1192.77
762.547	1200.96
762.731	1289.03
762.914	1106.76
763.098	1188.68
763.281	1174.34
763.464	1147.72
763.648	1133.38
763.831	1198.92
764.015	1203.01
764.198	1121.09
764.381	1180.48
764.564	1133.38
764.748	1022.79
764.931	1131.33
765.114	1137.48
765.297	1203.01
765.481	1049.41
765.664	1139.52
765.847	1102.66
766.03	1106.76
766.213	1098.56
766.397	1119.04
766.58	1176.39
766.763	1162.05
766.946	1071.94
767.129	1137.48
767.312	1051.46
767.495	1012.55
767.678	1033.03
767.861	1131.33
768.044	1014.6
768.227	1129.28
768.41	1063.75
768.593	987.97
768.776	959.3
768.959	1049.41
769.142	1084.23
769.324	1047.37
769.507	977.73
769.69	1006.41
769.873	953.16
770.056	1004.36
770.239	979.78
770.421	1045.32
770.604	1045.32
770.787	1035.08
770.97	994.12
771.152	934.73
771.335	979.78
771.518	883.53
771.7	1010.5
771.883	932.68
772.066	998.21
772.248	969.54
772.431	936.78
772.613	983.88
772.796	889.67
772.978	924.49
773.161	947.01
773.343	861
773.526	920.39
773.708	858.95
773.891	877.38
774.073	813.9
774.256	893.77
774.438	885.58
774.621	762.7
774.803	877.38
774.985	832.33
775.168	879.43
775.35	738.12
775.532	834.38
775.715	777.03
775.897	822.09
776.079	807.75
776.261	820.04
776.444	826.18
776.626	842.57
776.808	688.97
776.99	711.5
777.173	740.17
777.355	738.12
777.537	754.51
777.719	766.79
777.901	707.4
778.083	738.12
778.265	766.79
778.447	811.85
778.629	742.22
778.811	717.64
778.993	695.11
779.175	701.26
779.357	684.87
779.539	695.11
779.721	736.07
779.903	596.81
780.085	699.21
780.267	693.07
780.449	670.54
780.631	688.97
780.812	670.54
780.994	699.21
781.176	688.97
781.358	633.68
781.54	584.52
781.721	695.11
781.903	574.28
782.085	547.66
782.267	648.01
782.448	580.43
782.63	537.42
782.812	611.15
782.993	508.75
783.175	562
783.357	637.77
783.538	580.43
783.72	473.93
783.901	637.77
784.083	537.42
784.264	559.95
784.446	525.13
784.627	510.8
784.809	523.09
784.99	471.89
785.172	584.52
785.353	576.33
785.535	514.89
785.716	566.09
785.897	568.14
786.079	486.22
786.26	551.76
786.441	531.28
786.623	514.89
786.804	414.54
786.985	510.8
787.167	541.52
787.348	475.98
787.529	402.26
787.71	498.51
787.891	469.84
788.073	412.5
788.254	455.5
788.435	416.59
788.616	412.5
788.797	406.35
788.978	494.41
789.159	437.07
789.34	389.97
789.522	447.31
789.703	437.07
789.884	451.41
790.065	467.79
790.246	494.41
790.427	357.2
790.607	392.02
790.788	463.69
790.969	389.97
791.15	514.89
791.331	357.2
791.512	383.82
791.693	385.87
791.874	381.78
792.054	355.15
792.235	363.34
792.416	373.58
792.597	398.16
792.778	422.73
792.958	453.45
793.139	453.45
793.32	490.32
793.5	357.2
793.681	441.17
793.862	365.39
794.042	430.93
794.223	375.63
794.404	377.68
794.584	375.63
794.765	332.62
794.945	340.82
795.126	437.07
795.306	349.01
795.487	367.44
795.667	408.4
795.848	355.15
796.028	349.01
796.209	367.44
796.389	365.39
796.57	351.06
796.75	373.58
796.93	369.49
797.111	256.85
797.291	275.28
797.471	375.63
797.652	349.01
797.832	275.28
798.012	303.95
798.192	234.32
798.373	338.77
798.553	252.75
798.733	252.75
798.913	277.33
799.093	273.23
799.274	373.58
799.454	236.37
799.634	349.01
799.814	324.43
799.994	267.09
800.174	279.38
800.354	306
800.534	381.78
800.714	283.47
800.894	277.33
801.074	258.9
801.254	269.14
801.434	277.33
801.614	318.29
801.794	301.9
801.974	723.79
802.154	283.47
802.334	195.41
802.514	271.19
802.693	246.61
802.873	295.76
803.053	207.7
803.233	242.51
803.413	248.66
803.592	262.99
803.772	295.76
803.952	201.55
804.131	228.18
804.311	262.99
804.491	258.9
804.67	246.61
804.85	262.99
805.03	250.71
805.209	303.95
805.389	203.6
805.568	258.9
805.748	238.42
805.928	267.09
806.107	240.47
806.287	226.13
806.466	262.99
806.646	258.9
806.825	260.95
807.004	168.79
807.184	176.98
807.363	189.27
807.543	256.85
807.722	209.75
807.901	273.23
808.081	299.86
808.26	140.12
808.439	207.7
808.619	269.14
808.798	176.98
808.977	183.12
809.156	248.66
809.336	189.27
809.515	164.69
809.694	125.78
809.873	215.89
810.052	183.12
810.231	211.79
810.411	211.79
810.59	217.94
810.769	187.22
810.948	236.37
811.127	246.61
811.306	164.69
811.485	162.64
811.664	219.99
811.843	156.5
812.022	267.09
812.201	209.75
812.38	166.74
812.559	197.46
812.737	248.66
812.916	238.42
813.095	164.69
813.274	256.85
813.453	219.99
813.632	203.6
813.811	209.75
813.989	138.07
814.168	191.31
814.347	195.41
814.526	215.89
814.704	185.17
814.883	205.65
815.062	152.4
815.24	191.31
815.419	101.2
815.598	269.14
815.776	123.73
815.955	170.83
816.133	189.27
816.312	140.12
816.49	211.79
816.669	226.13
816.847	168.79
817.026	160.59
817.204	187.22
817.383	168.79
817.561	187.22
817.74	181.07
817.918	166.74
818.097	217.94
818.275	205.65
818.453	226.13
818.632	183.12
818.81	156.5
818.988	170.83
819.167	224.08
819.345	199.51
819.523	154.45
819.701	111.44
819.879	138.07
820.058	144.21
820.236	146.26
820.414	154.45
820.592	183.12
820.77	179.03
820.948	148.31
821.127	150.36
821.305	121.68
821.483	105.3
821.661	174.93
821.839	205.65
822.017	140.12
822.195	119.64
822.373	166.74
822.551	172.88
822.729	181.07
822.907	74.58
823.085	152.4
823.262	127.83
823.44	117.59
823.618	121.68
823.796	131.92
823.974	148.31
824.152	129.88
824.329	201.55
824.507	127.83
824.685	201.55
824.863	90.96
825.04	111.44
825.218	127.83
825.396	136.02
825.574	117.59
825.751	148.31
825.929	84.82
826.107	35.67
826.284	138.07
826.462	97.11
826.639	86.87
826.817	80.72
826.994	138.07
827.172	127.83
827.349	162.64
827.527	133.97
827.704	156.5
827.882	121.68
828.059	109.4
828.237	138.07
828.414	99.16
828.591	152.4
828.769	125.78
828.946	76.63
829.124	205.65
829.301	45.91
829.478	142.16
829.655	133.97
829.833	95.06
830.01	78.68
830.187	111.44
830.364	78.68
830.542	131.92
830.719	78.68
830.896	158.55
831.073	-3.24
831.25	172.88
831.427	113.49
831.604	138.07
831.782	90.96
831.959	111.44
832.136	111.44
832.313	199.51
832.49	88.92
832.667	127.83
832.844	101.2
833.021	146.26
833.198	105.3
833.374	88.92
833.551	72.53
833.728	82.77
833.905	119.64
834.082	101.2
834.259	84.82
834.436	127.83
834.612	168.79
834.789	123.73
834.966	45.91
835.143	101.2
835.319	78.68
835.496	80.72
835.673	97.11
835.85	121.68
836.026	166.74
836.203	107.35
836.38	140.12
836.556	115.54
836.733	84.82
836.909	111.44
837.086	68.44
837.262	70.48
837.439	101.2
837.616	88.92
837.792	74.58
837.968	158.55
838.145	82.77
838.321	115.54
838.498	162.64
838.674	90.96
838.851	101.2
839.027	66.39
839.203	27.48
839.38	99.16
839.556	76.63
839.732	105.3
839.909	80.72
840.085	115.54
840.261	29.52
840.437	58.2
840.614	13.14
840.79	115.54
840.966	158.55
841.142	105.3
841.318	105.3
841.494	158.55
841.671	187.22
841.847	119.64
842.023	21.33
842.199	78.68
842.375	66.39
842.551	90.96
842.727	-3.24
842.903	133.97
843.079	107.35
843.255	121.68
843.431	101.2
843.607	101.2
843.783	47.96
843.959	21.33
844.134	41.81
844.31	82.77
844.486	88.92
844.662	133.97
844.838	47.96
845.013	113.49
845.189	111.44
845.365	29.52
845.541	119.64
845.716	189.27
845.892	19.29
846.068	142.16
846.244	78.68
846.419	70.48
846.595	64.34
846.77	56.15
846.946	82.77
847.122	50
847.297	43.86
847.473	107.35
847.648	31.57
847.824	99.16
847.999	13.14
848.175	41.81
848.35	80.72
848.526	-19.63
848.701	164.69
848.876	86.87
849.052	125.78
849.227	52.05
849.403	111.44
849.578	60.24
849.753	123.73
849.929	68.44
850.104	68.44
850.279	86.87
850.454	11.09
850.63	121.68
850.805	29.52
850.98	29.52
851.155	90.96
851.33	50
851.505	76.63
851.681	109.4
851.856	50
852.031	19.29
852.206	109.4
852.381	107.35
852.556	15.19
852.731	9.05
852.906	62.29
853.081	23.38
853.256	70.48
853.431	17.24
853.606	54.1
853.781	64.34
853.956	-38.06
854.131	84.82
854.305	33.62
854.48	41.81
854.655	35.67
854.83	31.57
855.005	31.57
855.18	107.35
855.354	84.82
855.529	-1.19
855.704	45.91
855.879	99.16
856.053	45.91
856.228	45.91
856.403	0.85
856.577	50
856.752	9.05
856.926	47.96
857.101	158.55
857.276	-7.34
857.45	45.91
857.625	95.06
857.799	37.72
857.974	45.91
858.148	62.29
858.323	201.55
858.497	-15.53
858.672	76.63
858.846	56.15
859.02	68.44
859.195	35.67
859.369	-46.25
859.543	117.59
859.718	41.81
859.892	52.05
860.066	111.44
860.241	52.05
860.415	68.44
860.589	25.43
860.763	64.34
860.938	39.76
861.112	101.2
861.286	56.15
861.46	29.52
861.634	37.72
861.808	58.2
861.982	33.62
862.157	0.85
862.331	17.24
862.505	62.29
862.679	80.72
862.853	54.1
863.027	-15.53
863.201	-7.34
863.375	13.14
863.549	60.24
863.722	68.44
863.896	39.76
864.07	19.29
864.244	45.91
864.418	52.05
864.592	72.53
864.766	117.59
864.939	37.72
865.113	33.62
865.287	74.58
865.461	31.57
865.634	88.92
865.808	97.11
865.982	52.05
866.156	72.53
866.329	41.81
866.503	35.67
866.676	72.53
866.85	72.53
867.024	107.35
867.197	58.2
867.371	66.39
867.544	-5.29
867.718	-21.67
867.891	43.86
868.065	47.96
868.238	97.11
868.412	-11.43
868.585	27.48
868.759	86.87
868.932	21.33
869.105	41.81
869.279	13.14
869.452	93.01
869.625	39.76
869.799	78.68
869.972	84.82
870.145	80.72
870.319	60.24
870.492	-17.58
870.665	64.34
870.838	-15.53
871.011	117.59
871.185	19.29
871.358	-1.19
871.531	111.44
871.704	39.76
871.877	74.58
872.05	35.67
872.223	62.29
872.396	78.68
872.569	35.67
872.742	0.85
872.915	39.76
873.088	19.29
873.261	4.95
873.434	33.62
873.607	31.57
873.78	95.06
873.953	56.15
874.126	84.82
874.299	35.67
874.471	23.38
874.644	60.24
874.817	52.05
874.99	45.91
875.163	23.38
875.335	115.54
875.508	66.39
875.681	66.39
875.853	21.33
876.026	62.29
876.199	45.91
876.371	47.96
876.544	43.86
876.717	-9.39
876.889	-1.19
877.062	54.1
877.234	68.44
877.407	115.54
877.579	19.29
877.752	58.2
877.924	76.63
878.097	84.82
878.269	37.72
878.442	64.34
878.614	9.05
878.786	60.24
878.959	9.05
879.131	70.48
879.303	-33.96
879.476	31.57
879.648	11.09
879.82	19.29
879.993	7
880.165	-64.68
880.337	107.35
880.509	31.57
880.681	-15.53
880.854	39.76
881.026	66.39
881.198	129.88
881.37	-1.19
881.542	68.44
881.714	-13.48
881.886	-5.29
882.058	23.38
882.23	133.97
882.402	37.72
882.574	-29.87
882.746	72.53
882.918	43.86
883.09	19.29
883.262	29.52
883.434	-9.39
883.606	-25.77
883.778	33.62
883.95	95.06
884.122	-1.19
884.293	60.24
884.465	-13.48
884.637	11.09
884.809	95.06
884.98	35.67
885.152	64.34
885.324	23.38
885.496	-42.15
885.667	2.9
885.839	-29.87
886.011	58.2
886.182	0.85
886.354	131.92
886.525	2.9
886.697	23.38
886.869	13.14
887.04	-13.48
887.212	58.2
887.383	47.96
887.555	72.53
887.726	52.05
887.897	68.44
888.069	129.88
888.24	95.06
888.412	39.76
888.583	2.9
888.754	35.67
888.926	7
889.097	25.43
889.268	7
889.44	111.44
889.611	-19.63
889.782	-23.72
889.953	33.62
890.125	76.63
890.296	37.72
890.467	62.29
890.638	0.85
890.809	97.11
890.98	56.15
891.151	47.96
891.323	43.86
891.494	-27.82
891.665	-19.63
891.836	31.57
892.007	62.29
892.178	47.96
892.349	52.05
892.52	-9.39
892.691	9.05
892.862	-1.19
893.032	74.58
893.203	-50.35
893.374	27.48
893.545	56.15
893.716	9.05
893.887	-25.77
894.057	45.91
894.228	84.82
894.399	-9.39
894.57	172.88
894.74	47.96
894.911	47.96
895.082	35.67
895.253	88.92
895.423	35.67
895.594	-19.63
895.764	-42.15
895.935	54.1
896.106	-38.06
896.276	15.19
896.447	13.14
896.617	86.87
896.788	31.57
896.958	-7.34
897.129	68.44
897.299	68.44
897.47	78.68
897.64	56.15
897.81	27.48
897.981	-50.35
898.151	62.29
898.322	4.95
898.492	-31.91
898.662	-25.77
898.832	31.57
899.003	11.09
899.173	54.1
899.343	19.29
899.513	-19.63
