Data from USB4F104151__50__12-27-31-453.txt Node

Date: Fri Mar 14 12:27:31 EDT 2025
User: louis
Spectrometer: USB4F10415
Trigger mode: 4
Integration Time (sec): 2.000000E-2
Scans to average: 1
Electric dark correction enabled: true
Nonlinearity correction enabled: false
Boxcar width: 0
XAxis mode: Wavelengths
Number of Pixels in Spectrum: 3648
>>>>>Begin Spectral Data<<<<<
178.204	-68.44
178.424	-68.44
178.644	-68.44
178.864	-21.33
179.084	-84.82
179.304	-39.76
179.524	-0.85
179.744	50.35
179.964	-4.95
180.184	-78.68
180.404	48.3
180.624	31.91
180.844	7.34
181.064	-25.43
181.283	11.43
181.503	-37.72
181.723	38.06
181.943	1.19
182.163	50.35
182.383	27.82
182.602	33.96
182.822	-0.85
183.042	42.15
183.262	38.06
183.482	23.72
183.701	3.24
183.921	11.43
184.141	50.35
184.361	31.91
184.58	-43.86
184.8	68.78
185.02	7.34
185.239	9.39
185.459	-21.33
185.679	27.82
185.898	-39.76
186.118	-33.62
186.338	42.15
186.557	40.11
186.777	1.19
186.997	95.4
187.216	-11.09
187.436	165.03
187.655	54.44
187.875	64.68
188.095	85.16
188.314	7.34
188.534	107.69
188.753	7.34
188.973	-39.76
189.192	13.48
189.412	36.01
189.631	81.07
189.851	40.11
190.07	91.31
190.29	21.67
190.509	-23.38
190.729	15.53
190.948	66.73
191.168	48.3
191.387	134.31
191.607	15.53
191.826	13.48
192.045	33.96
192.265	25.77
192.484	5.29
192.704	76.97
192.923	-39.76
193.142	72.87
193.362	-2.9
193.581	5.29
193.8	-17.24
194.02	33.96
194.239	85.16
194.458	115.88
194.678	-21.33
194.897	11.43
195.116	25.77
195.335	33.96
195.555	44.2
195.774	31.91
195.993	70.83
196.212	19.63
196.432	56.49
196.651	-21.33
196.87	17.58
197.089	97.45
197.308	79.02
197.528	36.01
197.747	70.83
197.966	-45.91
198.185	124.07
198.404	31.91
198.623	68.78
198.842	23.72
199.062	76.97
199.281	27.82
199.5	-11.09
199.719	7.34
199.938	79.02
200.157	31.91
200.376	38.06
200.595	76.97
200.814	-45.91
201.033	76.97
201.252	70.83
201.471	40.11
201.69	54.44
201.909	31.91
202.128	48.3
202.347	50.35
202.566	44.2
202.785	1.19
203.004	50.35
203.223	87.21
203.442	-11.09
203.661	42.15
203.879	-13.14
204.098	-60.24
204.317	40.11
204.536	-0.85
204.755	48.3
204.974	64.68
205.193	58.54
205.411	27.82
205.63	44.2
205.849	40.11
206.068	25.77
206.287	1.19
206.505	97.45
206.724	33.96
206.943	-41.81
207.162	42.15
207.381	25.77
207.599	23.72
207.818	33.96
208.037	-45.91
208.255	9.39
208.474	85.16
208.693	56.49
208.911	81.07
209.13	11.43
209.349	3.24
209.567	3.24
209.786	25.77
210.005	11.43
210.223	25.77
210.442	-19.29
210.661	29.87
210.879	46.25
211.098	29.87
211.316	74.92
211.535	23.72
211.753	-17.24
211.972	31.91
212.191	54.44
212.409	-4.95
212.628	15.53
212.846	33.96
213.065	66.73
213.283	40.11
213.502	7.34
213.72	21.67
213.938	29.87
214.157	33.96
214.375	60.59
214.594	60.59
214.812	27.82
215.031	85.16
215.249	-0.85
215.467	95.4
215.686	54.44
215.904	56.49
216.122	31.91
216.341	76.97
216.559	5.29
216.778	60.59
216.996	36.01
217.214	40.11
217.432	50.35
217.651	23.72
217.869	70.83
218.087	62.63
218.306	42.15
218.524	25.77
218.742	7.34
218.96	93.35
219.179	25.77
219.397	-4.95
219.615	27.82
219.833	74.92
220.051	-23.38
220.27	44.2
220.488	62.63
220.706	48.3
220.924	54.44
221.142	66.73
221.36	48.3
221.578	48.3
221.796	-23.38
222.015	54.44
222.233	7.34
222.451	58.54
222.669	31.91
222.887	79.02
223.105	-4.95
223.323	23.72
223.541	-27.48
223.759	7.34
223.977	-29.52
224.195	105.64
224.413	68.78
224.631	23.72
224.849	40.11
225.067	46.25
225.285	27.82
225.503	1.19
225.721	5.29
225.939	27.82
226.157	124.07
226.375	128.17
226.592	-0.85
226.81	46.25
227.028	76.97
227.246	58.54
227.464	83.11
227.682	66.73
227.9	17.58
228.117	46.25
228.335	-13.14
228.553	40.11
228.771	58.54
228.989	50.35
229.206	19.63
229.424	19.63
229.642	40.11
229.86	-21.33
230.077	66.73
230.295	105.64
230.513	19.63
230.731	91.31
230.948	54.44
231.166	48.3
231.384	3.24
231.601	38.06
231.819	60.59
232.037	-33.62
232.254	56.49
232.472	15.53
232.689	-0.85
232.907	58.54
233.125	17.58
233.342	23.72
233.56	-54.1
233.777	19.63
233.995	95.4
234.213	52.39
234.43	3.24
234.648	27.82
234.865	31.91
235.083	126.12
235.3	44.2
235.518	99.5
235.735	42.15
235.953	89.26
236.17	3.24
236.388	21.67
236.605	5.29
236.822	89.26
237.04	91.31
237.257	62.63
237.475	99.5
237.692	19.63
237.909	62.63
238.127	19.63
238.344	56.49
238.562	74.92
238.779	-0.85
238.996	-19.29
239.214	-25.43
239.431	105.64
239.648	9.39
239.865	95.4
240.083	91.31
240.3	40.11
240.517	66.73
240.735	29.87
240.952	29.87
241.169	48.3
241.386	25.77
241.603	-19.29
241.821	1.19
242.038	58.54
242.255	11.43
242.472	-21.33
242.689	68.78
242.907	62.63
243.124	46.25
243.341	33.96
243.558	5.29
243.775	76.97
243.992	-29.52
244.209	52.39
244.426	54.44
244.643	62.63
244.86	64.68
245.078	38.06
245.295	-2.9
245.512	38.06
245.729	-58.2
245.946	44.2
246.163	19.63
246.38	44.2
246.597	25.77
246.814	99.5
247.031	66.73
247.248	29.87
247.464	29.87
247.681	52.39
247.898	93.35
248.115	33.96
248.332	-23.38
248.549	64.68
248.766	111.78
248.983	74.92
249.2	-45.91
249.417	103.59
249.633	64.68
249.85	23.72
250.067	25.77
250.284	-7
250.501	9.39
250.717	46.25
250.934	64.68
251.151	44.2
251.368	17.58
251.585	11.43
251.801	38.06
252.018	60.59
252.235	70.83
252.451	25.77
252.668	68.78
252.885	119.98
253.102	87.21
253.318	62.63
253.535	48.3
253.752	46.25
253.968	44.2
254.185	-80.72
254.401	33.96
254.618	-21.33
254.835	-11.09
255.051	31.91
255.268	95.4
255.484	33.96
255.701	48.3
255.917	-31.57
256.134	62.63
256.351	-13.14
256.567	19.63
256.784	97.45
257	-11.09
257.217	33.96
257.433	64.68
257.65	56.49
257.866	66.73
258.082	66.73
258.299	-13.14
258.515	-23.38
258.732	-9.05
258.948	5.29
259.165	1.19
259.381	50.35
259.597	-41.81
259.814	15.53
260.03	-11.09
260.246	-17.24
260.463	50.35
260.679	-21.33
260.895	31.91
261.112	113.83
261.328	42.15
261.544	105.64
261.761	38.06
261.977	11.43
262.193	36.01
262.409	103.59
262.626	17.58
262.842	40.11
263.058	-62.29
263.274	91.31
263.49	56.49
263.707	1.19
263.923	76.97
264.139	50.35
264.355	15.53
264.571	64.68
264.787	33.96
265.004	115.88
265.22	3.24
265.436	1.19
265.652	29.87
265.868	101.55
266.084	54.44
266.3	27.82
266.516	15.53
266.732	7.34
266.948	44.2
267.164	25.77
267.38	3.24
267.596	36.01
267.812	89.26
268.028	81.07
268.244	42.15
268.46	126.12
268.676	103.59
268.892	44.2
269.108	5.29
269.324	33.96
269.54	31.91
269.756	50.35
269.972	58.54
270.188	5.29
270.403	-17.24
270.619	87.21
270.835	62.63
271.051	52.39
271.267	36.01
271.483	50.35
271.698	40.11
271.914	46.25
272.13	25.77
272.346	11.43
272.562	68.78
272.777	44.2
272.993	19.63
273.209	27.82
273.425	21.67
273.64	33.96
273.856	54.44
274.072	105.64
274.287	19.63
274.503	23.72
274.719	89.26
274.934	1.19
275.15	81.07
275.366	13.48
275.581	13.48
275.797	3.24
276.012	-64.34
276.228	48.3
276.444	-11.09
276.659	111.78
276.875	85.16
277.09	74.92
277.306	-13.14
277.521	-2.9
277.737	9.39
277.952	17.58
278.168	27.82
278.383	54.44
278.599	-31.57
278.814	66.73
279.03	29.87
279.245	68.78
279.461	-17.24
279.676	-0.85
279.892	19.63
280.107	70.83
280.322	-4.95
280.538	-13.14
280.753	-4.95
280.969	9.39
281.184	33.96
281.399	44.2
281.615	103.59
281.83	17.58
282.045	-19.29
282.26	124.07
282.476	46.25
282.691	85.16
282.906	1.19
283.122	11.43
283.337	1.19
283.552	25.77
283.767	66.73
283.983	70.83
284.198	13.48
284.413	101.55
284.628	29.87
284.843	68.78
285.058	68.78
285.274	56.49
285.489	11.43
285.704	160.94
285.919	1.19
286.134	74.92
286.349	-19.29
286.564	42.15
286.779	36.01
286.995	-23.38
287.21	62.63
287.425	-29.52
287.64	27.82
287.855	36.01
288.07	79.02
288.285	46.25
288.5	117.93
288.715	81.07
288.93	-27.48
289.145	-35.67
289.36	21.67
289.575	-45.91
289.79	95.4
290.004	19.63
290.219	36.01
290.434	95.4
290.649	7.34
290.864	46.25
291.079	31.91
291.294	1.19
291.509	19.63
291.724	-45.91
291.938	25.77
292.153	-27.48
292.368	31.91
292.583	74.92
292.798	124.07
293.012	83.11
293.227	101.55
293.442	36.01
293.657	-50
293.871	27.82
294.086	-9.05
294.301	3.24
294.516	52.39
294.73	93.35
294.945	-4.95
295.16	-15.19
295.374	58.54
295.589	-17.24
295.804	-29.52
296.018	54.44
296.233	62.63
296.447	27.82
296.662	-15.19
296.877	70.83
297.091	19.63
297.306	40.11
297.52	-62.29
297.735	-9.05
297.949	60.59
298.164	105.64
298.378	23.72
298.593	17.58
298.807	-2.9
299.022	79.02
299.236	44.2
299.451	79.02
299.665	21.67
299.88	76.97
300.094	66.73
300.309	95.4
300.523	44.2
300.737	72.87
300.952	36.01
301.166	62.63
301.381	36.01
301.595	64.68
301.809	87.21
302.024	7.34
302.238	38.06
302.452	27.82
302.667	54.44
302.881	76.97
303.095	85.16
303.309	42.15
303.524	81.07
303.738	85.16
303.952	19.63
304.166	19.63
304.381	68.78
304.595	27.82
304.809	1.19
305.023	79.02
305.237	95.4
305.452	-13.14
305.666	54.44
305.88	36.01
306.094	15.53
306.308	-29.52
306.522	-11.09
306.736	29.87
306.95	-39.76
307.164	-45.91
307.379	5.29
307.593	85.16
307.807	46.25
308.021	-23.38
308.235	15.53
308.449	-9.05
308.663	74.92
308.877	122.02
309.091	44.2
309.305	-25.43
309.519	-29.52
309.733	60.59
309.947	-13.14
310.161	62.63
310.374	68.78
310.588	101.55
310.802	38.06
311.016	99.5
311.23	40.11
311.444	-15.19
311.658	38.06
311.872	-0.85
312.085	68.78
312.299	13.48
312.513	81.07
312.727	44.2
312.941	29.87
313.154	38.06
313.368	1.19
313.582	79.02
313.796	33.96
314.009	44.2
314.223	95.4
314.437	95.4
314.651	46.25
314.864	7.34
315.078	85.16
315.292	23.72
315.505	58.54
315.719	44.2
315.933	109.74
316.146	40.11
316.36	64.68
316.573	72.87
316.787	124.07
317.001	68.78
317.214	19.63
317.428	36.01
317.641	11.43
317.855	33.96
318.068	81.07
318.282	29.87
318.495	97.45
318.709	29.87
318.922	13.48
319.136	21.67
319.349	66.73
319.563	11.43
319.776	21.67
319.99	-37.72
320.203	62.63
320.417	15.53
320.63	70.83
320.843	105.64
321.057	58.54
321.27	52.39
321.483	87.21
321.697	85.16
321.91	38.06
322.124	89.26
322.337	-13.14
322.55	5.29
322.763	64.68
322.977	83.11
323.19	111.78
323.403	36.01
323.617	44.2
323.83	97.45
324.043	-66.39
324.256	9.39
324.469	62.63
324.683	93.35
324.896	19.63
325.109	29.87
325.322	87.21
325.535	105.64
325.748	89.26
325.962	70.83
326.175	3.24
326.388	36.01
326.601	40.11
326.814	27.82
327.027	-9.05
327.24	48.3
327.453	72.87
327.666	83.11
327.879	3.24
328.092	95.4
328.305	81.07
328.518	42.15
328.731	11.43
328.944	13.48
329.157	33.96
329.37	36.01
329.583	29.87
329.796	105.64
330.009	38.06
330.222	115.88
330.435	105.64
330.648	109.74
330.861	50.35
331.073	109.74
331.286	124.07
331.499	66.73
331.712	-11.09
331.925	44.2
332.138	-23.38
332.35	95.4
332.563	52.39
332.776	40.11
332.989	54.44
333.202	-17.24
333.414	23.72
333.627	38.06
333.84	9.39
334.053	134.31
334.265	44.2
334.478	81.07
334.691	42.15
334.903	105.64
335.116	50.35
335.329	5.29
335.541	76.97
335.754	85.16
335.966	122.02
336.179	31.91
336.392	29.87
336.604	19.63
336.817	17.58
337.029	-0.85
337.242	-35.67
337.454	91.31
337.667	83.11
337.88	124.07
338.092	62.63
338.305	76.97
338.517	-11.09
338.729	119.98
338.942	15.53
339.154	-33.62
339.367	44.2
339.579	27.82
339.792	113.83
340.004	91.31
340.217	44.2
340.429	-7
340.641	74.92
340.854	40.11
341.066	79.02
341.278	72.87
341.491	52.39
341.703	44.2
341.915	-2.9
342.128	-0.85
342.34	40.11
342.552	74.92
342.764	111.78
342.977	89.26
343.189	-7
343.401	115.88
343.613	64.68
343.826	3.24
344.038	5.29
344.25	99.5
344.462	52.39
344.674	15.53
344.886	93.35
345.099	81.07
345.311	58.54
345.523	83.11
345.735	11.43
345.947	36.01
346.159	60.59
346.371	89.26
346.583	85.16
346.795	91.31
347.007	58.54
347.219	76.97
347.431	99.5
347.643	79.02
347.855	-82.77
348.067	25.77
348.279	93.35
348.491	56.49
348.703	81.07
348.915	97.45
349.127	11.43
349.339	3.24
349.551	31.91
349.763	36.01
349.975	7.34
350.187	93.35
350.399	62.63
350.61	27.82
350.822	38.06
351.034	31.91
351.246	23.72
351.458	27.82
351.669	48.3
351.881	58.54
352.093	113.83
352.305	126.12
352.517	111.78
352.728	128.17
352.94	54.44
353.152	79.02
353.363	54.44
353.575	44.2
353.787	81.07
353.999	27.82
354.21	136.36
354.422	36.01
354.633	29.87
354.845	13.48
355.057	85.16
355.268	48.3
355.48	5.29
355.692	97.45
355.903	130.22
356.115	58.54
356.326	36.01
356.538	99.5
356.749	101.55
356.961	101.55
357.172	89.26
357.384	60.59
357.595	130.22
357.807	148.65
358.018	56.49
358.23	40.11
358.441	50.35
358.653	9.39
358.864	-9.05
359.075	38.06
359.287	29.87
359.498	42.15
359.709	72.87
359.921	29.87
360.132	101.55
360.344	60.59
360.555	1.19
360.766	48.3
360.977	70.83
361.189	111.78
361.4	48.3
361.611	85.16
361.823	76.97
362.034	138.41
362.245	95.4
362.456	-9.05
362.667	19.63
362.879	56.49
363.09	19.63
363.301	93.35
363.512	48.3
363.723	21.67
363.935	42.15
364.146	68.78
364.357	64.68
364.568	13.48
364.779	50.35
364.99	13.48
365.201	33.96
365.412	74.92
365.623	62.63
365.834	60.59
366.045	60.59
366.256	117.93
366.467	58.54
366.678	38.06
366.889	36.01
367.1	13.48
367.311	9.39
367.522	-19.29
367.733	50.35
367.944	81.07
368.155	89.26
368.366	7.34
368.577	85.16
368.788	89.26
368.999	25.77
369.209	111.78
369.42	109.74
369.631	132.26
369.842	36.01
370.053	11.43
370.264	52.39
370.474	48.3
370.685	50.35
370.896	91.31
371.107	97.45
371.317	62.63
371.528	-4.95
371.739	122.02
371.95	101.55
372.16	81.07
372.371	29.87
372.582	54.44
372.792	42.15
373.003	38.06
373.214	93.35
373.424	56.49
373.635	31.91
373.846	-11.09
374.056	74.92
374.267	23.72
374.477	93.35
374.688	68.78
374.898	85.16
375.109	36.01
375.319	21.67
375.53	42.15
375.74	103.59
375.951	3.24
376.161	33.96
376.372	83.11
376.582	3.24
376.793	38.06
377.003	33.96
377.214	31.91
377.424	72.87
377.635	66.73
377.845	54.44
378.055	150.7
378.266	44.2
378.476	50.35
378.686	76.97
378.897	126.12
379.107	138.41
379.317	46.25
379.528	105.64
379.738	50.35
379.948	-2.9
380.158	74.92
380.369	89.26
380.579	105.64
380.789	29.87
380.999	48.3
381.21	134.31
381.42	97.45
381.63	42.15
381.84	99.5
382.05	99.5
382.261	31.91
382.471	83.11
382.681	132.26
382.891	150.7
383.101	72.87
383.311	54.44
383.521	5.29
383.731	72.87
383.941	93.35
384.151	40.11
384.361	140.46
384.571	79.02
384.781	83.11
384.991	72.87
385.201	105.64
385.411	126.12
385.621	66.73
385.831	52.39
386.041	52.39
386.251	56.49
386.461	115.88
386.671	109.74
386.881	105.64
387.091	76.97
387.301	117.93
387.511	68.78
387.72	74.92
387.93	66.73
388.14	66.73
388.35	3.24
388.56	119.98
388.769	13.48
388.979	72.87
389.189	19.63
389.399	68.78
389.609	15.53
389.818	154.79
390.028	79.02
390.238	66.73
390.447	152.74
390.657	52.39
390.867	-35.67
391.076	48.3
391.286	56.49
391.496	33.96
391.705	70.83
391.915	187.56
392.125	124.07
392.334	91.31
392.544	138.41
392.753	62.63
392.963	50.35
393.172	76.97
393.382	171.18
393.591	122.02
393.801	15.53
394.01	101.55
394.22	60.59
394.429	70.83
394.639	93.35
394.848	115.88
395.058	29.87
395.267	89.26
395.477	103.59
395.686	54.44
395.895	154.79
396.105	119.98
396.314	62.63
396.524	79.02
396.733	156.84
396.942	140.46
397.152	81.07
397.361	111.78
397.57	128.17
397.78	152.74
397.989	33.96
398.198	111.78
398.407	74.92
398.617	62.63
398.826	91.31
399.035	85.16
399.244	95.4
399.453	93.35
399.663	169.13
399.872	201.9
400.081	115.88
400.29	72.87
400.499	66.73
400.708	162.98
400.917	66.73
401.127	105.64
401.336	179.37
401.545	175.27
401.754	56.49
401.963	107.69
402.172	134.31
402.381	165.03
402.59	146.6
402.799	117.93
403.008	136.36
403.217	81.07
403.426	109.74
403.635	105.64
403.844	162.98
404.053	132.26
404.262	103.59
404.471	208.04
404.68	226.47
404.888	210.09
405.097	74.92
405.306	165.03
405.515	216.23
405.724	173.22
405.933	201.9
406.142	220.33
406.35	242.85
406.559	183.46
406.768	201.9
406.977	271.53
407.185	160.94
407.394	199.85
407.603	169.13
407.812	214.18
408.02	216.23
408.229	228.52
408.438	275.62
408.646	285.86
408.855	287.91
409.064	234.66
409.272	257.19
409.481	275.62
409.69	322.73
409.898	361.64
410.107	375.97
410.315	384.16
410.524	304.29
410.733	361.64
410.941	455.84
411.15	474.28
411.358	431.27
411.567	408.74
411.775	439.46
411.984	433.32
412.192	464.04
412.401	443.56
412.609	502.95
412.818	537.76
413.026	488.61
413.234	599.2
413.443	625.83
413.651	548
413.86	588.96
414.068	648.35
414.276	681.12
414.485	674.98
414.693	658.59
414.901	769.18
415.11	720.03
415.318	804
415.526	715.94
415.734	849.05
415.943	842.91
416.151	918.68
416.359	916.64
416.567	879.77
416.776	1023.13
416.984	1039.51
417.192	1010.84
417.4	963.74
417.608	1078.43
417.817	1094.81
418.025	1160.34
418.233	1297.56
418.441	1240.22
418.649	1244.31
418.857	1410.2
419.065	1389.72
419.273	1420.44
419.481	1473.68
419.689	1528.98
419.897	1610.9
420.105	1660.05
420.313	1741.97
420.521	1758.35
420.729	1735.82
420.937	1737.87
421.145	1868.94
421.353	2000.01
421.561	2022.54
421.769	2200.71
421.977	2124.94
422.185	2143.37
422.393	2313.35
422.601	2546.82
422.809	2253.96
423.017	2555.01
423.224	2663.55
423.432	2665.6
423.64	2751.62
423.848	2950.27
424.056	2882.69
424.263	3144.83
424.471	2989.18
424.679	3220.6
424.887	3228.79
425.094	3398.77
425.302	3433.59
425.51	3560.56
425.718	3714.16
425.925	3744.88
426.133	3832.94
426.341	4011.12
426.548	4244.59
426.756	4260.97
426.964	4224.11
427.171	4529.25
427.379	4619.36
427.586	4889.7
427.794	4865.12
428.001	5094.49
428.209	5385.3
428.417	5207.13
428.624	5411.93
428.832	5715.03
429.039	5532.76
429.247	5416.02
429.454	6159.44
429.662	6478.92
429.869	6063.18
430.076	6603.85
430.284	6366.28
430.491	6585.41
430.699	6974.53
430.906	6851.65
431.114	7128.13
431.321	7291.96
431.528	7611.45
431.736	8111.15
431.943	8580.14
432.15	8336.43
432.358	8197.17
432.565	8809.51
432.772	8541.22
432.979	9090.08
433.187	9200.67
433.394	9409.56
433.601	9956.37
433.808	9903.12
434.016	10007.57
434.223	10333.2
434.43	10904.58
434.637	10681.35
434.844	11430.91
435.052	11484.16
435.259	11580.41
435.466	11717.62
435.673	11584.51
435.88	12311.53
436.087	12880.87
436.294	12940.26
436.501	12645.35
436.708	12905.45
436.915	13267.94
437.122	13939.67
437.329	14031.83
437.537	14539.72
437.743	14934.98
437.95	14523.34
438.157	15227.84
438.364	15809.47
438.571	15647.68
438.778	15737.79
438.985	17499.04
439.192	16790.44
439.399	17210.28
439.606	16880.55
439.813	17779.61
440.02	18736.01
440.227	18391.95
440.433	18451.35
440.64	19063.69
440.847	18871.18
441.054	19682.17
441.261	20749.17
441.467	20378.48
441.674	20654.96
441.881	21160.81
442.088	21173.1
442.294	21308.26
442.501	21721.95
442.708	22188.89
442.914	23331.65
443.121	24312.63
443.328	23522.12
443.534	25389.86
443.741	24664.88
443.948	23870.27
444.154	26069.79
444.361	25662.24
444.568	26014.49
444.774	26114.84
444.981	26307.35
445.187	26774.29
445.394	28087.04
445.6	28027.65
445.807	30515.93
446.013	29297.39
446.22	29811.43
446.426	30999.25
446.633	31374.03
446.839	31791.81
447.046	30876.37
447.252	32545.47
447.459	32850.61
447.665	32834.23
447.871	34097.83
448.078	35375.76
448.284	33960.61
448.491	34787.99
448.697	36102.79
448.903	36379.26
449.11	36799.1
449.316	36145.8
449.522	37175.92
449.728	38113.89
449.935	38212.2
450.141	38257.25
450.347	39187.03
450.553	37876.33
450.76	38316.64
450.966	39369.3
451.172	39440.98
451.378	40100.42
451.584	39338.58
451.791	40337.99
451.997	40149.57
452.203	40604.22
452.409	41384.5
452.615	40804.92
452.821	39127.64
453.027	38933.08
453.233	40542.78
453.44	39670.35
453.646	39709.26
453.852	40387.14
454.058	40454.72
454.264	39502.42
454.47	39656.01
454.676	39062.1
454.882	40766.01
455.088	36948.6
455.294	37526.13
455.5	38433.38
455.705	38605.41
455.911	37171.83
456.117	36571.77
456.323	36004.49
456.529	34038.44
456.735	35566.22
456.941	34523.8
457.147	34153.12
457.352	33358.51
457.558	32867
457.764	32901.81
457.97	32187.07
458.176	31281.87
458.381	31795.91
458.587	29809.38
458.793	30116.58
458.999	28246.78
459.204	30323.42
459.41	29977.31
459.616	27785.99
459.821	27575.05
460.027	27677.44
460.233	26962.7
460.438	25621.28
460.644	25971.49
460.85	24701.75
461.055	24566.58
461.261	24568.63
461.466	22698.83
461.672	21795.68
461.878	23345.99
462.083	21971.8
462.289	21445.48
462.494	21257.06
462.7	20472.69
462.905	19866.49
463.111	20509.55
463.316	20401.01
463.522	20118.39
463.727	20353.91
463.932	20091.77
464.138	19860.35
464.343	20005.75
464.549	19583.87
464.754	19946.36
464.959	19481.47
465.165	19604.35
465.37	18783.12
465.575	18350.99
465.781	19231.62
465.986	19510.14
466.191	18406.29
466.397	18178.97
466.602	17040.29
466.807	17808.28
467.012	18148.25
467.218	17716.12
467.423	17660.83
467.628	17867.67
467.833	18408.34
468.038	17793.95
468.244	17288.1
468.449	17976.22
468.654	17449.89
468.859	16933.8
469.064	17370.02
469.269	16495.53
469.474	16765.87
469.679	16903.08
469.885	16540.59
470.09	16710.57
470.295	16853.93
470.5	16247.73
470.705	16360.37
470.91	15909.82
471.115	16047.03
471.32	15958.97
471.525	15948.73
471.73	15717.31
471.935	15522.75
472.139	15041.48
472.344	15264.71
472.549	15070.15
472.754	14967.75
472.959	14580.68
473.164	14171.09
473.369	14275.54
473.574	14750.67
473.778	14357.46
473.983	14181.33
474.188	14541.77
474.393	13657.05
474.598	13773.78
474.802	13603.8
475.007	13530.08
475.212	13525.98
475.417	13048.8
475.621	13126.63
475.826	13210.59
476.031	13003.75
476.235	12626.92
476.44	12626.92
476.645	12530.67
476.849	12626.92
477.054	12479.47
477.259	12215.28
477.463	12207.09
477.668	11764.73
477.872	12012.53
478.077	11686.9
478.282	11422.72
478.486	11396.09
478.691	11435
478.895	11480.06
479.1	11271.17
479.304	11371.52
479.509	10978.31
479.713	11219.97
479.918	10824.71
480.122	10707.98
480.326	10980.36
480.531	11064.32
480.735	10804.23
480.94	10753.03
481.144	11207.68
481.348	10552.33
481.553	10583.05
481.757	10509.32
481.961	10611.72
482.166	10701.83
482.37	10585.1
482.574	10441.74
482.778	10505.23
482.983	10742.79
483.187	10585.1
483.391	10525.71
483.595	10390.54
483.8	10347.53
484.004	10320.91
484.208	10658.82
484.412	10537.99
484.616	10427.4
484.821	10466.31
485.025	10300.43
485.229	10515.47
485.433	10368.01
485.637	10413.07
485.841	10382.35
486.045	10267.66
486.249	10529.8
486.453	10429.45
486.657	10322.96
486.861	10572.81
487.065	10175.5
487.269	10482.7
487.473	10210.32
487.677	10503.18
487.881	10748.93
488.085	10537.99
488.289	10591.24
488.493	10308.62
488.697	10558.47
488.901	10603.53
489.105	10529.8
489.309	10750.98
489.512	10566.67
489.716	10877.96
489.92	10624.01
490.124	10464.27
490.328	10724.36
490.531	10587.15
490.735	10714.12
490.939	10769.41
491.143	10712.07
491.346	10947.59
491.55	10994.69
491.754	10834.95
491.958	11049.99
492.161	11064.32
492.365	11076.61
492.569	11090.95
492.772	11054.08
492.976	11127.81
493.18	11254.78
493.383	11273.21
493.587	11400.19
493.79	11402.24
493.994	11240.45
494.197	11488.25
494.401	11668.47
494.605	11541.5
494.808	11709.43
495.012	11936.76
495.215	11938.8
495.419	11838.45
495.622	11779.06
495.825	11990
496.029	12155.89
496.232	12504.04
496.436	12235.76
496.639	12712.94
496.843	12653.55
497.046	12909.54
497.249	13044.71
497.453	13032.42
497.656	13214.69
497.859	13300.7
498.063	13358.05
498.266	13763.54
498.469	13507.55
498.673	13515.74
498.876	13966.29
499.079	14001.11
499.282	14048.21
499.485	14529.48
499.689	14592.97
499.892	14734.28
500.095	14552.01
500.298	15004.61
500.501	14912.46
500.705	15301.57
500.908	15496.13
501.111	15512.51
501.314	15621.05
501.517	16022.45
501.72	16059.32
501.923	16292.79
502.126	16610.22
502.329	16655.28
502.532	16815.02
502.735	16808.87
502.938	17058.73
503.141	17107.88
503.344	17533.86
503.547	17390.5
503.75	17800.09
503.953	18103.19
504.156	18346.9
504.359	18455.44
504.562	18824.08
504.765	18817.93
504.968	18920.33
505.17	19331.97
505.373	19413.89
505.576	19747.71
505.779	19676.03
505.982	19733.37
506.185	20499.31
506.387	20558.7
506.59	20818.8
506.793	21244.77
506.996	20822.89
507.198	21683.04
507.401	21447.52
507.604	21826.4
507.807	22129.5
508.009	22508.37
508.212	22422.36
508.415	22659.92
508.617	22874.96
508.82	23178.06
509.022	23057.23
509.225	23747.39
509.428	24052.54
509.63	24105.79
509.833	24232.76
510.035	24607.54
510.238	24578.87
510.44	24984.37
510.643	25307.94
510.845	25623.33
511.048	25379.62
511.25	25819.94
511.453	25975.58
511.655	26917.65
511.858	26288.92
512.06	26911.5
512.262	27237.13
512.465	27194.12
512.667	27398.92
512.87	28338.94
513.072	27966.21
513.274	28449.53
513.477	28752.63
513.679	29070.06
513.881	29293.29
514.084	29440.75
514.286	29604.58
514.488	29618.92
514.69	30505.69
514.893	30464.73
515.095	30532.31
515.297	31046.35
515.499	31384.27
515.701	31081.17
515.904	31931.08
516.106	32121.54
516.308	32334.53
516.51	32727.74
516.712	32617.14
516.914	32879.28
517.116	33518.25
517.318	33751.72
517.52	33807.01
517.722	34347.68
517.925	34382.49
518.127	34714.26
518.329	35248.78
518.531	35132.05
518.733	35717.77
518.935	35605.13
519.136	35615.37
519.338	36473.47
519.54	36754.04
519.742	37065.33
519.944	37065.33
520.146	37554.8
520.348	37845.61
520.55	37880.42
520.752	38150.76
520.954	39117.4
521.155	38341.22
521.357	39107.16
521.559	39447.12
521.761	39533.14
521.963	39795.28
522.164	40038.98
522.366	40362.56
522.568	40356.42
522.77	40456.77
522.971	41361.97
523.173	40753.72
523.375	41325.11
523.576	41603.63
523.778	41853.48
523.98	42019.37
524.181	42392.1
524.383	42506.79
524.584	42910.24
524.786	42684.96
524.988	43145.75
525.189	43227.67
525.391	43604.5
525.592	43477.52
525.794	43733.52
525.995	44042.76
526.197	43799.05
526.398	44425.73
526.6	44521.99
526.801	44739.07
527.003	45052.41
527.204	44900.86
527.406	45158.91
527.607	45103.61
527.808	45617.65
528.01	44960.25
528.211	45537.78
528.412	46008.81
528.614	45486.58
528.815	45978.09
529.016	46531.04
529.218	46123.5
529.419	46412.26
529.62	46432.74
529.822	46244.33
530.023	46555.62
530.224	46758.37
530.425	46684.64
530.626	46309.86
530.828	46320.1
531.029	46997.98
531.23	46406.12
531.431	47006.17
531.632	46995.93
531.833	47344.09
532.035	47145.44
532.236	46805.47
532.437	47745.49
532.638	47153.63
532.839	46903.77
533.04	47729.11
533.241	47040.99
533.442	47522.26
533.643	47567.32
533.844	47284.7
534.045	47548.89
534.246	47139.29
534.447	47342.04
534.648	47360.47
534.849	47512.02
535.05	47270.36
535.251	47907.28
535.451	47229.4
535.652	47981.01
535.853	47446.49
536.054	47577.56
536.255	47598.04
536.456	47407.58
536.657	48292.3
536.857	47383
537.058	47223.26
537.259	47735.25
537.46	47923.66
537.66	47407.58
537.861	47981.01
538.062	47663.57
538.263	47698.39
538.463	47575.51
538.664	47827.41
538.865	47659.48
539.065	47778.26
539.266	47462.87
539.466	48204.24
539.667	47311.32
539.868	48449.99
540.068	47911.38
540.269	47614.42
540.469	47647.19
540.67	47552.98
540.87	47456.73
541.071	47432.15
541.271	47403.48
541.472	47561.17
541.672	47546.84
541.873	47577.56
542.073	46891.49
542.274	47278.55
542.474	47249.88
542.675	47483.35
542.875	48011.73
543.075	47487.45
543.276	47270.36
543.476	47874.51
543.676	47159.77
543.877	47440.34
544.077	47159.77
544.277	47639
544.478	47290.84
544.678	47426.01
544.878	47651.28
545.078	47374.81
545.279	47100.38
545.479	47325.66
545.679	47520.21
545.879	47557.08
546.079	47018.46
546.28	47174.11
546.48	47563.22
546.68	47421.91
546.88	47430.1
547.08	47503.83
547.28	47608.28
547.48	47079.9
547.68	46954.97
547.88	47303.13
548.081	47290.84
548.281	47069.66
548.481	46309.86
548.681	47442.39
548.881	47321.56
549.081	46883.3
549.28	47333.85
549.48	47538.65
549.68	47022.56
549.88	47831.5
550.08	46938.59
550.28	47555.03
550.48	46868.96
550.68	47827.41
550.88	46979.55
551.08	47313.37
551.279	46766.56
551.479	46983.65
551.679	46905.82
551.879	46871.01
552.079	47239.64
552.278	46907.87
552.478	47180.25
552.678	47075.8
552.878	47202.78
553.077	46985.69
553.277	46316.01
553.477	47491.54
553.676	46635.49
553.876	46629.35
554.076	46752.23
554.275	46676.45
554.475	46295.53
554.674	47124.96
554.874	46737.89
555.074	46244.33
555.273	46825.95
555.473	46961.12
555.672	46178.79
555.872	46426.6
556.071	46514.66
556.271	46924.25
556.47	46375.4
556.67	45830.64
556.869	46074.35
557.068	46625.25
557.268	46035.44
557.467	46244.33
557.667	46316.01
557.866	46252.52
558.065	46115.31
558.265	46047.72
558.464	45646.32
558.663	46318.06
558.863	45357.56
559.062	46383.59
559.261	45890.03
559.461	46277.1
559.66	45605.36
559.859	45933.04
560.058	45236.73
560.258	45734.38
560.457	45203.96
560.656	45867.5
560.855	45212.15
561.054	45736.43
561.253	45289.98
561.453	45199.86
561.652	45285.88
561.851	45246.97
562.05	45339.13
562.249	44470.79
562.448	45507.06
562.647	44837.37
562.846	44728.83
563.045	44878.33
563.244	44216.84
563.443	45246.97
563.642	44278.28
563.841	44526.08
564.04	44335.62
564.239	44845.57
564.438	44288.52
564.637	44581.38
564.836	44286.47
565.035	44300.81
565.234	44272.14
565.432	43776.53
565.631	43803.15
565.83	44151.3
566.029	43831.82
566.228	43545.11
566.427	43608.59
566.625	43745.81
566.824	43510.29
567.023	43637.26
567.222	42721.82
567.42	43717.14
567.619	43428.37
567.818	43006.49
568.016	42721.82
568.215	43637.26
568.414	42959.39
568.612	43352.6
568.811	42721.82
569.01	43141.66
569.208	42494.5
569.407	42871.32
569.605	42240.55
569.804	42906.14
570.002	42187.3
570.201	42439.2
570.4	42312.23
570.598	42146.34
570.797	41781.81
570.995	41734.7
571.193	41253.43
571.392	41953.83
571.59	41419.31
571.789	41493.04
571.987	41730.61
572.186	41894.44
572.384	41388.6
572.582	41536.05
572.781	41724.46
572.979	41124.41
573.177	40993.34
573.376	41185.85
573.574	40940.09
573.772	40966.71
573.971	40698.43
574.169	40516.16
574.367	40301.12
574.565	40761.92
574.763	40116.81
574.962	40608.32
575.16	39797.32
575.358	40530.5
575.556	39625.29
575.754	40522.3
575.952	39803.47
576.151	40016.46
576.349	39301.71
576.547	39631.44
576.745	39445.07
576.943	39502.42
577.141	39483.98
577.339	39563.85
577.537	39252.56
577.735	39299.67
577.933	38881.88
578.131	39019.1
578.329	38994.52
578.527	38681.18
578.725	38863.45
578.923	39133.78
579.121	38580.83
579.319	38353.51
579.516	38470.24
579.714	38636.13
579.912	38025.83
580.11	38079.08
580.308	38439.52
580.506	38173.28
580.704	37593.71
580.901	37995.11
581.099	38117.99
581.297	37569.13
581.495	37390.96
581.692	37591.66
581.89	37139.06
582.088	37436.02
582.285	37208.69
582.483	37110.39
582.681	37106.29
582.878	36960.89
583.076	36635.26
583.274	37122.68
583.471	36342.4
583.669	36747.9
583.866	36434.56
584.064	36751.99
584.262	35830.41
584.459	36473.47
584.657	36172.42
584.854	36557.44
585.052	35795.59
585.249	36029.06
585.447	36246.15
585.644	35412.62
585.841	35738.25
586.039	35889.8
586.236	35527.31
586.434	35685
586.631	35238.54
586.828	35095.19
587.026	35459.73
587.223	34968.21
587.42	35072.66
587.618	34871.96
587.815	34693.79
588.012	34544.28
588.21	34605.72
588.407	34949.78
588.604	34501.28
588.801	34245.28
588.999	34196.13
589.196	34435.74
589.393	34214.56
589.59	33993.38
589.787	33723.05
589.984	33700.52
590.182	33315.5
590.379	33882.79
590.576	33225.39
590.773	33436.33
590.97	33612.46
591.167	33419.95
591.364	32879.28
591.561	33364.65
591.758	32733.88
591.955	32924.34
592.152	33008.31
592.349	32584.38
592.546	32998.07
592.743	32697.02
592.94	32373.44
593.137	32441.02
593.334	32385.72
593.531	32025.28
593.727	32004.8
593.924	32223.93
594.121	31761.09
594.318	32066.24
594.515	31394.51
594.712	31972.03
594.908	31900.36
595.105	31652.55
595.302	31357.64
595.499	31251.15
595.696	30984.91
595.892	31163.09
596.089	31115.98
596.286	31259.34
596.482	30917.33
596.679	30960.34
596.876	30806.74
597.072	30624.47
597.269	30843.6
597.466	30626.52
597.662	30382.81
597.859	30718.68
598.055	30280.41
598.252	30188.25
598.448	30495.45
598.645	30108.38
598.841	29823.72
599.038	30005.98
599.234	30296.8
599.431	29532.9
599.627	29573.86
599.824	29313.77
600.02	29459.18
600.217	29223.66
600.413	29518.57
600.609	28963.57
600.806	29401.83
601.002	29106.93
601.198	28715.76
601.395	28721.91
601.591	28293.88
601.787	28953.33
601.984	28596.98
602.18	28760.82
602.376	28609.27
602.572	28291.83
602.769	28265.21
602.965	27865.86
603.161	27849.47
603.357	27951.87
603.553	27673.35
603.75	27929.34
603.946	27843.33
604.142	27831.04
604.338	27382.54
604.534	27339.53
604.73	27357.96
604.926	27192.08
605.122	27446.02
605.318	27398.92
605.514	27095.82
605.71	26927.89
605.906	26946.32
606.102	26807.06
606.298	26903.31
606.494	26946.32
606.69	26977.04
606.886	26774.29
607.082	26682.13
607.278	27009.81
607.474	26170.14
607.67	26438.42
607.866	26139.42
608.062	26641.17
608.257	26616.6
608.453	26172.19
608.649	26182.43
608.845	25785.12
609.041	26252.06
609.236	25862.94
609.432	25973.53
609.628	26039.07
609.824	25811.74
610.019	25494.31
610.215	25637.67
610.411	25561.89
610.606	25518.89
610.802	25535.27
610.998	25641.76
611.193	25490.21
611.389	25664.29
611.584	25209.64
611.78	25160.49
611.976	25156.39
612.171	25230.12
612.367	25326.38
612.562	25240.36
612.758	24924.97
612.953	24777.52
613.149	25140.01
613.344	24654.64
613.539	25363.24
613.735	24834.86
613.93	24857.39
614.126	24949.55
614.321	25324.33
614.517	24902.45
614.712	24730.42
614.907	24603.44
615.103	24754.99
615.298	24771.38
615.493	24859.44
615.688	24224.57
615.884	24761.14
616.079	24363.83
616.274	24519.48
616.47	24597.3
616.665	24412.98
616.86	24298.3
617.055	23993.15
617.25	24165.18
617.445	24396.6
617.641	23622.47
617.836	24177.47
618.031	23937.85
618.226	23978.81
618.421	23743.3
618.616	23688
618.811	23247.69
619.006	24054.59
619.201	23577.41
619.396	23489.35
619.591	23219.02
619.786	23413.57
619.981	22965.07
620.176	23208.78
620.371	23089.99
620.566	22940.49
620.761	22885.2
620.956	23079.75
621.151	22614.87
621.346	22678.35
621.541	22584.15
621.735	22862.67
621.93	22057.82
622.125	22287.19
622.32	21848.93
622.515	22190.94
622.709	21949.28
622.904	21912.41
623.099	21652.32
623.294	21539.68
623.488	21212.01
623.683	21586.79
623.878	20953.96
624.072	21508.96
624.267	21097.32
624.462	20853.61
624.656	20693.87
624.851	20618.1
625.046	20654.96
625.24	20247.41
625.435	20360.05
625.629	20261.75
625.824	19776.38
626.018	19835.77
626.213	19686.27
626.407	19563.39
626.602	19551.1
626.796	19587.97
626.991	19766.14
627.185	19491.71
627.38	19192.71
627.574	19350.4
627.768	19067.78
627.963	18983.82
628.157	18715.53
628.352	18772.88
628.546	18592.65
628.74	18668.43
628.935	18553.74
629.129	18553.74
629.323	18256.79
629.517	18209.68
629.712	18215.83
629.906	17933.21
630.1	17773.47
630.294	18060.18
630.489	17599.39
630.683	18011.03
630.877	17484.7
631.071	17288.1
631.265	17232.8
631.459	17349.54
631.653	17265.57
631.848	16939.94
632.042	17071.01
632.236	17286.05
632.43	16696.24
632.624	16907.18
632.818	16866.22
633.012	16530.35
633.206	16475.06
633.4	16405.42
633.594	16350.13
633.788	16425.9
633.982	15958.97
634.176	15954.87
634.369	15938.49
634.563	15801.27
634.757	15797.18
634.951	16024.5
635.145	15799.23
635.339	15872.95
635.533	15352.77
635.726	15580.09
635.92	15467.45
636.114	15446.97
636.308	15256.51
636.501	15360.96
636.695	15162.31
636.889	14992.33
637.083	15010.76
637.276	14924.74
637.47	14728.14
637.664	14760.91
637.857	14664.65
638.051	14707.66
638.244	14330.83
638.438	14582.73
638.632	14406.61
638.825	14468.05
639.019	14193.62
639.212	13884.37
639.406	13915.09
639.599	14031.83
639.793	14052.31
639.986	13628.38
640.18	13880.28
640.373	13552.6
640.567	13646.81
640.76	13720.54
640.954	13556.7
641.147	13583.32
641.34	13149.15
641.534	13263.84
641.727	13190.11
641.92	13243.36
642.114	13171.68
642.307	12909.54
642.5	12911.59
642.694	12626.92
642.887	12829.67
643.08	12714.98
643.273	12622.83
643.467	12798.95
643.66	12526.57
643.853	12532.72
644.046	12223.47
644.239	12272.62
644.432	12473.32
644.626	12301.29
644.819	11998.2
645.012	12114.93
645.205	12231.66
645.398	12223.47
645.591	11893.75
645.784	12043.25
645.977	11439.1
646.17	11854.84
646.363	11402.24
646.556	11596.79
646.749	11480.06
646.942	11578.36
647.135	11445.24
647.328	11381.76
647.521	11396.09
647.714	11052.03
647.907	11228.16
648.099	11041.79
648.292	11004.93
648.485	11013.12
648.678	10892.29
648.871	10806.28
649.064	10898.44
649.256	10839.05
649.449	10736.65
649.642	10638.34
649.835	10753.03
650.027	10419.21
650.22	10425.36
650.413	10322.96
650.605	10404.88
650.798	10249.23
650.991	10234.89
651.183	10204.17
651.376	10112.02
651.568	10159.12
651.761	10185.74
651.954	10064.91
652.146	9896.98
652.339	9876.5
652.531	9755.67
652.724	9788.44
652.916	9978.9
653.109	9620.5
653.301	9542.68
653.494	9536.54
653.686	9485.34
653.879	9430.04
654.071	9538.59
654.263	9411.61
654.456	9548.82
654.648	9514.01
654.84	9231.39
655.033	9229.34
655.225	8975.39
655.417	9301.02
655.61	9145.38
655.802	9049.12
655.994	9022.5
656.186	8848.42
656.379	8895.52
656.571	9053.22
656.763	8733.73
656.955	8717.35
657.148	8756.26
657.34	8655.91
657.532	8555.56
657.724	8530.98
657.916	8686.63
658.108	8422.44
658.3	8264.75
658.492	8573.99
658.684	8258.6
658.876	8449.07
659.068	8297.52
659.26	8252.46
659.452	8156.21
659.644	8119.34
659.836	8248.36
660.028	8248.36
660.22	7830.58
660.412	7947.31
660.604	7898.16
660.796	7828.53
660.988	7955.51
661.18	7844.91
661.372	7949.36
661.563	7834.68
661.755	7654.45
661.947	7685.17
662.139	7654.45
662.331	7660.6
662.522	7670.84
662.714	7685.17
662.906	7515.19
663.097	7392.31
663.289	7283.77
663.481	7357.5
663.673	7414.84
663.864	7195.71
664.056	7242.81
664.247	7316.54
664.439	7189.56
664.631	7027.78
664.822	7248.96
665.014	7033.92
665.205	6964.29
665.397	6962.24
665.588	7023.68
665.78	7076.93
665.971	6859.84
666.163	6868.03
666.354	6847.55
666.546	6771.78
666.737	6743.11
666.929	6771.78
667.12	6730.82
667.311	6753.35
667.503	6622.28
667.694	6636.61
667.885	6552.65
668.077	6542.41
668.268	6462.54
668.459	6505.54
668.651	6575.17
668.842	6374.47
669.033	6235.21
669.224	6433.86
669.416	6493.26
669.607	6534.21
669.798	6255.69
669.989	6284.36
670.18	6251.6
670.371	6104.14
670.563	6136.91
670.754	6147.15
670.945	6036.56
671.136	6235.21
671.327	6046.8
671.518	6171.72
671.709	5989.46
671.9	6108.24
672.091	5946.45
672.282	5950.54
672.473	5899.34
672.664	5973.07
672.855	5809.23
673.046	5856.34
673.237	5708.88
673.428	5815.38
673.619	5911.63
673.809	5872.72
674	5772.37
674.191	5905.49
674.382	5780.56
674.573	5747.79
674.764	5678.16
674.954	5561.43
675.145	5596.25
675.336	5659.73
675.527	5651.54
675.717	5549.14
675.908	5657.68
676.099	5676.12
676.289	5424.22
676.48	5497.94
676.671	5602.39
676.861	5524.57
677.052	5356.63
677.243	5422.17
677.433	5393.5
677.624	5493.85
677.814	5387.35
678.005	5473.37
678.195	5352.54
678.386	5403.74
678.576	5094.49
678.767	5413.98
678.957	5293.15
679.148	5225.56
679.338	5268.57
679.529	5102.68
679.719	5164.12
679.909	5135.45
680.1	5049.44
680.29	5194.84
680.481	5170.27
680.671	5028.96
680.861	5063.77
681.052	5155.93
681.242	5170.27
681.432	5164.12
681.622	5131.36
681.813	4967.52
682.003	5123.16
682.193	5022.81
682.383	4990.05
682.573	4951.14
682.764	4957.28
682.954	4852.83
683.144	4809.83
683.334	4930.66
683.524	4867.17
683.714	4936.8
683.904	4869.22
684.094	5000.29
684.284	4799.59
684.474	4861.02
684.664	4770.91
684.854	4777.06
685.044	4637.8
685.234	4662.37
685.424	4668.52
685.614	4750.43
685.804	4689
685.994	4686.95
686.184	4711.52
686.374	4607.08
686.564	4678.76
686.753	4813.92
686.943	4613.22
687.133	4666.47
687.323	4768.87
687.513	4600.93
687.702	4543.59
687.892	4539.49
688.082	4369.51
688.272	4502.63
688.461	4551.78
688.651	4385.9
688.841	4523.11
689.03	4408.42
689.22	4387.94
689.41	4377.7
689.599	4367.46
689.789	4338.79
689.979	4224.11
690.168	4207.72
690.358	4236.39
690.547	4156.52
690.737	4318.31
690.926	4324.46
691.116	4000.88
691.305	4232.3
691.495	4131.95
691.684	4113.52
691.874	4168.81
692.063	4068.46
692.252	4117.61
692.442	4056.17
692.631	4082.8
692.82	4007.02
693.01	4129.9
693.199	3947.63
693.388	3912.81
693.578	4035.69
693.767	3998.83
693.956	3900.53
694.146	3751.03
694.335	3769.46
694.524	4031.6
694.713	3816.56
694.902	3888.24
695.092	3765.36
695.281	3822.7
695.47	3869.81
695.659	3804.27
695.848	3898.48
696.037	3781.74
696.226	3742.83
696.415	3873.9
696.604	3873.9
696.793	3685.49
696.982	3802.22
697.171	3869.81
697.36	3691.63
697.549	3712.11
697.738	3626.1
697.927	3683.44
698.116	3714.16
698.305	3640.44
698.494	3685.49
698.683	3568.76
698.872	3710.07
699.061	3548.28
699.25	3585.14
699.438	3576.95
699.627	3587.19
699.816	3527.8
700.005	3583.09
700.193	3613.81
700.382	3634.29
700.571	3566.71
700.76	3609.72
700.948	3703.92
701.137	3601.52
701.326	3617.91
701.514	3535.99
701.703	3431.54
701.892	3562.61
702.08	3566.71
702.269	3593.33
702.457	3511.41
702.646	3394.68
702.834	3476.6
703.023	3396.73
703.212	3421.3
703.4	3437.69
703.589	3507.32
703.777	3558.52
703.965	3439.73
704.154	3581.04
704.342	3490.93
704.531	3486.84
704.719	3378.3
704.907	3464.31
705.096	3531.89
705.284	3327.1
705.472	3447.93
705.661	3501.17
705.849	3478.65
706.037	3568.76
706.226	3417.21
706.414	3374.2
706.602	3425.4
706.79	3478.65
706.979	3355.77
707.167	3333.24
707.355	3433.59
707.543	3271.8
707.731	3429.49
707.919	3544.18
708.107	3275.9
708.296	3490.93
708.484	3320.95
708.672	3300.47
708.86	3300.47
709.048	3320.95
709.236	3175.55
709.424	3296.38
709.612	3323
709.8	3384.44
709.988	3351.67
710.176	3359.86
710.364	3347.58
710.551	3359.86
710.739	3159.16
710.927	3325.05
711.115	3273.85
711.303	3259.51
711.491	3222.65
711.679	3355.77
711.866	3245.18
712.054	3386.49
712.242	3251.32
712.43	3447.93
712.617	3304.57
712.805	3419.25
712.993	3306.62
713.181	3150.97
713.368	3185.79
713.556	3191.93
713.744	3312.76
713.931	3372.15
714.119	3370.1
714.306	3150.97
714.494	3253.37
714.682	3226.75
714.869	3253.37
715.057	3370.1
715.244	3183.74
715.432	3341.43
715.619	3210.36
715.807	3279.99
715.994	3218.55
716.182	3189.88
716.369	3253.37
716.556	3257.46
716.744	3204.22
716.931	3089.53
717.119	3284.09
717.306	3181.69
717.493	3167.35
717.681	3196.03
717.868	3206.27
718.055	3101.82
718.242	3087.48
718.43	3232.89
718.617	3134.59
718.804	3189.88
718.991	3247.23
719.179	3234.94
719.366	3290.23
719.553	3275.9
719.74	3050.62
719.927	3179.64
720.114	3212.41
720.301	3140.73
720.488	3148.92
720.676	3107.96
720.863	3165.31
721.05	3222.65
721.237	3204.22
721.424	3163.26
721.611	3107.96
721.798	3093.63
721.985	3234.94
722.172	3138.68
722.358	3120.25
722.545	3167.35
722.732	3150.97
722.919	3075.2
723.106	2989.18
723.293	3128.44
723.48	3116.16
723.667	3114.11
723.853	3130.49
724.04	3083.39
724.227	3167.35
724.414	3060.86
724.6	3083.39
724.787	3122.3
724.974	3112.06
725.161	3087.48
725.347	2985.09
725.534	3067
725.72	3179.64
725.907	3038.33
726.094	3236.99
726.28	3026.04
726.467	3138.68
726.653	2929.79
726.84	3093.63
727.027	3058.81
727.213	3114.11
727.4	3167.35
727.586	3181.69
727.773	3103.87
727.959	3034.24
728.145	2960.51
728.332	3046.52
728.518	3050.62
728.705	3128.44
728.891	2980.99
729.077	3028.09
729.264	3003.52
729.45	2968.7
729.636	3058.81
729.823	2917.5
730.009	2978.94
730.195	2870.4
730.382	3058.81
730.568	2966.65
730.754	2964.61
730.94	2933.89
731.126	3024
731.313	2942.08
731.499	2991.23
731.685	2950.27
731.871	2970.75
732.057	2983.04
732.243	2923.65
732.429	3015.8
732.615	2968.7
732.801	3019.9
732.987	2888.83
733.173	2999.42
733.359	3005.56
733.545	2845.82
733.731	3062.91
733.917	3030.14
734.103	2876.54
734.289	2790.53
734.475	2862.21
734.661	3003.52
734.847	2882.69
735.033	2978.94
735.219	2876.54
735.404	2948.22
735.59	2931.84
735.776	2784.38
735.962	2745.47
736.148	2854.02
736.333	2991.23
736.519	2770.05
736.705	2839.68
736.89	2903.17
737.076	2931.84
737.262	3052.67
737.447	2788.48
737.633	2849.92
737.819	2817.15
738.004	2821.25
738.19	2755.71
738.375	2815.1
738.561	2933.89
738.747	2819.2
738.932	2790.53
739.118	2847.87
739.303	2825.34
739.489	2751.62
739.674	2784.38
739.859	2794.62
740.045	2710.66
740.23	2761.86
740.416	2733.18
740.601	2714.75
740.786	2741.38
740.972	2718.85
741.157	2665.6
741.342	2720.9
741.528	2649.22
741.713	2706.56
741.898	2647.17
742.084	2651.27
742.269	2735.23
742.454	2681.99
742.639	2692.23
742.824	2659.46
743.01	2606.21
743.195	2626.69
743.38	2614.4
743.565	2505.86
743.75	2587.78
743.935	2448.52
744.12	2518.15
744.305	2516.1
744.49	2448.52
744.675	2577.54
744.86	2407.56
745.045	2487.43
745.23	2460.81
745.415	2358.41
745.6	2395.27
745.785	2481.28
745.97	2411.65
746.155	2483.33
746.34	2407.56
746.525	2458.76
746.71	2464.9
746.895	2286.73
747.079	2329.74
747.264	2401.41
747.449	2425.99
747.634	2450.57
747.819	2417.8
748.003	2354.31
748.188	2241.67
748.373	2284.68
748.557	2174.09
748.742	2176.14
748.927	2163.85
749.111	2174.09
749.296	2192.52
749.481	2225.29
749.665	2231.43
749.85	2221.19
750.034	2155.66
750.219	2208.9
750.404	2112.65
750.588	2045.07
750.773	2034.83
750.957	2000.01
751.141	2059.4
751.326	2096.27
751.51	2077.83
751.695	1969.29
751.879	2034.83
752.064	2030.73
752.248	2028.68
752.432	2016.4
752.617	1940.62
752.801	1897.61
752.985	1979.53
753.17	1768.59
753.354	1883.28
753.538	1803.41
753.722	1787.02
753.907	1764.5
754.091	1813.65
754.275	1809.55
754.459	1832.08
754.643	1711.25
754.828	1780.88
755.012	1776.78
755.196	1811.6
755.38	1666.19
755.564	1846.41
755.748	1731.73
755.932	1658
756.116	1696.91
756.3	1651.86
756.484	1674.39
756.668	1655.95
756.852	1565.84
757.036	1590.42
757.22	1623.19
757.404	1580.18
757.588	1617.04
757.772	1619.09
757.956	1588.37
758.14	1639.57
758.323	1549.46
758.507	1637.52
758.691	1471.64
758.875	1539.22
759.059	1506.45
759.242	1537.17
759.426	1463.44
759.61	1436.82
759.794	1471.64
759.977	1498.26
760.161	1508.5
760.345	1420.44
760.528	1479.83
760.712	1498.26
760.895	1459.35
761.079	1445.01
761.263	1424.53
761.446	1414.29
761.63	1395.86
761.813	1471.64
761.997	1461.4
762.18	1428.63
762.364	1410.2
762.547	1291.41
762.731	1375.38
762.914	1315.99
763.098	1285.27
763.281	1334.42
763.464	1281.18
763.648	1225.88
763.831	1406.1
764.015	1354.9
764.198	1311.89
764.381	1289.37
764.564	1326.23
764.748	1227.93
764.931	1268.89
765.114	1291.41
765.297	1221.78
765.481	1100.95
765.664	1197.21
765.847	1125.53
766.03	1238.17
766.213	1250.46
766.397	1203.35
766.58	1215.64
766.763	1326.23
766.946	1275.03
767.129	1279.13
767.312	1156.25
767.495	1148.06
767.678	1146.01
767.861	1240.22
768.044	1221.78
768.227	1133.72
768.41	1053.85
768.593	1135.77
768.776	1162.39
768.959	1119.39
769.142	1139.87
769.324	1070.23
769.507	1094.81
769.69	1066.14
769.873	1113.24
770.056	1146.01
770.239	1109.15
770.421	1154.2
770.604	1055.9
770.787	984.22
770.97	1084.57
771.152	1096.86
771.335	1031.32
771.518	990.36
771.7	1088.67
771.883	1051.8
772.066	1088.67
772.248	1019.04
772.431	1023.13
772.613	951.45
772.796	1055.9
772.978	998.56
773.161	1062.04
773.343	955.55
773.526	1051.8
773.708	1002.65
773.891	906.4
774.073	918.68
774.256	1008.8
774.438	1025.18
774.621	1002.65
774.803	1064.09
774.985	955.55
775.168	930.97
775.35	871.58
775.532	1014.94
775.715	877.73
775.897	885.92
776.079	910.49
776.261	867.49
776.444	844.96
776.626	902.3
776.808	838.81
776.99	918.68
777.173	801.95
777.355	830.62
777.537	871.58
777.719	816.29
777.901	795.81
778.083	838.81
778.265	812.19
778.447	783.52
778.629	826.53
778.811	822.43
778.993	793.76
779.175	787.61
779.357	847.01
779.539	779.42
779.721	738.46
779.903	763.04
780.085	775.33
780.267	765.09
780.449	754.85
780.631	623.78
780.812	760.99
780.994	734.37
781.176	771.23
781.358	666.78
781.54	654.5
781.721	631.97
781.903	703.65
782.085	670.88
782.267	689.31
782.448	668.83
782.63	693.41
782.812	709.79
782.993	754.85
783.175	556.19
783.357	552.1
783.538	584.87
783.72	656.54
783.901	634.02
784.083	664.74
784.264	607.39
784.446	597.15
784.627	640.16
784.809	574.63
784.99	582.82
785.172	623.78
785.353	576.67
785.535	605.35
785.716	556.19
785.897	609.44
786.079	554.15
786.26	580.77
786.441	513.19
786.623	494.76
786.804	554.15
786.985	574.63
787.167	593.06
787.348	576.67
787.529	584.87
787.71	486.56
787.891	548
788.073	580.77
788.254	443.56
788.435	591.01
788.616	519.33
788.797	476.32
788.978	531.62
789.159	535.71
789.34	427.17
789.522	386.21
789.703	398.5
789.884	541.86
790.065	439.46
790.246	550.05
790.427	384.16
790.607	515.23
790.788	457.89
790.969	533.67
791.15	398.5
791.331	496.8
791.512	363.69
791.693	378.02
791.874	451.75
792.054	453.8
792.235	412.84
792.416	375.97
792.597	441.51
792.778	400.55
792.958	355.49
793.139	423.08
793.32	566.43
793.5	306.34
793.681	433.32
793.862	365.73
794.042	392.36
794.223	361.64
794.404	402.6
794.584	396.45
794.765	398.5
794.945	337.06
795.126	371.88
795.306	365.73
795.487	351.4
795.667	361.64
795.848	351.4
796.028	380.07
796.209	388.26
796.389	386.21
796.57	378.02
796.75	259.24
796.93	416.93
797.111	326.82
797.291	369.83
797.471	371.88
797.652	304.29
797.832	212.14
798.012	328.87
798.192	328.87
798.373	386.21
798.553	330.92
798.733	324.77
798.913	273.57
799.093	304.29
799.274	281.77
799.454	300.2
799.634	429.22
799.814	257.19
799.994	345.25
800.174	306.34
800.354	322.73
800.534	355.49
800.714	361.64
800.894	277.67
801.074	326.82
801.254	214.18
801.434	314.53
801.614	294.05
801.794	302.25
801.974	744.61
802.154	222.38
802.334	322.73
802.514	318.63
802.693	388.26
802.873	251.05
803.053	341.16
803.233	312.49
803.413	271.53
803.592	265.38
803.772	308.39
803.952	287.91
804.131	253.09
804.311	298.15
804.491	275.62
804.67	294.05
804.85	345.25
805.03	189.61
805.209	279.72
805.389	244.9
805.568	263.33
805.748	269.48
805.928	199.85
806.107	265.38
806.287	312.49
806.466	226.47
806.646	287.91
806.825	249
807.004	251.05
807.184	226.47
807.363	224.42
807.543	281.77
807.722	263.33
807.901	308.39
808.081	210.09
808.26	208.04
808.439	175.27
808.619	232.62
808.798	265.38
808.977	253.09
809.156	175.27
809.336	263.33
809.515	257.19
809.694	171.18
809.873	281.77
810.052	236.71
810.231	263.33
810.411	298.15
810.59	167.08
810.769	222.38
810.948	226.47
811.127	130.22
811.306	154.79
811.485	214.18
811.664	265.38
811.843	253.09
812.022	214.18
812.201	152.74
812.38	205.99
812.559	136.36
812.737	259.24
812.916	167.08
813.095	187.56
813.274	203.94
813.453	193.7
813.632	181.42
813.811	218.28
813.989	169.13
814.168	220.33
814.347	165.03
814.526	226.47
814.704	214.18
814.883	175.27
815.062	130.22
815.24	140.46
815.419	115.88
815.598	167.08
815.776	171.18
815.955	232.62
816.133	148.65
816.312	165.03
816.49	148.65
816.669	154.79
816.847	148.65
817.026	191.66
817.204	119.98
817.383	109.74
817.561	126.12
817.74	183.46
817.918	97.45
818.097	222.38
818.275	197.8
818.453	246.95
818.632	99.5
818.81	156.84
818.988	126.12
819.167	160.94
819.345	130.22
819.523	175.27
819.701	128.17
819.879	93.35
820.058	124.07
820.236	193.7
820.414	152.74
820.592	214.18
820.77	130.22
820.948	156.84
821.127	107.69
821.305	205.99
821.483	124.07
821.661	156.84
821.839	177.32
822.017	111.78
822.195	126.12
822.373	162.98
822.551	144.55
822.729	158.89
822.907	162.98
823.085	154.79
823.262	165.03
823.44	187.56
823.618	150.7
823.796	122.02
823.974	134.31
824.152	81.07
824.329	140.46
824.507	201.9
824.685	140.46
824.863	134.31
825.04	132.26
825.218	136.36
825.396	99.5
825.574	111.78
825.751	177.32
825.929	101.55
826.107	83.11
826.284	152.74
826.462	158.89
826.639	134.31
826.817	128.17
826.994	66.73
827.172	113.83
827.349	128.17
827.527	103.59
827.704	99.5
827.882	119.98
828.059	109.74
828.237	70.83
828.414	74.92
828.591	91.31
828.769	160.94
828.946	70.83
829.124	109.74
829.301	76.97
829.478	122.02
829.655	115.88
829.833	89.26
830.01	156.84
830.187	160.94
830.364	89.26
830.542	152.74
830.719	154.79
830.896	81.07
831.073	119.98
831.25	44.2
831.427	122.02
831.604	105.64
831.782	128.17
831.959	119.98
832.136	-2.9
832.313	160.94
832.49	83.11
832.667	44.2
832.844	60.59
833.021	160.94
833.198	62.63
833.374	79.02
833.551	111.78
833.728	148.65
833.905	103.59
834.082	50.35
834.259	91.31
834.436	113.83
834.612	103.59
834.789	83.11
834.966	91.31
835.143	117.93
835.319	173.22
835.496	117.93
835.673	3.24
835.85	146.6
836.026	56.49
836.203	93.35
836.38	105.64
836.556	113.83
836.733	72.87
836.909	146.6
837.086	48.3
837.262	50.35
837.439	-4.95
837.616	68.78
837.792	105.64
837.968	76.97
838.145	52.39
838.321	72.87
838.498	48.3
838.674	93.35
838.851	97.45
839.027	44.2
839.203	124.07
839.38	99.5
839.556	72.87
839.732	17.58
839.909	79.02
840.085	-0.85
840.261	25.77
840.437	46.25
840.614	148.65
840.79	134.31
840.966	72.87
841.142	119.98
841.318	31.91
841.494	109.74
841.671	58.54
841.847	44.2
842.023	83.11
842.199	68.78
842.375	62.63
842.551	64.68
842.727	-0.85
842.903	31.91
843.079	38.06
843.255	1.19
843.431	50.35
843.607	122.02
843.783	-45.91
843.959	48.3
844.134	160.94
844.31	91.31
844.486	60.59
844.662	99.5
844.838	23.72
845.013	76.97
845.189	56.49
845.365	91.31
845.541	50.35
845.716	91.31
845.892	111.78
846.068	68.78
846.244	54.44
846.419	25.77
846.595	29.87
846.77	5.29
846.946	62.63
847.122	87.21
847.297	38.06
847.473	126.12
847.648	-11.09
847.824	74.92
847.999	-0.85
848.175	72.87
848.35	76.97
848.526	124.07
848.701	93.35
848.876	117.93
849.052	64.68
849.227	91.31
849.403	36.01
849.578	99.5
849.753	93.35
849.929	81.07
850.104	74.92
850.279	23.72
850.454	3.24
850.63	91.31
850.805	70.83
850.98	109.74
851.155	66.73
851.33	40.11
851.505	-39.76
851.681	124.07
851.856	54.44
852.031	13.48
852.206	17.58
852.381	70.83
852.556	70.83
852.731	60.59
852.906	52.39
853.081	52.39
853.256	62.63
853.431	11.43
853.606	56.49
853.781	27.82
853.956	70.83
854.131	68.78
854.305	42.15
854.48	58.54
854.655	95.4
854.83	15.53
855.005	66.73
855.18	23.72
855.354	1.19
855.529	101.55
855.704	40.11
855.879	27.82
856.053	31.91
856.228	11.43
856.403	-0.85
856.577	-27.48
856.752	91.31
856.926	76.97
857.101	17.58
857.276	13.48
857.45	36.01
857.625	101.55
857.799	40.11
857.974	11.43
858.148	-9.05
858.323	-11.09
858.497	99.5
858.672	7.34
858.846	36.01
859.02	25.77
859.195	74.92
859.369	19.63
859.543	-52.05
859.718	72.87
859.892	7.34
860.066	60.59
860.241	-54.1
860.415	-11.09
860.589	27.82
860.763	-4.95
860.938	81.07
861.112	66.73
861.286	44.2
861.46	21.67
861.634	89.26
861.808	117.93
861.982	36.01
862.157	-9.05
862.331	60.59
862.505	31.91
862.679	1.19
862.853	89.26
863.027	33.96
863.201	36.01
863.375	58.54
863.549	115.88
863.722	79.02
863.896	36.01
864.07	-33.62
864.244	38.06
864.418	21.67
864.592	60.59
864.766	72.87
864.939	36.01
865.113	33.96
865.287	27.82
865.461	44.2
865.634	-15.19
865.808	83.11
865.982	68.78
866.156	-45.91
866.329	-0.85
866.503	1.19
866.676	27.82
866.85	-0.85
867.024	-11.09
867.197	44.2
867.371	1.19
867.544	19.63
867.718	31.91
867.891	11.43
868.065	-23.38
868.238	5.29
868.412	40.11
868.585	44.2
868.759	29.87
868.932	5.29
869.105	11.43
869.279	21.67
869.452	-4.95
869.625	107.69
869.799	36.01
869.972	79.02
870.145	13.48
870.319	31.91
870.492	111.78
870.665	52.39
870.838	60.59
871.011	-35.67
871.185	66.73
871.358	85.16
871.531	11.43
871.704	29.87
871.877	42.15
872.05	-66.39
872.223	13.48
872.396	-29.52
872.569	48.3
872.742	-68.44
872.915	25.77
873.088	15.53
873.261	-43.86
873.434	31.91
873.607	-33.62
873.78	19.63
873.953	56.49
874.126	62.63
874.299	52.39
874.471	19.63
874.644	17.58
874.817	97.45
874.99	62.63
875.163	-19.29
875.335	42.15
875.508	5.29
875.681	50.35
875.853	1.19
876.026	-7
876.199	109.74
876.371	-2.9
876.544	-7
876.717	23.72
876.889	27.82
877.062	40.11
877.234	93.35
877.407	29.87
877.579	23.72
877.752	-0.85
877.924	25.77
878.097	-9.05
878.269	-11.09
878.442	29.87
878.614	19.63
878.786	42.15
878.959	-29.52
879.131	15.53
879.303	-9.05
879.476	54.44
879.648	101.55
879.82	52.39
879.993	50.35
880.165	5.29
880.337	-7
880.509	29.87
880.681	54.44
880.854	58.54
881.026	38.06
881.198	48.3
881.37	40.11
881.542	3.24
881.714	-13.14
881.886	-52.05
882.058	-23.38
882.23	60.59
882.402	-13.14
882.574	-52.05
882.746	-43.86
882.918	17.58
883.09	36.01
883.262	-9.05
883.434	-11.09
883.606	1.19
883.778	-2.9
883.95	52.39
884.122	46.25
884.293	17.58
884.465	13.48
884.637	11.43
884.809	54.44
884.98	42.15
885.152	58.54
885.324	-7
885.496	64.68
885.667	15.53
885.839	31.91
886.011	17.58
886.182	66.73
886.354	7.34
886.525	-27.48
886.697	68.78
886.869	107.69
887.04	58.54
887.212	54.44
887.383	52.39
887.555	72.87
887.726	-2.9
887.897	-76.63
888.069	15.53
888.24	-9.05
888.412	-2.9
888.583	-9.05
888.754	25.77
888.926	9.39
889.097	-27.48
889.268	-15.19
889.44	44.2
889.611	11.43
889.782	56.49
889.953	-29.52
890.125	52.39
890.296	60.59
890.467	-9.05
890.638	-2.9
890.809	-19.29
890.98	13.48
891.151	-62.29
891.323	29.87
891.494	-7
891.665	66.73
891.836	5.29
892.007	-31.57
892.178	-31.57
892.349	27.82
892.52	17.58
892.691	-13.14
892.862	-9.05
893.032	23.72
893.203	-7
893.374	-11.09
893.545	97.45
893.716	66.73
893.887	33.96
894.057	-35.67
894.228	68.78
894.399	29.87
894.57	40.11
894.74	11.43
894.911	46.25
895.082	-0.85
895.253	17.58
895.423	99.5
895.594	-45.91
895.764	11.43
895.935	-21.33
896.106	23.72
896.276	9.39
896.447	40.11
896.617	-15.19
896.788	21.67
896.958	-7
897.129	-54.1
897.299	21.67
897.47	11.43
897.64	48.3
897.81	-43.86
897.981	48.3
898.151	19.63
898.322	9.39
898.492	52.39
898.662	50.35
898.832	-23.38
899.003	72.87
899.173	-37.72
899.343	-31.57
899.513	31.91
