Data from USB4F104151__67__12-27-44-711.txt Node

Date: Fri Mar 14 12:27:44 EDT 2025
User: louis
Spectrometer: USB4F10415
Trigger mode: 4
Integration Time (sec): 2.000000E-2
Scans to average: 1
Electric dark correction enabled: true
Nonlinearity correction enabled: false
Boxcar width: 0
XAxis mode: Wavelengths
Number of Pixels in Spectrum: 3648
>>>>>Begin Spectral Data<<<<<
178.204	-85.67
178.424	-85.67
178.644	-85.67
178.864	-59.05
179.084	-100.01
179.304	-1.71
179.524	-7.85
179.744	-48.81
179.964	-20.14
180.184	-3.75
180.404	12.63
180.624	6.49
180.844	-13.99
181.064	53.59
181.283	0.34
181.503	22.87
181.723	0.34
181.943	24.92
182.163	108.88
182.383	-24.23
182.602	31.06
182.822	-67.24
183.042	76.12
183.262	29.01
183.482	35.16
183.701	4.44
183.921	-13.99
184.141	-13.99
184.361	84.31
184.58	-13.99
184.8	94.55
185.02	29.01
185.239	84.31
185.459	26.96
185.679	8.53
185.898	47.44
186.118	26.96
186.338	65.88
186.557	-1.71
186.777	45.4
186.997	149.84
187.216	43.35
187.436	84.31
187.655	6.49
187.875	29.01
188.095	47.44
188.314	72.02
188.534	55.64
188.753	47.44
188.973	72.02
189.192	86.36
189.412	29.01
189.631	43.35
189.851	88.4
190.07	35.16
190.29	22.87
190.509	112.98
190.729	-46.76
190.948	-34.47
191.168	61.78
191.387	49.49
191.607	74.07
191.826	67.92
192.045	45.4
192.265	82.26
192.484	6.49
192.704	76.12
192.923	2.39
193.142	41.3
193.362	2.39
193.581	16.73
193.8	100.69
194.02	59.73
194.239	-20.14
194.458	29.01
194.678	55.64
194.897	59.73
195.116	98.64
195.335	2.39
195.555	59.73
195.774	24.92
195.993	80.21
196.212	90.45
196.432	55.64
196.651	-46.76
196.87	51.54
197.089	61.78
197.308	-11.95
197.528	10.58
197.747	8.53
197.966	-9.9
198.185	61.78
198.404	22.87
198.623	0.34
198.842	-16.04
199.062	43.35
199.281	41.3
199.5	47.44
199.719	53.59
199.938	110.93
200.157	20.82
200.376	45.4
200.595	55.64
200.814	39.25
201.033	35.16
201.252	-1.71
201.471	53.59
201.69	123.22
201.909	94.55
202.128	0.34
202.347	74.07
202.566	67.92
202.785	63.83
203.004	8.53
203.223	90.45
203.442	18.77
203.661	-13.99
203.879	8.53
204.098	0.34
204.317	4.44
204.536	12.63
204.755	35.16
204.974	-9.9
205.193	35.16
205.411	41.3
205.63	10.58
205.849	88.4
206.068	-24.23
206.287	43.35
206.505	-18.09
206.724	20.82
206.943	12.63
207.162	20.82
207.381	63.83
207.599	57.68
207.818	63.83
208.037	-11.95
208.255	-13.99
208.474	26.96
208.693	55.64
208.911	-11.95
209.13	14.68
209.349	10.58
209.567	33.11
209.786	43.35
210.005	6.49
210.223	63.83
210.442	47.44
210.661	59.73
210.879	63.83
211.098	16.73
211.316	53.59
211.535	80.21
211.753	57.68
211.972	90.45
212.191	65.88
212.409	47.44
212.628	2.39
212.846	51.54
213.065	65.88
213.283	57.68
213.502	69.97
213.72	-32.43
213.938	-5.8
214.157	119.12
214.375	57.68
214.594	14.68
214.812	104.79
215.031	-13.99
215.249	29.01
215.467	51.54
215.686	12.63
215.904	106.84
216.122	12.63
216.341	78.16
216.559	24.92
216.778	22.87
216.996	2.39
217.214	29.01
217.432	12.63
217.651	8.53
217.869	33.11
218.087	8.53
218.306	33.11
218.524	12.63
218.742	-44.71
218.96	59.73
219.179	10.58
219.397	82.26
219.615	92.5
219.833	78.16
220.051	-11.95
220.27	88.4
220.488	63.83
220.706	51.54
220.924	-38.57
221.142	96.6
221.36	-24.23
221.578	45.4
221.796	6.49
222.015	10.58
222.233	-7.85
222.451	26.96
222.669	-1.71
222.887	22.87
223.105	26.96
223.323	29.01
223.541	53.59
223.759	72.02
223.977	20.82
224.195	53.59
224.413	39.25
224.631	14.68
224.849	47.44
225.067	51.54
225.285	33.11
225.503	12.63
225.721	-50.86
225.939	45.4
226.157	92.5
226.375	31.06
226.592	59.73
226.81	-30.38
227.028	53.59
227.246	92.5
227.464	14.68
227.682	37.2
227.9	49.49
228.117	39.25
228.335	-30.38
228.553	47.44
228.771	12.63
228.989	137.56
229.206	53.59
229.424	53.59
229.642	51.54
229.86	84.31
230.077	74.07
230.295	37.2
230.513	37.2
230.731	127.32
230.948	49.49
231.166	110.93
231.384	55.64
231.601	37.2
231.819	51.54
232.037	92.5
232.254	20.82
232.472	92.5
232.689	31.06
232.907	41.3
233.125	43.35
233.342	45.4
233.56	-24.23
233.777	37.2
233.995	-13.99
234.213	31.06
234.43	45.4
234.648	51.54
234.865	41.3
235.083	47.44
235.3	26.96
235.518	49.49
235.735	63.83
235.953	37.2
236.17	78.16
236.388	-16.04
236.605	53.59
236.822	80.21
237.04	65.88
237.257	37.2
237.475	6.49
237.692	72.02
237.909	94.55
238.127	55.64
238.344	49.49
238.562	63.83
238.779	-9.9
238.996	10.58
239.214	51.54
239.431	24.92
239.648	-52.91
239.865	102.74
240.083	39.25
240.3	22.87
240.517	-5.8
240.735	35.16
240.952	86.36
241.169	90.45
241.386	55.64
241.603	22.87
241.821	69.97
242.038	123.22
242.255	106.84
242.472	76.12
242.689	45.4
242.907	112.98
243.124	51.54
243.341	92.5
243.558	125.27
243.775	6.49
243.992	41.3
244.209	16.73
244.426	158.03
244.643	8.53
244.86	47.44
245.078	110.93
245.295	74.07
245.512	4.44
245.729	86.36
245.946	74.07
246.163	37.2
246.38	78.16
246.597	82.26
246.814	39.25
247.031	26.96
247.248	104.79
247.464	131.41
247.681	16.73
247.898	10.58
248.115	35.16
248.332	43.35
248.549	33.11
248.766	47.44
248.983	78.16
249.2	102.74
249.417	59.73
249.633	10.58
249.85	18.77
250.067	0.34
250.284	14.68
250.501	43.35
250.717	78.16
250.934	53.59
251.151	123.22
251.368	69.97
251.585	26.96
251.801	-36.52
252.018	-7.85
252.235	45.4
252.451	33.11
252.668	26.96
252.885	29.01
253.102	82.26
253.318	55.64
253.535	39.25
253.752	57.68
253.968	82.26
254.185	26.96
254.401	49.49
254.618	67.92
254.835	43.35
255.051	72.02
255.268	74.07
255.484	53.59
255.701	33.11
255.917	53.59
256.134	74.07
256.351	55.64
256.567	-9.9
256.784	51.54
257	-22.19
257.217	117.08
257.433	55.64
257.65	67.92
257.866	63.83
258.082	-1.71
258.299	51.54
258.515	20.82
258.732	-11.95
258.948	35.16
259.165	61.78
259.381	102.74
259.597	98.64
259.814	141.65
260.03	-50.86
260.246	94.55
260.463	92.5
260.679	88.4
260.895	41.3
261.112	22.87
261.328	0.34
261.544	51.54
261.761	72.02
261.977	4.44
262.193	29.01
262.409	78.16
262.626	-7.85
262.842	53.59
263.058	82.26
263.274	78.16
263.49	59.73
263.707	90.45
263.923	29.01
264.139	84.31
264.355	-3.75
264.571	98.64
264.787	16.73
265.004	12.63
265.22	88.4
265.436	55.64
265.652	4.44
265.868	33.11
266.084	-20.14
266.3	26.96
266.516	96.6
266.732	100.69
266.948	20.82
267.164	47.44
267.38	41.3
267.596	92.5
267.812	8.53
268.028	80.21
268.244	-26.28
268.46	76.12
268.676	76.12
268.892	53.59
269.108	61.78
269.324	104.79
269.54	33.11
269.756	35.16
269.972	2.39
270.188	59.73
270.403	-18.09
270.619	57.68
270.835	100.69
271.051	100.69
271.267	26.96
271.483	88.4
271.698	-5.8
271.914	78.16
272.13	72.02
272.346	65.88
272.562	43.35
272.777	61.78
272.993	-16.04
273.209	80.21
273.425	100.69
273.64	53.59
273.856	-11.95
274.072	14.68
274.287	26.96
274.503	110.93
274.719	39.25
274.934	94.55
275.15	-32.43
275.366	57.68
275.581	-11.95
275.797	88.4
276.012	67.92
276.228	45.4
276.444	31.06
276.659	76.12
276.875	24.92
277.09	10.58
277.306	96.6
277.521	84.31
277.737	10.58
277.952	-36.52
278.168	41.3
278.383	98.64
278.599	22.87
278.814	37.2
279.03	61.78
279.245	82.26
279.461	61.78
279.676	100.69
279.892	67.92
280.107	-3.75
280.322	-3.75
280.538	65.88
280.753	31.06
280.969	100.69
281.184	22.87
281.399	72.02
281.615	69.97
281.83	61.78
282.045	45.4
282.26	29.01
282.476	-3.75
282.691	88.4
282.906	31.06
283.122	22.87
283.337	12.63
283.552	76.12
283.767	69.97
283.983	82.26
284.198	110.93
284.413	74.07
284.628	0.34
284.843	90.45
285.058	78.16
285.274	45.4
285.489	33.11
285.704	59.73
285.919	65.88
286.134	39.25
286.349	29.01
286.564	33.11
286.779	49.49
286.995	51.54
287.21	12.63
287.425	78.16
287.64	24.92
287.855	-38.57
288.07	39.25
288.285	88.4
288.5	8.53
288.715	-3.75
288.93	41.3
289.145	53.59
289.36	26.96
289.575	67.92
289.79	14.68
290.004	72.02
290.219	117.08
290.434	100.69
290.649	24.92
290.864	26.96
291.079	63.83
291.294	51.54
291.509	-11.95
291.724	78.16
291.938	12.63
292.153	57.68
292.368	51.54
292.583	61.78
292.798	53.59
293.012	29.01
293.227	96.6
293.442	69.97
293.657	78.16
293.871	82.26
294.086	61.78
294.301	57.68
294.516	98.64
294.73	123.22
294.945	45.4
295.16	53.59
295.374	26.96
295.589	112.98
295.804	-24.23
296.018	88.4
296.233	26.96
296.447	51.54
296.662	31.06
296.877	55.64
297.091	119.12
297.306	55.64
297.52	35.16
297.735	16.73
297.949	45.4
298.164	76.12
298.378	-46.76
298.593	82.26
298.807	45.4
299.022	-3.75
299.236	74.07
299.451	51.54
299.665	12.63
299.88	131.41
300.094	-9.9
300.309	37.2
300.523	26.96
300.737	12.63
300.952	104.79
301.166	78.16
301.381	51.54
301.595	131.41
301.809	0.34
302.024	-16.04
302.238	78.16
302.452	55.64
302.667	-26.28
302.881	147.8
303.095	53.59
303.309	137.56
303.524	51.54
303.738	31.06
303.952	8.53
304.166	84.31
304.381	12.63
304.595	82.26
304.809	80.21
305.023	-28.33
305.237	51.54
305.452	-22.19
305.666	78.16
305.88	82.26
306.094	108.88
306.308	153.94
306.522	10.58
306.736	47.44
306.95	59.73
307.164	55.64
307.379	12.63
307.593	92.5
307.807	65.88
308.021	80.21
308.235	74.07
308.449	10.58
308.663	57.68
308.877	84.31
309.091	61.78
309.305	33.11
309.519	6.49
309.733	106.84
309.947	-26.28
310.161	51.54
310.374	22.87
310.588	88.4
310.802	18.77
311.016	59.73
311.23	72.02
311.444	12.63
311.658	78.16
311.872	67.92
312.085	133.46
312.299	51.54
312.513	10.58
312.727	43.35
312.941	12.63
313.154	39.25
313.368	26.96
313.582	-3.75
313.796	51.54
314.009	20.82
314.223	115.03
314.437	51.54
314.651	80.21
314.864	127.32
315.078	47.44
315.292	-28.33
315.505	26.96
315.719	12.63
315.933	98.64
316.146	57.68
316.36	53.59
316.573	96.6
316.787	110.93
317.001	74.07
317.214	-9.9
317.428	78.16
317.641	20.82
317.855	16.73
318.068	22.87
318.282	45.4
318.495	88.4
318.709	86.36
318.922	55.64
319.136	55.64
319.349	96.6
319.563	22.87
319.776	139.6
319.99	82.26
320.203	98.64
320.417	22.87
320.63	12.63
320.843	74.07
321.057	67.92
321.27	47.44
321.483	31.06
321.697	131.41
321.91	78.16
322.124	76.12
322.337	49.49
322.55	-5.8
322.763	112.98
322.977	10.58
323.19	55.64
323.403	14.68
323.617	29.01
323.83	82.26
324.043	96.6
324.256	112.98
324.469	35.16
324.683	8.53
324.896	119.12
325.109	51.54
325.322	-11.95
325.535	47.44
325.748	94.55
325.962	63.83
326.175	80.21
326.388	104.79
326.601	53.59
326.814	59.73
327.027	6.49
327.24	63.83
327.453	0.34
327.666	115.03
327.879	0.34
328.092	69.97
328.305	10.58
328.518	45.4
328.731	14.68
328.944	29.01
329.157	88.4
329.37	47.44
329.583	92.5
329.796	110.93
330.009	74.07
330.222	14.68
330.435	94.55
330.648	76.12
330.861	123.22
331.073	-24.23
331.286	37.2
331.499	98.64
331.712	35.16
331.925	94.55
332.138	160.08
332.35	104.79
332.563	127.32
332.776	112.98
332.989	-5.8
333.202	121.17
333.414	98.64
333.627	102.74
333.84	2.39
334.053	67.92
334.265	57.68
334.478	117.08
334.691	45.4
334.903	49.49
335.116	104.79
335.329	37.2
335.541	37.2
335.754	78.16
335.966	45.4
336.179	112.98
336.392	80.21
336.604	63.83
336.817	106.84
337.029	65.88
337.242	41.3
337.454	18.77
337.667	72.02
337.88	98.64
338.092	33.11
338.305	88.4
338.517	31.06
338.729	102.74
338.942	65.88
339.154	35.16
339.367	67.92
339.579	37.2
339.792	82.26
340.004	145.75
340.217	82.26
340.429	119.12
340.641	-11.95
340.854	110.93
341.066	117.08
341.278	51.54
341.491	92.5
341.703	47.44
341.915	2.39
342.128	168.27
342.34	22.87
342.552	94.55
342.764	49.49
342.977	-9.9
343.189	31.06
343.401	86.36
343.613	47.44
343.826	43.35
344.038	74.07
344.25	43.35
344.462	72.02
344.674	20.82
344.886	51.54
345.099	24.92
345.311	88.4
345.523	24.92
345.735	4.44
345.947	112.98
346.159	41.3
346.371	45.4
346.583	-13.99
346.795	110.93
347.007	49.49
347.219	45.4
347.431	18.77
347.643	147.8
347.855	74.07
348.067	110.93
348.279	4.44
348.491	72.02
348.703	59.73
348.915	-32.43
349.127	26.96
349.339	63.83
349.551	102.74
349.763	31.06
349.975	53.59
350.187	129.36
350.399	51.54
350.61	53.59
350.822	22.87
351.034	82.26
351.246	45.4
351.458	61.78
351.669	133.46
351.881	39.25
352.093	135.51
352.305	131.41
352.517	12.63
352.728	86.36
352.94	57.68
353.152	117.08
353.363	20.82
353.575	37.2
353.787	84.31
353.999	94.55
354.21	112.98
354.422	78.16
354.633	29.01
354.845	57.68
355.057	90.45
355.268	102.74
355.48	51.54
355.692	6.49
355.903	80.21
356.115	55.64
356.326	24.92
356.538	106.84
356.749	76.12
356.961	24.92
357.172	31.06
357.384	100.69
357.595	131.41
357.807	22.87
358.018	37.2
358.23	94.55
358.441	164.18
358.653	35.16
358.864	-13.99
359.075	94.55
359.287	-18.09
359.498	102.74
359.709	14.68
359.921	45.4
360.132	4.44
360.344	86.36
360.555	0.34
360.766	65.88
360.977	45.4
361.189	129.36
361.4	90.45
361.611	86.36
361.823	108.88
362.034	98.64
362.245	18.77
362.456	59.73
362.667	82.26
362.879	14.68
363.09	51.54
363.301	112.98
363.512	92.5
363.723	29.01
363.935	-20.14
364.146	61.78
364.357	10.58
364.568	57.68
364.779	16.73
364.99	117.08
365.201	41.3
365.412	76.12
365.623	137.56
365.834	57.68
366.045	6.49
366.256	63.83
366.467	67.92
366.678	4.44
366.889	31.06
367.1	162.13
367.311	86.36
367.522	45.4
367.733	69.97
367.944	72.02
368.155	72.02
368.366	63.83
368.577	51.54
368.788	76.12
368.999	22.87
369.209	72.02
369.42	80.21
369.631	78.16
369.842	84.31
370.053	90.45
370.264	145.75
370.474	76.12
370.685	33.11
370.896	47.44
371.107	98.64
371.317	141.65
371.528	80.21
371.739	78.16
371.95	59.73
372.16	59.73
372.371	39.25
372.582	57.68
372.792	110.93
373.003	98.64
373.214	82.26
373.424	12.63
373.635	63.83
373.846	117.08
374.056	90.45
374.267	59.73
374.477	76.12
374.688	55.64
374.898	2.39
375.109	65.88
375.319	39.25
375.53	155.99
375.74	92.5
375.951	29.01
376.161	147.8
376.372	31.06
376.582	86.36
376.793	108.88
377.003	108.88
377.214	33.11
377.424	96.6
377.635	22.87
377.845	33.11
378.055	125.27
378.266	108.88
378.476	57.68
378.686	88.4
378.897	88.4
379.107	61.78
379.317	53.59
379.528	102.74
379.738	110.93
379.948	69.97
380.158	88.4
380.369	78.16
380.579	90.45
380.789	90.45
380.999	123.22
381.21	55.64
381.42	96.6
381.63	16.73
381.84	51.54
382.05	61.78
382.261	135.51
382.471	45.4
382.681	96.6
382.891	57.68
383.101	74.07
383.311	72.02
383.521	-3.75
383.731	96.6
383.941	141.65
384.151	117.08
384.361	33.11
384.571	137.56
384.781	61.78
384.991	96.6
385.201	166.23
385.411	76.12
385.621	57.68
385.831	63.83
386.041	94.55
386.251	67.92
386.461	117.08
386.671	96.6
386.881	90.45
387.091	133.46
387.301	74.07
387.511	41.3
387.72	110.93
387.93	61.78
388.14	108.88
388.35	100.69
388.56	57.68
388.769	94.55
388.979	121.17
389.189	55.64
389.399	92.5
389.609	92.5
389.818	61.78
390.028	94.55
390.238	112.98
390.447	90.45
390.657	55.64
390.867	72.02
391.076	6.49
391.286	37.2
391.496	76.12
391.705	45.4
391.915	69.97
392.125	133.46
392.334	88.4
392.544	88.4
392.753	108.88
392.963	43.35
393.172	82.26
393.382	115.03
393.591	115.03
393.801	94.55
394.01	115.03
394.22	96.6
394.429	61.78
394.639	123.22
394.848	119.12
395.058	106.84
395.267	141.65
395.477	47.44
395.686	69.97
395.895	92.5
396.105	176.47
396.314	119.12
396.524	88.4
396.733	123.22
396.942	143.7
397.152	162.13
397.361	172.37
397.57	127.32
397.78	100.69
397.989	162.13
398.198	121.17
398.407	69.97
398.617	149.84
398.826	123.22
399.035	172.37
399.244	98.64
399.453	129.36
399.663	94.55
399.872	55.64
400.081	117.08
400.29	100.69
400.499	74.07
400.708	149.84
400.917	151.89
401.127	174.42
401.336	123.22
401.545	129.36
401.754	178.51
401.963	211.28
402.172	119.12
402.381	69.97
402.59	102.74
402.799	135.51
403.008	180.56
403.217	127.32
403.426	151.89
403.635	198.99
403.844	127.32
404.053	192.85
404.262	143.7
404.471	217.43
404.68	180.56
404.888	227.67
405.097	205.14
405.306	172.37
405.515	205.14
405.724	139.6
405.933	182.61
406.142	201.04
406.35	223.57
406.559	231.76
406.768	229.71
406.977	299.34
407.185	172.37
407.394	221.52
407.603	221.52
407.812	295.25
408.02	246.1
408.229	293.2
408.438	278.87
408.646	244.05
408.855	262.48
409.064	274.77
409.272	285.01
409.481	366.93
409.69	366.93
409.898	280.91
410.107	354.64
410.315	354.64
410.524	321.87
410.733	305.49
410.941	352.59
411.15	426.32
411.358	434.51
411.567	454.99
411.775	473.42
411.984	428.37
412.192	512.33
412.401	532.81
412.609	522.57
412.818	487.76
413.026	526.67
413.234	639.31
413.443	545.1
413.651	655.69
413.86	659.79
414.068	543.05
414.276	692.55
414.485	586.06
414.693	698.7
414.901	633.16
415.11	774.47
415.318	842.06
415.526	811.34
415.734	782.67
415.943	880.97
416.151	831.82
416.359	969.03
416.567	969.03
416.776	981.32
416.984	1063.24
417.192	1063.24
417.4	1038.66
417.608	1151.3
417.817	1120.58
418.025	1241.41
418.233	1296.71
418.441	1229.12
418.649	1290.56
418.857	1382.72
419.065	1452.35
419.273	1456.45
419.481	1501.5
419.689	1487.17
419.897	1587.52
420.105	1716.54
420.313	1741.11
420.521	1863.99
420.729	1739.07
420.937	1820.99
421.145	1941.82
421.353	1943.86
421.561	2146.61
421.769	2072.89
421.977	2210.1
422.185	2267.44
422.393	2384.18
422.601	2474.29
422.809	2423.09
423.017	2476.34
423.224	2638.13
423.432	2638.13
423.64	2648.36
423.848	3027.24
424.056	2947.37
424.263	3166.5
424.471	3010.86
424.679	3076.39
424.887	3324.19
425.094	3510.56
425.302	3475.74
425.51	3625.25
425.718	3735.84
425.925	3844.38
426.133	3871
426.341	4081.94
426.548	4350.23
426.756	4321.56
426.964	4346.13
427.171	4559.12
427.379	4722.96
427.586	4708.62
427.794	4682
428.001	5107.98
428.209	5382.4
428.417	5292.29
428.624	5630.21
428.832	5642.5
429.039	5531.9
429.247	5759.23
429.454	6263.03
429.662	6551.79
429.869	6076.66
430.076	6746.35
430.284	6428.92
430.491	6740.21
430.699	7090.41
430.906	6977.77
431.114	7248.1
431.321	7497.95
431.528	7696.61
431.736	7971.04
431.943	8505.56
432.15	8179.93
432.358	8370.39
432.565	8653.01
432.772	8691.92
432.979	9169.1
433.187	9433.29
433.394	9451.72
433.601	10182.84
433.808	10080.44
434.016	10129.59
434.223	10356.92
434.43	11098.28
434.637	11049.13
434.844	11667.62
435.052	11823.26
435.259	11741.35
435.466	11749.54
435.673	11675.81
435.88	12511.38
436.087	13052.05
436.294	13207.69
436.501	13021.33
436.708	13052.05
436.915	13879.43
437.122	14114.94
437.329	14209.15
437.537	14579.83
437.743	14856.31
437.95	14835.83
438.157	15595.62
438.364	15802.47
438.571	15888.48
438.778	16220.25
438.985	17559.63
439.192	16685.14
439.399	17604.68
439.606	16996.43
439.813	18040.9
440.02	19109.94
440.227	18944.05
440.433	18702.39
440.64	19312.69
440.847	19116.08
441.054	19695.66
441.261	21098.52
441.467	20559.9
441.674	20940.82
441.881	21958.66
442.088	22106.12
442.294	21454.86
442.501	22253.57
442.708	22665.21
442.914	23420.91
443.121	24690.65
443.328	24055.78
443.534	25444.31
443.741	24924.12
443.948	24485.86
444.154	26570.69
444.361	26066.89
444.568	26499.01
444.774	26462.15
444.981	26935.23
445.187	27633.58
445.394	28475.3
445.6	28346.28
445.807	30893.95
446.013	29757.33
446.22	30197.64
446.426	31467.38
446.633	31799.15
446.839	32608.1
447.046	31582.07
447.252	33306.46
447.459	33085.28
447.665	32855.9
447.871	34680.64
448.078	35934
448.284	34535.24
448.491	35424.06
448.697	36757.28
448.903	37463.83
449.11	37566.23
449.316	36964.13
449.522	37842.71
449.728	38362.89
449.935	39038.72
450.141	38874.88
450.347	39933.68
450.553	38551.31
450.76	38835.97
450.966	40216.3
451.172	39649.02
451.378	41326.3
451.584	39999.22
451.791	41187.04
451.997	41170.66
452.203	41613.02
452.409	41866.97
452.615	41653.98
452.821	39784.18
453.027	39462.65
453.233	41527
453.44	40097.52
453.646	40840.93
453.852	40609.51
454.058	41717.46
454.264	40302.32
454.47	41033.44
454.676	39911.16
454.882	41555.68
455.088	37732.12
455.294	38319.88
455.5	38848.26
455.705	39317.25
455.911	38100.75
456.117	37332.76
456.323	37121.82
456.529	34961.22
456.735	36493.1
456.941	35030.85
457.147	34674.5
457.352	33861.46
457.558	33697.62
457.764	33279.83
457.97	32806.75
458.176	32212.84
458.381	32063.34
458.587	30334.85
458.793	30785.41
458.999	29310.87
459.204	31426.42
459.41	30367.62
459.616	28254.12
459.821	28305.32
460.027	28223.4
460.233	27408.31
460.438	26226.63
460.644	26560.45
460.85	25255.89
461.055	24864.73
461.261	24981.46
461.466	23181.3
461.672	22409.22
461.878	24072.17
462.083	22452.22
462.289	21919.75
462.494	21923.85
462.7	20785.18
462.905	20314.14
463.111	21127.19
463.316	21131.28
463.522	20500.51
463.727	20633.63
463.932	20639.77
464.138	20510.75
464.343	20682.78
464.549	19818.53
464.754	20738.07
464.959	20408.35
465.165	20551.71
465.37	19200.05
465.575	18673.72
465.781	19716.14
465.986	19804.2
466.191	19253.3
466.397	18538.55
466.602	17864.77
466.807	18442.3
467.012	18376.76
467.218	18171.97
467.423	18098.24
467.628	18372.67
467.833	19083.31
468.038	18219.07
468.244	18024.51
468.449	18544.7
468.654	17735.75
468.859	17817.67
469.064	17528.91
469.269	16947.28
469.474	17104.98
469.679	17285.2
469.885	16762.97
470.09	17348.68
470.295	17061.97
470.5	16642.14
470.705	17041.49
470.91	16685.14
471.115	16453.72
471.32	16541.78
471.525	16646.23
471.73	15745.13
471.935	15769.7
472.139	15413.35
472.344	15718.5
472.549	15450.22
472.754	15294.57
472.959	14860.4
473.164	14727.28
473.369	14536.82
473.574	14938.23
473.778	15026.29
473.983	14956.66
474.188	14837.87
474.393	14153.85
474.598	14139.52
474.802	13830.27
475.007	14008.45
475.212	14047.36
475.417	13744.26
475.621	13437.06
475.826	13275.27
476.031	13197.45
476.235	12923.02
476.44	13150.35
476.645	12771.47
476.849	12920.98
477.054	12726.42
477.259	12644.5
477.463	12447.9
477.668	12314.78
477.872	12228.76
478.077	12204.19
478.282	11864.22
478.486	11966.62
478.691	11712.67
478.895	11618.47
479.1	11688.1
479.304	11792.55
479.509	11309.22
479.713	11616.42
479.918	11057.32
480.122	11258.03
480.326	11225.26
480.531	11450.53
480.735	11067.56
480.94	11165.87
481.144	11317.42
481.348	10870.96
481.553	10959.02
481.757	10729.65
481.961	10922.16
482.166	11024.56
482.37	11024.56
482.574	10664.11
482.778	10647.73
482.983	11030.7
483.187	10909.87
483.391	11026.61
483.595	10764.47
483.8	10643.63
484.004	10873.01
484.208	10922.16
484.412	10797.23
484.616	10825.9
484.821	10703.03
485.025	10596.53
485.229	10758.32
485.433	10639.54
485.637	10768.56
485.841	10791.09
486.045	10524.85
486.249	10946.73
486.453	10625.2
486.657	10811.57
486.861	10623.16
487.065	10485.94
487.269	10864.82
487.473	10500.28
487.677	10913.97
487.881	10895.54
488.085	10805.42
488.289	10989.74
488.493	10754.23
488.697	10985.65
488.901	10791.09
489.105	10633.4
489.309	10707.12
489.512	10795.18
489.716	10850.48
489.92	10762.42
490.124	10956.97
490.328	11086
490.531	10930.35
490.735	11053.23
490.939	11030.7
491.143	11149.48
491.346	11122.86
491.55	11169.96
491.754	11276.46
491.958	11346.09
492.161	11321.51
492.365	11225.26
492.569	11344.04
492.772	11153.58
492.976	11554.98
493.18	11495.59
493.383	11698.34
493.587	11772.07
493.79	11675.81
493.994	11694.24
494.197	11751.59
494.401	12015.77
494.605	12034.21
494.808	12292.25
495.012	12058.78
495.215	12169.37
495.419	12519.57
495.622	12484.76
495.825	12578.97
496.029	12710.04
496.232	13047.95
496.436	12703.89
496.639	13310.09
496.843	12984.46
497.046	13260.94
497.249	13504.65
497.453	13678.72
497.656	13461.64
497.859	13660.29
498.063	14020.74
498.266	14274.68
498.469	14084.22
498.673	14264.44
498.876	14346.36
499.079	14598.26
499.282	14411.9
499.485	14954.61
499.689	14997.62
499.892	15339.63
500.095	15241.32
500.298	15569
500.501	15341.68
500.705	15845.48
500.908	15863.91
501.111	16144.48
501.314	16066.66
501.517	16621.66
501.72	16556.12
501.923	16541.78
502.126	17334.35
502.329	17371.21
502.532	17326.16
502.735	17420.36
502.938	17754.18
503.141	18032.71
503.344	18131.01
503.547	18174.02
503.75	18462.78
503.953	18872.37
504.156	18831.41
504.359	19183.66
504.562	19247.15
504.765	19673.13
504.968	19890.21
505.17	20054.05
505.373	19998.76
505.576	20234.27
505.779	20660.25
505.982	20936.73
506.185	21096.47
506.387	21221.39
506.59	21297.17
506.793	21981.19
506.996	21673.99
507.198	22300.67
507.401	22161.41
507.604	22579.2
507.807	22986.74
508.009	23177.2
508.212	23341.04
508.415	23349.23
508.617	23715.82
508.82	24002.54
509.022	23605.23
509.225	24305.63
509.428	24872.92
509.63	24801.24
509.833	24952.79
510.035	25731.02
510.238	25565.14
510.44	25913.29
510.643	26238.92
510.845	26326.98
511.048	26185.67
511.25	26841.02
511.453	26838.97
511.655	27789.23
511.858	27768.75
512.06	27828.14
512.262	28114.86
512.465	27955.11
512.667	28716.96
512.87	28837.79
513.072	28956.57
513.274	29566.87
513.477	29773.71
513.679	30037.9
513.881	30269.32
514.084	30760.83
514.286	30617.47
514.488	30787.46
514.69	31676.27
514.893	31797.1
515.095	31885.17
515.297	32010.09
515.499	32302.95
515.701	33001.31
515.904	33025.89
516.106	33058.65
516.308	33619.8
516.51	33757.01
516.712	34142.03
516.914	34226
517.116	34817.86
517.318	34621.25
517.52	35153.72
517.722	35045.18
517.925	35706.68
518.127	36058.93
518.329	36474.66
518.531	36462.38
518.733	37080.86
518.935	36900.64
519.136	37160.73
519.338	38305.55
519.54	37789.46
519.742	38489.87
519.944	38164.24
520.146	39100.16
520.348	39196.42
520.55	39255.81
520.752	39530.23
520.954	40120.05
521.155	39671.54
521.357	40140.53
521.559	41019.11
521.761	41072.35
521.963	40838.89
522.164	41105.12
522.366	41619.16
522.568	41563.87
522.77	42147.54
522.971	42960.58
523.173	42565.32
523.375	42864.33
523.576	43296.45
523.778	42962.63
523.98	43538.11
524.181	43865.78
524.383	43638.46
524.584	44183.22
524.786	44449.46
524.988	44252.85
525.189	44592.81
525.391	44963.5
525.592	44885.67
525.794	45450.91
525.995	45385.38
526.197	45395.62
526.398	45403.81
526.6	45975.19
526.801	46255.76
527.003	46284.44
527.204	46294.67
527.406	46806.67
527.607	46614.16
527.808	46939.79
528.01	46708.36
528.211	46939.79
528.412	47588.99
528.614	47386.24
528.815	47459.97
529.016	47873.66
529.218	47384.19
529.419	47777.4
529.62	48023.16
529.822	47834.75
530.023	47945.34
530.224	48248.44
530.425	48164.47
530.626	48133.75
530.828	47840.89
531.029	48760.43
531.23	47812.22
531.431	48094.84
531.632	48191.09
531.833	48744.05
532.035	48807.53
532.236	48735.85
532.437	48645.74
532.638	48330.36
532.839	48668.27
533.04	48854.64
533.241	48658.03
533.442	49526.37
533.643	49170.02
533.844	49081.96
534.045	49084.01
534.246	48875.12
534.447	49462.88
534.648	48594.54
534.849	49385.06
535.05	48703.09
535.251	49208.93
535.451	48852.59
535.652	48944.75
535.853	48985.71
536.054	49325.67
536.255	49395.3
536.456	48766.57
536.657	49798.75
536.857	49030.76
537.058	48819.82
537.259	49167.98
537.46	49292.9
537.66	49071.72
537.861	49200.74
538.062	48932.46
538.263	49360.48
538.463	48948.84
538.664	49348.2
538.865	49448.55
539.065	49612.38
539.266	49131.11
539.466	49565.28
539.667	48690.8
539.868	49718.88
540.068	49430.12
540.269	49213.03
540.469	49196.65
540.67	48983.66
540.87	49399.4
541.071	49159.78
541.271	49499.75
541.472	48967.27
541.672	48916.07
541.873	49145.45
542.073	48655.98
542.274	49776.22
542.474	49100.39
542.675	48991.85
542.875	49178.21
543.075	48791.15
543.276	48496.24
543.476	49368.68
543.676	49071.72
543.877	48973.42
544.077	49120.87
544.277	48987.75
544.478	49034.86
544.678	49610.34
544.878	48924.27
545.078	49417.83
545.279	49041
545.479	49116.78
545.679	48924.27
545.879	48854.64
546.079	48789.1
546.28	49069.67
546.48	48557.68
546.68	49280.61
546.88	49004.14
547.08	49059.43
547.28	48797.29
547.48	48072.31
547.68	48770.67
547.88	48828.01
548.081	48903.79
548.281	48997.99
548.481	48891.5
548.681	49137.26
548.881	48780.91
549.081	48952.94
549.28	48381.56
549.48	48830.06
549.68	48778.86
549.88	49124.97
550.08	48676.46
550.28	48739.95
550.48	48846.44
550.68	49024.62
550.88	48529.01
551.08	48858.73
551.279	49096.3
551.479	48324.21
551.679	48737.9
551.879	48670.32
552.079	48959.08
552.278	48506.48
552.478	48715.37
552.678	48436.85
552.878	48899.69
553.077	48557.68
553.277	48371.32
553.477	49086.06
553.676	48399.99
553.876	48619.12
554.076	48512.63
554.275	48494.19
554.475	47971.96
554.674	48332.4
554.874	48305.78
555.074	48397.94
555.273	48295.54
555.473	48744.05
555.672	47713.92
555.872	48213.62
556.071	48842.35
556.271	48539.25
556.47	48543.34
556.67	47390.34
556.869	48012.92
557.068	48262.77
557.268	48137.85
557.467	48234.1
557.667	47560.32
557.866	48094.84
558.065	48129.65
558.265	48154.23
558.464	47863.42
558.663	48399.99
558.863	46931.59
559.062	48242.29
559.261	47318.66
559.461	47914.62
559.66	47445.63
559.859	47142.53
560.058	47050.38
560.258	47275.65
560.457	47396.48
560.656	47640.19
560.855	47337.09
561.054	47578.75
561.253	47083.14
561.453	47400.58
561.652	47406.72
561.851	47343.23
562.05	46882.44
562.249	46843.53
562.448	47105.67
562.647	47058.57
562.846	46536.34
563.045	46853.77
563.244	46751.37
563.443	47023.75
563.642	46524.05
563.841	46392.98
564.04	46395.03
564.239	46507.66
564.438	45913.75
564.637	46769.8
564.836	46534.29
565.035	45713.05
565.234	46007.96
565.432	46081.69
565.631	45672.09
565.83	45668
566.029	45721.24
566.228	45782.68
566.427	45657.76
566.625	45407.9
566.824	45006.5
567.023	45729.44
567.222	45002.41
567.42	45840.03
567.619	45395.62
567.818	45534.88
568.016	45344.42
568.215	45375.14
568.414	45121.19
568.612	45299.36
568.811	44902.06
569.01	44846.76
569.208	44105.4
569.407	44877.48
569.605	44222.13
569.804	44807.85
570.002	44207.79
570.201	44703.4
570.4	43851.45
570.598	44019.38
570.797	43843.26
570.995	44107.44
571.193	43497.15
571.392	44336.82
571.59	44076.72
571.789	43390.66
571.987	43511.49
572.186	43802.3
572.384	43413.18
572.582	43787.96
572.781	43474.62
572.979	42964.68
573.177	43005.64
573.376	43431.61
573.574	42731.21
573.772	43400.9
573.971	42862.28
574.169	42774.22
574.367	42585.8
574.565	42653.39
574.763	42278.61
574.962	42452.69
575.16	42008.28
575.358	42503.88
575.556	41529.05
575.754	42507.98
575.952	41680.6
576.151	41944.79
576.349	41408.22
576.547	41973.46
576.745	41647.83
576.943	41821.91
577.141	41680.6
577.339	41385.69
577.537	41148.13
577.735	41119.46
577.933	40838.89
578.131	41438.94
578.329	41082.59
578.527	40785.64
578.725	40881.89
578.923	40896.23
579.121	40453.87
579.319	40451.82
579.516	40953.57
579.714	40349.42
579.912	40322.8
580.11	40378.09
580.308	40031.99
580.506	39728.89
580.704	39237.37
580.901	39982.84
581.099	40146.67
581.297	39444.22
581.495	39464.7
581.692	39683.83
581.89	39177.98
582.088	39290.62
582.285	39476.99
582.483	39747.32
582.681	39175.94
582.878	38840.07
583.076	38782.73
583.274	38995.71
583.471	38414.09
583.669	38932.23
583.866	38717.19
584.064	38543.11
584.262	38022.93
584.459	38706.95
584.657	38190.86
584.854	38471.43
585.052	38129.42
585.249	38121.23
585.447	37947.15
585.644	37492.51
585.841	37562.14
586.039	38164.24
586.236	37715.73
586.434	37420.83
586.631	37336.86
586.828	37482.27
587.026	37517.08
587.223	37132.06
587.42	36529.96
587.618	37424.92
587.815	36925.22
588.012	36450.09
588.21	36437.8
588.407	36904.74
588.604	36456.23
588.801	36327.21
588.999	36398.89
589.196	35958.58
589.393	35956.53
589.59	36126.51
589.787	35678
589.984	36364.07
590.182	35284.79
590.379	35587.89
590.576	35063.61
590.773	35602.23
590.97	35161.92
591.167	35307.32
591.364	34926.4
591.561	35475.26
591.758	34936.64
591.955	35327.8
592.152	34920.26
592.349	34772.8
592.546	34651.97
592.743	34813.76
592.94	34176.84
593.137	34580.29
593.334	34484.04
593.531	33961.81
593.727	33851.22
593.924	34422.6
594.121	34099.02
594.318	34121.55
594.515	33460.05
594.712	33408.86
594.908	33398.62
595.105	33775.44
595.302	32925.53
595.499	33578.84
595.696	33029.98
595.892	32827.23
596.089	33228.63
596.286	33144.67
596.482	33025.89
596.679	32722.79
596.876	32786.27
597.072	32773.99
597.269	32425.83
597.466	32008.04
597.662	32186.22
597.859	32044.91
598.055	32350.06
598.252	32053.1
598.448	32190.31
598.645	31852.4
598.841	31668.08
599.038	31762.29
599.234	31500.15
599.431	31489.91
599.627	31629.17
599.824	31416.18
600.02	31381.37
600.217	31397.75
600.413	31098.75
600.609	31014.78
600.806	30693.25
601.002	31221.62
601.198	30959.48
601.395	30578.56
601.591	30420.87
601.787	30539.65
601.984	30326.66
602.18	30758.78
602.376	30277.51
602.572	29788.05
602.769	30109.58
602.965	29859.73
603.161	30093.19
603.357	30013.32
603.553	30091.15
603.75	29736.85
603.946	29468.56
604.142	29622.16
604.338	29458.32
604.534	29736.85
604.73	29300.63
604.926	29192.09
605.122	29413.27
605.318	29206.42
605.514	28702.62
605.71	28899.23
605.906	28911.52
606.102	28837.79
606.298	28698.53
606.494	28520.35
606.69	28465.06
606.886	28379.04
607.082	28063.66
607.278	28661.66
607.474	28061.61
607.67	28809.12
607.866	27795.37
608.062	28333.99
608.257	28024.75
608.453	27893.68
608.649	27883.44
608.845	27942.83
609.041	27969.45
609.236	27824.04
609.432	27561.9
609.628	27799.47
609.824	27824.04
610.019	27412.4
610.215	27877.29
610.411	27899.82
610.606	27277.24
610.802	27527.09
610.998	27281.33
611.193	27414.45
611.389	27510.71
611.584	27066.3
611.78	27021.24
611.976	27031.48
612.171	27176.89
612.367	27293.62
612.562	26924.99
612.758	26767.29
612.953	26408.9
613.149	27060.15
613.344	26548.16
613.539	27348.92
613.735	26998.71
613.93	26755.01
614.126	26605.5
614.321	26929.08
614.517	26832.83
614.712	26345.41
614.907	26421.19
615.103	26628.03
615.298	26236.87
615.493	26470.34
615.688	26136.52
615.884	26828.73
616.079	25872.33
616.274	26177.48
616.47	26509.25
616.665	26263.49
616.86	26083.27
617.055	26003.4
617.25	26101.7
617.445	26245.06
617.641	25530.32
617.836	25743.31
618.031	25558.99
618.226	25868.23
618.421	25468.88
618.616	25995.21
618.811	25296.85
619.006	25444.31
619.201	24805.34
619.396	25196.5
619.591	24612.83
619.786	25395.15
619.981	24694.75
620.176	25085.91
620.371	24524.77
620.566	24514.53
620.761	24436.7
620.956	24782.81
621.151	24442.85
621.346	24588.25
621.541	23781.35
621.735	24268.77
621.93	23742.44
622.125	23918.57
622.32	23302.13
622.515	23640.04
622.709	23310.32
622.904	23250.93
623.099	22958.07
623.294	23117.81
623.488	23039.99
623.683	23031.8
623.878	22511.61
624.072	22632.44
624.267	22439.93
624.462	22528
624.656	22478.85
624.851	22118.4
625.046	21983.24
625.24	22142.98
625.435	21628.94
625.629	21700.62
625.824	21688.33
626.018	21565.45
626.213	21504.01
626.407	21340.18
626.602	20983.83
626.796	21243.92
626.991	21071.89
627.185	20979.73
627.38	20480.03
627.574	20480.03
627.768	20625.43
627.963	20355.1
628.157	20084.77
628.352	20297.76
628.546	20060.2
628.74	20242.46
628.935	19826.73
629.129	20064.29
629.323	19468.33
629.517	19568.68
629.712	19154.99
629.906	19456.04
630.1	19200.05
630.294	19580.97
630.489	19148.85
630.683	19124.27
630.877	18964.53
631.071	18630.71
631.265	18878.52
631.459	18630.71
631.653	18575.42
631.848	18579.51
632.042	18382.91
632.236	18387
632.43	18116.67
632.624	18161.73
632.818	17995.84
633.012	17934.4
633.206	17840.2
633.4	17946.69
633.594	17422.41
633.788	17520.71
633.982	17616.97
634.176	17324.11
634.369	17307.73
634.563	17385.55
634.757	17141.84
634.951	17084.5
635.145	17045.59
635.339	16945.23
635.533	16795.73
635.726	16652.38
635.92	16511.07
636.114	16758.87
636.308	16715.86
636.501	16291.93
636.695	16496.73
636.889	16226.4
637.083	16156.77
637.276	16027.74
637.47	15949.92
637.664	15822.95
637.857	15949.92
638.051	15851.62
638.244	15597.67
638.438	15482.99
638.632	15753.32
638.825	15417.45
639.019	15337.58
639.212	15366.25
639.406	15353.96
639.599	15327.34
639.793	15063.15
639.986	15067.25
640.18	15087.73
640.373	14706.8
640.567	14665.85
640.76	14608.5
640.954	14610.55
641.147	14493.82
641.34	14291.07
641.534	14303.36
641.727	14243.96
641.92	14418.04
642.114	14502.01
642.307	14166.14
642.5	13998.21
642.694	13912.19
642.887	13871.23
643.08	13865.09
643.273	13826.18
643.467	13506.7
643.66	13463.69
643.853	13453.45
644.046	13514.89
644.239	13588.61
644.432	13424.78
644.626	13037.71
644.819	13076.62
645.012	13148.3
645.205	13293.71
645.398	13166.73
645.591	12769.43
645.784	12990.61
645.977	12742.8
646.17	12834.96
646.363	12511.38
646.556	12503.19
646.749	12599.45
646.942	12576.92
647.135	12345.5
647.328	12513.43
647.521	12224.67
647.714	11962.53
647.907	12193.95
648.099	12128.41
648.292	11921.57
648.485	11876.51
648.678	11690.15
648.871	11786.4
649.064	11614.37
649.256	11774.11
649.449	11655.33
649.642	11714.72
649.835	11473.06
650.027	11634.85
650.22	11395.24
650.413	11298.98
650.605	11323.56
650.798	11067.56
650.991	11298.98
651.183	11155.63
651.376	11016.37
651.568	11053.23
651.761	10930.35
651.954	10782.9
652.146	10993.84
652.339	10922.16
652.531	10789.04
652.724	10727.6
652.916	10440.89
653.109	10565.81
653.301	10401.97
653.494	10416.31
653.686	10414.26
653.879	10338.49
654.071	10381.49
654.263	10373.3
654.456	10401.97
654.648	10318.01
654.84	10000.57
655.033	9953.47
655.225	9935.04
655.417	9865.41
655.61	9939.13
655.802	9973.95
655.994	9720
656.186	9853.12
656.379	9568.45
656.571	9705.67
656.763	9679.04
656.955	9509.06
657.148	9629.89
657.34	9494.72
657.532	9404.61
657.724	9515.2
657.916	9287.88
658.108	9427.14
658.3	9119.95
658.492	9169.1
658.684	9072.84
658.876	9107.66
659.068	9023.69
659.26	9064.65
659.452	9048.27
659.644	8952.01
659.836	8982.73
660.028	8884.43
660.22	8794.32
660.412	8702.16
660.604	8704.21
660.796	8642.77
660.988	8687.82
661.18	8804.56
661.372	8440.02
661.563	8407.25
661.755	8356.05
661.947	8407.25
662.139	8257.75
662.331	8192.22
662.522	8259.8
662.714	8239.32
662.906	8319.19
663.097	8100.06
663.289	7942.36
663.481	8265.94
663.673	8157.4
663.864	7928.03
664.056	7842.01
664.247	7968.99
664.439	7766.24
664.631	7901.4
664.822	7897.31
665.014	7907.55
665.205	7764.19
665.397	7784.67
665.588	7719.14
665.78	7667.94
665.971	7596.26
666.163	7573.73
666.354	7336.17
666.546	7469.28
666.737	7379.17
666.929	7606.5
667.12	7467.24
667.311	7348.45
667.503	7364.84
667.694	7315.69
667.885	7051.5
668.077	7248.1
668.268	7266.53
668.459	7061.74
668.651	7131.37
668.842	7041.26
669.033	7106.79
669.224	6981.87
669.416	6856.94
669.607	7063.79
669.798	6865.13
669.989	6979.82
670.18	6861.04
670.371	6758.64
670.563	6705.39
670.754	6795.5
670.945	6738.16
671.136	6863.08
671.327	6613.23
671.518	6686.96
671.709	6418.68
671.9	6621.42
672.091	6613.23
672.282	6658.29
672.473	6498.55
672.664	6602.99
672.855	6416.63
673.046	6572.27
673.237	6529.27
673.428	6371.57
673.619	6330.61
673.809	6506.74
674	6377.72
674.191	6299.89
674.382	6140.15
674.573	6297.85
674.764	6240.5
674.954	6154.49
675.145	6099.19
675.336	5984.51
675.527	5982.46
675.717	6136.06
675.908	6029.56
676.099	6181.11
676.289	6033.66
676.48	5957.88
676.671	5857.53
676.861	6060.28
677.052	5869.82
677.243	5849.34
677.433	5824.76
677.624	5964.03
677.814	5871.87
678.005	6097.14
678.195	5937.4
678.386	5824.76
678.576	5703.93
678.767	5792
678.957	5886.2
679.148	5716.22
679.338	5761.28
679.529	5648.64
679.719	5556.48
679.909	5769.47
680.1	5816.57
680.29	5533.95
680.481	5697.79
680.671	5708.03
680.861	5701.89
681.052	5560.58
681.242	5572.86
681.432	5497.09
681.622	5419.27
681.813	5607.68
682.003	5689.6
682.193	5394.69
682.383	5445.89
682.573	5388.55
682.764	5359.88
682.954	5544.19
683.144	5576.96
683.334	5488.9
683.524	5470.47
683.714	5339.4
683.904	5411.07
684.094	5396.74
684.284	5478.66
684.474	5415.17
684.664	5296.39
684.854	5353.73
685.044	5142.79
685.234	5253.38
685.424	5191.94
685.614	5218.57
685.804	5259.53
685.994	5126.41
686.184	5169.41
686.374	5050.63
686.564	5038.34
686.753	5200.13
686.943	4983.05
687.133	5071.11
687.323	4989.19
687.513	5067.02
687.702	5017.86
687.892	4925.71
688.082	4937.99
688.272	4919.56
688.461	4770.06
688.651	4886.79
688.841	4796.68
689.03	4864.27
689.22	4837.64
689.41	4729.1
689.599	4653.33
689.789	4864.27
689.979	4884.75
690.168	4716.81
690.358	4669.71
690.547	4643.09
690.737	4747.53
690.926	4684.05
691.116	4725.01
691.305	4528.4
691.495	4481.3
691.684	4415.76
691.874	4645.13
692.063	4417.81
692.252	4516.11
692.442	4481.3
692.631	4481.3
692.82	4421.91
693.01	4469.01
693.199	4364.56
693.388	4407.57
693.578	4419.86
693.767	4296.98
693.956	4479.25
694.146	4301.08
694.335	4286.74
694.524	4081.94
694.713	4270.36
694.902	4276.5
695.092	4239.64
695.281	4174.1
695.47	4360.47
695.659	4176.15
695.848	4239.64
696.037	4206.87
696.226	4258.07
696.415	4102.42
696.604	4178.2
696.793	4028.7
696.982	4045.08
697.171	4073.75
697.36	4141.33
697.549	4004.12
697.738	4043.03
697.927	3907.87
698.116	4106.52
698.305	4004.12
698.494	4051.22
698.683	3954.97
698.872	3944.73
699.061	3866.91
699.25	4075.8
699.438	4004.12
699.627	3973.4
699.816	4073.75
700.005	3928.35
700.193	3942.68
700.382	4028.7
700.571	3922.2
700.76	3848.47
700.948	3825.95
701.137	3954.97
701.326	3772.7
701.514	3895.58
701.703	3811.61
701.892	3793.18
702.08	3924.25
702.269	3764.51
702.457	3862.81
702.646	3862.81
702.834	3789.08
703.023	3776.8
703.212	3676.45
703.4	3721.5
703.589	3805.47
703.777	3766.56
703.965	3733.79
704.154	3746.08
704.342	3887.39
704.531	3832.09
704.719	3819.8
704.907	3735.84
705.096	3836.19
705.284	3789.08
705.472	3713.31
705.661	3674.4
705.849	3924.25
706.037	3746.08
706.226	3619.1
706.414	3608.86
706.602	3715.36
706.79	3813.66
706.979	3610.91
707.167	3748.12
707.355	3549.47
707.543	3696.92
707.731	3633.44
707.919	3676.45
708.107	3723.55
708.296	3518.75
708.484	3572
708.672	3649.82
708.86	3692.83
709.048	3615.01
709.236	3514.66
709.424	3694.88
709.612	3594.53
709.8	3645.73
709.988	3629.34
710.176	3744.03
710.364	3590.43
710.551	3625.25
710.739	3504.42
710.927	3541.28
711.115	3580.19
711.303	3547.42
711.491	3457.31
711.679	3440.93
711.866	3660.06
712.054	3649.82
712.242	3520.8
712.43	3580.19
712.617	3500.32
712.805	3625.25
712.993	3533.09
713.181	3574.05
713.368	3473.7
713.556	3490.08
713.744	3453.22
713.931	3545.38
714.119	3467.55
714.306	3508.51
714.494	3494.18
714.682	3469.6
714.869	3578.14
715.057	3545.38
715.244	3442.98
715.432	3504.42
715.619	3438.88
715.807	3617.05
715.994	3543.33
716.182	3410.21
716.369	3359.01
716.556	3522.85
716.744	3498.27
716.931	3453.22
717.119	3434.78
717.306	3469.6
717.493	3367.2
717.681	3404.07
717.868	3410.21
718.055	3506.46
718.242	3510.56
718.43	3422.5
718.617	3592.48
718.804	3375.39
718.991	3373.35
719.179	3412.26
719.366	3465.5
719.553	3436.83
719.74	3426.59
719.927	3322.15
720.114	3418.4
720.301	3324.19
720.488	3307.81
720.676	3375.39
720.863	3412.26
721.05	3348.77
721.237	3395.87
721.424	3375.39
721.611	3420.45
721.798	3359.01
721.985	3373.35
722.172	3344.67
722.358	3346.72
722.545	3496.22
722.732	3227.94
722.919	3379.49
723.106	3363.11
723.293	3240.23
723.48	3264.8
723.667	3346.72
723.853	3229.99
724.04	3240.23
724.227	3303.71
724.414	3240.23
724.6	3322.15
724.787	3412.26
724.974	3471.65
725.161	3297.57
725.347	3199.27
725.534	3356.96
725.72	3227.94
725.907	3397.92
726.094	3387.68
726.28	3477.79
726.467	3350.82
726.653	3246.37
726.84	3238.18
727.027	3399.97
727.213	3223.84
727.4	3303.71
727.586	3328.29
727.773	3369.25
727.959	3293.48
728.145	3229.99
728.332	3160.36
728.518	3180.84
728.705	3189.03
728.891	3199.27
729.077	3150.12
729.264	3176.74
729.45	3277.09
729.636	3203.36
729.823	3260.71
730.009	3285.28
730.195	3316
730.382	3324.19
730.568	3209.51
730.754	3252.52
730.94	3172.64
731.126	3311.91
731.313	3326.24
731.499	3150.12
731.685	3246.37
731.871	3170.6
732.057	3295.52
732.243	3170.6
732.429	3264.8
732.615	3250.47
732.801	3207.46
732.987	3219.75
733.173	3248.42
733.359	3135.78
733.545	3129.64
733.731	3135.78
733.917	3078.44
734.103	3131.69
734.289	3107.11
734.475	3107.11
734.661	3248.42
734.847	2994.47
735.033	3111.21
735.219	3033.38
735.404	3109.16
735.59	3086.63
735.776	3002.66
735.962	3182.88
736.148	3133.73
736.333	3000.62
736.519	3143.97
736.705	3070.25
736.89	3006.76
737.076	3055.91
737.262	3012.9
737.447	3074.34
737.633	3023.14
737.819	3098.92
738.004	3029.29
738.19	3041.57
738.375	3051.81
738.561	2967.85
738.747	3053.86
738.932	2996.52
739.118	2943.27
739.303	2935.08
739.489	2996.52
739.674	3004.71
739.859	2830.63
740.045	2926.89
740.23	2922.79
740.416	2945.32
740.601	2959.66
740.786	2916.65
740.972	2887.98
741.157	2980.14
741.342	2863.4
741.528	2867.5
741.713	2816.3
741.898	3027.24
742.084	2875.69
742.269	2930.98
742.454	2844.97
742.639	2857.26
742.824	2773.29
743.01	2756.91
743.195	2808.11
743.38	2842.92
743.565	2844.97
743.75	2726.19
743.935	2681.13
744.12	2824.49
744.305	2615.6
744.49	2576.69
744.675	2724.14
744.86	2724.14
745.045	2679.08
745.23	2773.29
745.415	2777.39
745.6	2521.39
745.785	2715.95
745.97	2539.82
746.155	2627.89
746.34	2631.98
746.525	2496.82
746.71	2730.28
746.895	2482.48
747.079	2674.99
747.264	2543.92
747.449	2496.82
747.634	2474.29
747.819	2525.49
748.003	2464.05
748.188	2410.8
748.373	2378.03
748.557	2484.53
748.742	2388.27
748.927	2390.32
749.111	2324.79
749.296	2431.28
749.481	2375.99
749.665	2324.79
749.85	2322.74
750.034	2361.65
750.219	2275.63
750.404	2269.49
750.588	2273.59
750.773	2212.15
750.957	2369.84
751.141	2267.44
751.326	2185.52
751.51	2109.75
751.695	2195.76
751.879	2144.56
752.064	2220.34
752.248	2171.19
752.432	2122.04
752.617	2115.89
752.801	1990.97
752.985	2046.26
753.17	2091.32
753.354	2011.45
753.538	1984.82
753.722	1929.53
753.907	1952.06
754.091	1939.77
754.275	1997.11
754.459	1935.67
754.643	1857.85
754.828	1974.58
755.012	1952.06
755.196	1982.78
755.38	2013.49
755.564	1829.18
755.748	1857.85
755.932	1804.6
756.116	1792.31
756.3	1845.56
756.484	1802.55
756.668	1806.65
756.852	1835.32
757.036	1679.68
757.22	1794.36
757.404	1737.02
757.588	1628.48
757.772	1689.92
757.956	1696.06
758.14	1587.52
758.323	1694.01
758.507	1780.03
758.691	1657.15
758.875	1677.63
759.059	1567.04
759.242	1657.15
759.426	1694.01
759.61	1519.93
759.794	1646.91
759.977	1642.81
760.161	1657.15
760.345	1562.94
760.528	1614.14
760.712	1558.85
760.895	1648.96
761.079	1429.82
761.263	1505.6
761.446	1603.9
761.63	1478.97
761.813	1501.5
761.997	1380.67
762.18	1587.52
762.364	1476.93
762.547	1415.49
762.731	1407.3
762.914	1425.73
763.098	1446.21
763.281	1372.48
763.464	1337.66
763.648	1433.92
763.831	1450.3
764.015	1483.07
764.198	1362.24
764.381	1438.02
764.564	1302.85
764.748	1397.06
764.931	1313.09
765.114	1390.91
765.297	1317.19
765.481	1349.95
765.664	1356.1
765.847	1261.89
766.03	1327.43
766.213	1407.3
766.397	1321.28
766.58	1364.29
766.763	1333.57
766.946	1333.57
767.129	1337.66
767.312	1253.7
767.495	1298.75
767.678	1247.55
767.861	1282.37
768.044	1231.17
768.227	1288.51
768.41	1296.71
768.593	1237.31
768.776	1220.93
768.959	1206.59
769.142	1173.83
769.324	1222.98
769.507	1216.83
769.69	1204.55
769.873	1231.17
770.056	1177.92
770.239	1161.54
770.421	1270.08
770.604	1200.45
770.787	1204.55
770.97	1112.39
771.152	1134.92
771.335	1157.44
771.518	1175.88
771.7	1177.92
771.883	1177.92
772.066	1102.15
772.248	1171.78
772.431	1063.24
772.613	1116.48
772.796	1036.61
772.978	1149.25
773.161	1126.72
773.343	1089.86
773.526	1124.68
773.708	1075.52
773.891	1044.81
774.073	923.98
774.256	1057.09
774.438	1155.4
774.621	964.93
774.803	1048.9
774.985	1042.76
775.168	1057.09
775.35	973.13
775.532	975.17
775.715	1012.04
775.897	1009.99
776.079	991.56
776.261	1055.05
776.444	948.55
776.626	1030.47
776.808	1012.04
776.99	909.64
777.173	940.36
777.355	846.15
777.537	887.11
777.719	887.11
777.901	837.96
778.083	911.69
778.265	852.3
778.447	887.11
778.629	934.22
778.811	813.38
778.993	872.78
779.175	905.54
779.357	909.64
779.539	780.62
779.721	880.97
779.903	825.67
780.085	743.75
780.267	758.09
780.449	753.99
780.631	883.02
780.812	737.61
780.994	770.38
781.176	756.04
781.358	817.48
781.54	753.99
781.721	770.38
781.903	774.47
782.085	825.67
782.267	688.46
782.448	688.46
782.63	698.7
782.812	737.61
782.993	651.6
783.175	766.28
783.357	733.51
783.538	618.83
783.72	760.14
783.901	588.11
784.083	688.46
784.264	651.6
784.446	684.36
784.627	624.97
784.809	661.84
784.99	645.45
785.172	606.54
785.353	665.93
785.535	659.79
785.716	651.6
785.897	667.98
786.079	577.87
786.26	551.24
786.441	473.42
786.623	588.11
786.804	598.35
786.985	610.64
787.167	557.39
787.348	577.87
787.529	549.2
787.71	581.96
787.891	629.07
788.073	565.58
788.254	614.73
788.435	604.49
788.616	500.05
788.797	561.48
788.978	588.11
789.159	504.14
789.34	534.86
789.522	457.04
789.703	440.65
789.884	541.01
790.065	508.24
790.246	571.72
790.427	534.86
790.607	491.85
790.788	588.11
790.969	473.42
791.15	573.77
791.331	444.75
791.512	514.38
791.693	508.24
791.874	373.07
792.054	459.09
792.235	506.19
792.416	407.89
792.597	487.76
792.778	418.13
792.958	477.52
793.139	450.89
793.32	463.18
793.5	457.04
793.681	452.94
793.862	450.89
794.042	467.28
794.223	371.02
794.404	414.03
794.584	446.8
794.765	407.89
794.945	395.6
795.126	508.24
795.306	446.8
795.487	446.8
795.667	299.34
795.848	454.99
796.028	356.69
796.209	434.51
796.389	457.04
796.57	428.37
796.75	366.93
796.93	366.93
797.111	239.95
797.291	407.89
797.471	416.08
797.652	350.54
797.832	356.69
798.012	432.46
798.192	360.78
798.373	383.31
798.553	428.37
798.733	334.16
798.913	332.11
799.093	344.4
799.274	389.46
799.454	338.26
799.634	383.31
799.814	428.37
799.994	395.6
800.174	387.41
800.354	364.88
800.534	270.67
800.714	307.54
800.894	303.44
801.074	338.26
801.254	311.63
801.434	377.17
801.614	219.47
801.794	397.65
801.974	790.86
802.154	303.44
802.334	336.21
802.514	295.25
802.693	252.24
802.873	303.44
803.053	401.74
803.233	297.3
803.413	330.06
803.592	364.88
803.772	319.82
803.952	231.76
804.131	328.02
804.311	274.77
804.491	307.54
804.67	289.1
804.85	229.71
805.03	266.58
805.209	299.34
805.389	330.06
805.568	270.67
805.748	295.25
805.928	348.5
806.107	336.21
806.287	309.58
806.466	242
806.646	338.26
806.825	239.95
807.004	289.1
807.184	217.43
807.363	270.67
807.543	274.77
807.722	235.86
807.901	211.28
808.081	270.67
808.26	242
808.439	233.81
808.619	276.82
808.798	293.2
808.977	287.06
809.156	291.15
809.336	211.28
809.515	344.4
809.694	184.66
809.873	285.01
810.052	297.3
810.231	315.73
810.411	149.84
810.59	162.13
810.769	295.25
810.948	205.14
811.127	201.04
811.306	237.91
811.485	223.57
811.664	282.96
811.843	242
812.022	125.27
812.201	252.24
812.38	262.48
812.559	272.72
812.737	242
812.916	219.47
813.095	213.33
813.274	231.76
813.453	248.15
813.632	215.38
813.811	242
813.989	172.37
814.168	155.99
814.347	233.81
814.526	266.58
814.704	246.1
814.883	244.05
815.062	252.24
815.24	260.43
815.419	137.56
815.598	219.47
815.776	158.03
815.955	260.43
816.133	178.51
816.312	201.04
816.49	155.99
816.669	196.95
816.847	198.99
817.026	239.95
817.204	211.28
817.383	246.1
817.561	235.86
817.74	219.47
817.918	223.57
818.097	207.19
818.275	137.56
818.453	174.42
818.632	196.95
818.81	229.71
818.988	248.15
819.167	174.42
819.345	190.8
819.523	149.84
819.701	237.91
819.879	137.56
820.058	94.55
820.236	110.93
820.414	153.94
820.592	233.81
820.77	166.23
820.948	194.9
821.127	248.15
821.305	160.08
821.483	153.94
821.661	117.08
821.839	190.8
822.017	176.47
822.195	145.75
822.373	104.79
822.551	121.17
822.729	244.05
822.907	194.9
823.085	166.23
823.262	188.75
823.44	176.47
823.618	139.6
823.796	172.37
823.974	174.42
824.152	172.37
824.329	223.57
824.507	223.57
824.685	131.41
824.863	145.75
825.04	174.42
825.218	72.02
825.396	155.99
825.574	198.99
825.751	121.17
825.929	141.65
826.107	117.08
826.284	170.32
826.462	213.33
826.639	102.74
826.817	129.36
826.994	137.56
827.172	98.64
827.349	182.61
827.527	153.94
827.704	78.16
827.882	104.79
828.059	164.18
828.237	119.12
828.414	149.84
828.591	162.13
828.769	69.97
828.946	67.92
829.124	196.95
829.301	198.99
829.478	110.93
829.655	151.89
829.833	57.68
830.01	57.68
830.187	43.35
830.364	133.46
830.542	55.64
830.719	145.75
830.896	137.56
831.073	102.74
831.25	80.21
831.427	26.96
831.604	207.19
831.782	123.22
831.959	90.45
832.136	100.69
832.313	106.84
832.49	141.65
832.667	84.31
832.844	90.45
833.021	133.46
833.198	112.98
833.374	121.17
833.551	201.04
833.728	153.94
833.905	151.89
834.082	65.88
834.259	108.88
834.436	137.56
834.612	45.4
834.789	166.23
834.966	74.07
835.143	145.75
835.319	78.16
835.496	104.79
835.673	49.49
835.85	155.99
836.026	149.84
836.203	145.75
836.38	82.26
836.556	149.84
836.733	104.79
836.909	92.5
837.086	67.92
837.262	145.75
837.439	92.5
837.616	100.69
837.792	78.16
837.968	141.65
838.145	104.79
838.321	2.39
838.498	10.58
838.674	168.27
838.851	-30.38
839.027	82.26
839.203	115.03
839.38	86.36
839.556	102.74
839.732	82.26
839.909	166.23
840.085	119.12
840.261	69.97
840.437	55.64
840.614	100.69
840.79	106.84
840.966	90.45
841.142	143.7
841.318	102.74
841.494	80.21
841.671	174.42
841.847	96.6
842.023	92.5
842.199	102.74
842.375	84.31
842.551	57.68
842.727	33.11
842.903	102.74
843.079	112.98
843.255	100.69
843.431	74.07
843.607	108.88
843.783	115.03
843.959	119.12
844.134	69.97
844.31	164.18
844.486	84.31
844.662	92.5
844.838	94.55
845.013	26.96
845.189	117.08
845.365	47.44
845.541	26.96
845.716	69.97
845.892	45.4
846.068	65.88
846.244	33.11
846.419	74.07
846.595	49.49
846.77	76.12
846.946	78.16
847.122	123.22
847.297	135.51
847.473	96.6
847.648	55.64
847.824	88.4
847.999	53.59
848.175	82.26
848.35	72.02
848.526	127.32
848.701	24.92
848.876	69.97
849.052	88.4
849.227	39.25
849.403	102.74
849.578	45.4
849.753	37.2
849.929	37.2
850.104	35.16
850.279	69.97
850.454	14.68
850.63	84.31
850.805	4.44
850.98	57.68
851.155	82.26
851.33	106.84
851.505	43.35
851.681	139.6
851.856	51.54
852.031	55.64
852.206	100.69
852.381	-11.95
852.556	-28.33
852.731	102.74
852.906	63.83
853.081	51.54
853.256	12.63
853.431	115.03
853.606	57.68
853.781	22.87
853.956	18.77
854.131	14.68
854.305	80.21
854.48	10.58
854.655	39.25
854.83	90.45
855.005	74.07
855.18	53.59
855.354	51.54
855.529	37.2
855.704	29.01
855.879	139.6
856.053	39.25
856.228	29.01
856.403	4.44
856.577	43.35
856.752	94.55
856.926	-3.75
857.101	63.83
857.276	88.4
857.45	123.22
857.625	86.36
857.799	8.53
857.974	45.4
858.148	2.39
858.323	94.55
858.497	123.22
858.672	45.4
858.846	82.26
859.02	82.26
859.195	12.63
859.369	98.64
859.543	37.2
859.718	108.88
859.892	69.97
860.066	6.49
860.241	6.49
860.415	69.97
860.589	45.4
860.763	31.06
860.938	-50.86
861.112	92.5
861.286	61.78
861.46	39.25
861.634	94.55
861.808	65.88
861.982	43.35
862.157	0.34
862.331	59.73
862.505	45.4
862.679	22.87
862.853	74.07
863.027	41.3
863.201	78.16
863.375	98.64
863.549	53.59
863.722	86.36
863.896	121.17
864.07	24.92
864.244	22.87
864.418	110.93
864.592	53.59
864.766	76.12
864.939	92.5
865.113	-9.9
865.287	141.65
865.461	65.88
865.634	72.02
865.808	12.63
865.982	14.68
866.156	31.06
866.329	-3.75
866.503	55.64
866.676	55.64
866.85	59.73
867.024	-18.09
867.197	18.77
867.371	43.35
867.544	-40.62
867.718	-13.99
867.891	59.73
868.065	-28.33
868.238	121.17
868.412	80.21
868.585	0.34
868.759	-50.86
868.932	-22.19
869.105	43.35
869.279	-3.75
869.452	31.06
869.625	110.93
869.799	12.63
869.972	18.77
870.145	-26.28
870.319	-11.95
870.492	18.77
870.665	115.03
870.838	-26.28
871.011	-16.04
871.185	26.96
871.358	-54.95
871.531	16.73
871.704	41.3
871.877	65.88
872.05	-9.9
872.223	-16.04
872.396	162.13
872.569	63.83
872.742	69.97
872.915	82.26
873.088	26.96
873.261	37.2
873.434	63.83
873.607	33.11
873.78	37.2
873.953	37.2
874.126	20.82
874.299	-3.75
874.471	31.06
874.644	4.44
874.817	55.64
874.99	72.02
875.163	47.44
875.335	-18.09
875.508	80.21
875.681	65.88
875.853	41.3
876.026	-3.75
876.199	-40.62
876.371	22.87
876.544	39.25
876.717	16.73
876.889	59.73
877.062	63.83
877.234	-24.23
877.407	53.59
877.579	20.82
877.752	-16.04
877.924	53.59
878.097	-1.71
878.269	102.74
878.442	94.55
878.614	18.77
878.786	29.01
878.959	37.2
879.131	55.64
879.303	37.2
879.476	20.82
879.648	2.39
879.82	-3.75
879.993	43.35
880.165	72.02
880.337	41.3
880.509	-22.19
880.681	26.96
880.854	35.16
881.026	45.4
881.198	133.46
881.37	43.35
881.542	69.97
881.714	57.68
881.886	69.97
882.058	43.35
882.23	10.58
882.402	-59.05
882.574	43.35
882.746	61.78
882.918	24.92
883.09	0.34
883.262	-5.8
883.434	63.83
883.606	26.96
883.778	33.11
883.95	96.6
884.122	-5.8
884.293	92.5
884.465	-63.15
884.637	31.06
884.809	33.11
884.98	10.58
885.152	-7.85
885.324	14.68
885.496	-73.39
885.667	45.4
885.839	24.92
886.011	22.87
886.182	2.39
886.354	37.2
886.525	-50.86
886.697	16.73
886.869	-32.43
887.04	90.45
887.212	-1.71
887.383	-30.38
887.555	69.97
887.726	57.68
887.897	26.96
888.069	18.77
888.24	14.68
888.412	-24.23
888.583	47.44
888.754	29.01
888.926	-24.23
889.097	24.92
889.268	-34.47
889.44	10.58
889.611	-32.43
889.782	94.55
889.953	-48.81
890.125	45.4
890.296	-7.85
890.467	67.92
890.638	29.01
890.809	72.02
890.98	-46.76
891.151	49.49
891.323	-44.71
891.494	43.35
891.665	2.39
891.836	74.07
892.007	74.07
892.178	-7.85
892.349	57.68
892.52	22.87
892.691	49.49
892.862	-16.04
893.032	-9.9
893.203	-20.14
893.374	67.92
893.545	12.63
893.716	39.25
893.887	24.92
894.057	-16.04
894.228	55.64
894.399	-50.86
894.57	41.3
894.74	-28.33
894.911	78.16
895.082	-20.14
895.253	43.35
895.423	-67.24
895.594	20.82
895.764	69.97
895.935	-26.28
896.106	35.16
896.276	-26.28
896.447	61.78
896.617	-40.62
896.788	-24.23
896.958	115.03
897.129	-36.52
897.299	65.88
897.47	8.53
897.64	-18.09
897.81	-36.52
897.981	76.12
898.151	104.79
898.322	41.3
898.492	37.2
898.662	37.2
898.832	-75.43
899.003	-26.28
899.173	18.77
899.343	-20.14
899.513	-5.8
