Data from USB4F104151__43__12-27-24-722.txt Node

Date: Fri Mar 14 12:27:24 EDT 2025
User: louis
Spectrometer: USB4F10415
Trigger mode: 4
Integration Time (sec): 2.000000E-2
Scans to average: 1
Electric dark correction enabled: true
Nonlinearity correction enabled: false
Boxcar width: 0
XAxis mode: Wavelengths
Number of Pixels in Spectrum: 3648
>>>>>Begin Spectral Data<<<<<
178.204	-40.96
178.424	-40.96
178.644	-40.96
178.864	-104.45
179.084	-116.73
179.304	57.34
179.524	12.29
179.744	51.2
179.964	-45.06
180.184	-28.67
180.404	45.06
180.624	-83.97
180.844	-55.3
181.064	-38.91
181.283	14.34
181.503	34.82
181.723	36.86
181.943	34.82
182.163	30.72
182.383	22.53
182.602	86.01
182.822	47.1
183.042	-40.96
183.262	32.77
183.482	0
183.701	18.43
183.921	-14.34
184.141	61.44
184.361	20.48
184.58	38.91
184.8	38.91
185.02	8.19
185.239	94.21
185.459	-38.91
185.679	38.91
185.898	-32.77
186.118	-24.58
186.338	59.39
186.557	55.3
186.777	-24.58
186.997	-6.14
187.216	-51.2
187.436	18.43
187.655	-8.19
187.875	69.63
188.095	-40.96
188.314	47.1
188.534	40.96
188.753	30.72
188.973	86.01
189.192	53.25
189.412	45.06
189.631	77.82
189.851	-2.05
190.07	28.67
190.29	2.05
190.509	4.1
190.729	-6.14
190.948	6.14
191.168	90.11
191.387	28.67
191.607	-20.48
191.826	-8.19
192.045	-36.86
192.265	-16.38
192.484	45.06
192.704	55.3
192.923	6.14
193.142	51.2
193.362	14.34
193.581	38.91
193.8	8.19
194.02	-30.72
194.239	26.62
194.458	14.34
194.678	-8.19
194.897	75.77
195.116	63.49
195.335	-14.34
195.555	-45.06
195.774	-2.05
195.993	55.3
196.212	28.67
196.432	2.05
196.651	133.12
196.87	-2.05
197.089	51.2
197.308	36.86
197.528	-30.72
197.747	-4.1
197.966	63.49
198.185	53.25
198.404	-26.62
198.623	120.83
198.842	20.48
199.062	129.02
199.281	149.5
199.5	-24.58
199.719	-14.34
199.938	22.53
200.157	61.44
200.376	108.54
200.595	73.73
200.814	14.34
201.033	-22.53
201.252	34.82
201.471	102.4
201.69	77.82
201.909	51.2
202.128	-6.14
202.347	-2.05
202.566	45.06
202.785	-14.34
203.004	14.34
203.223	32.77
203.442	86.01
203.661	6.14
203.879	22.53
204.098	114.69
204.317	-14.34
204.536	-10.24
204.755	-12.29
204.974	28.67
205.193	51.2
205.411	79.87
205.63	-30.72
205.849	47.1
206.068	14.34
206.287	14.34
206.505	51.2
206.724	53.25
206.943	2.05
207.162	-63.49
207.381	0
207.599	-30.72
207.818	14.34
208.037	75.77
208.255	-2.05
208.474	49.15
208.693	-8.19
208.911	59.39
209.13	-16.38
209.349	61.44
209.567	63.49
209.786	6.14
210.005	18.43
210.223	26.62
210.442	26.62
210.661	28.67
210.879	14.34
211.098	-30.72
211.316	94.21
211.535	36.86
211.753	75.77
211.972	16.38
212.191	-12.29
212.409	51.2
212.628	-18.43
212.846	16.38
213.065	16.38
213.283	86.01
213.502	-34.82
213.72	28.67
213.938	10.24
214.157	4.1
214.375	-12.29
214.594	0
214.812	32.77
215.031	16.38
215.249	6.14
215.467	-4.1
215.686	-30.72
215.904	30.72
216.122	-2.05
216.341	88.06
216.559	26.62
216.778	34.82
216.996	36.86
217.214	30.72
217.432	61.44
217.651	-16.38
217.869	18.43
218.087	-53.25
218.306	47.1
218.524	51.2
218.742	-8.19
218.96	4.1
219.179	6.14
219.397	12.29
219.615	-10.24
219.833	-16.38
220.051	-36.86
220.27	28.67
220.488	36.86
220.706	51.2
220.924	49.15
221.142	88.06
221.36	43.01
221.578	22.53
221.796	-63.49
222.015	22.53
222.233	-4.1
222.451	116.73
222.669	6.14
222.887	55.3
223.105	24.58
223.323	14.34
223.541	36.86
223.759	-36.86
223.977	-8.19
224.195	69.63
224.413	16.38
224.631	-10.24
224.849	-4.1
225.067	28.67
225.285	53.25
225.503	40.96
225.721	-20.48
225.939	-2.05
226.157	28.67
226.375	53.25
226.592	-98.3
226.81	53.25
227.028	-12.29
227.246	90.11
227.464	-6.14
227.682	14.34
227.9	24.58
228.117	34.82
228.335	-28.67
228.553	73.73
228.771	65.54
228.989	81.92
229.206	75.77
229.424	63.49
229.642	51.2
229.86	-30.72
230.077	63.49
230.295	22.53
230.513	16.38
230.731	108.54
230.948	94.21
231.166	2.05
231.384	-2.05
231.601	26.62
231.819	86.01
232.037	16.38
232.254	79.87
232.472	63.49
232.689	-26.62
232.907	63.49
233.125	16.38
233.342	-2.05
233.56	-16.38
233.777	16.38
233.995	55.3
234.213	53.25
234.43	-34.82
234.648	32.77
234.865	43.01
235.083	34.82
235.3	53.25
235.518	116.73
235.735	69.63
235.953	59.39
236.17	18.43
236.388	36.86
236.605	69.63
236.822	28.67
237.04	38.91
237.257	30.72
237.475	63.49
237.692	69.63
237.909	81.92
238.127	-28.67
238.344	67.58
238.562	-8.19
238.779	-53.25
238.996	-24.58
239.214	18.43
239.431	-12.29
239.648	55.3
239.865	12.29
240.083	69.63
240.3	28.67
240.517	-6.14
240.735	34.82
240.952	-4.1
241.169	94.21
241.386	59.39
241.603	40.96
241.821	10.24
242.038	71.68
242.255	49.15
242.472	47.1
242.689	49.15
242.907	118.78
243.124	16.38
243.341	-88.06
243.558	14.34
243.775	34.82
243.992	8.19
244.209	61.44
244.426	55.3
244.643	65.54
244.86	8.19
245.078	79.87
245.295	-47.1
245.512	57.34
245.729	75.77
245.946	-4.1
246.163	57.34
246.38	14.34
246.597	8.19
246.814	-20.48
247.031	6.14
247.248	55.3
247.464	71.68
247.681	-36.86
247.898	24.58
248.115	77.82
248.332	-26.62
248.549	102.4
248.766	0
248.983	49.15
249.2	-40.96
249.417	59.39
249.633	73.73
249.85	18.43
250.067	4.1
250.284	6.14
250.501	-10.24
250.717	40.96
250.934	45.06
251.151	-55.3
251.368	8.19
251.585	34.82
251.801	53.25
252.018	10.24
252.235	0
252.451	-4.1
252.668	-2.05
252.885	47.1
253.102	122.88
253.318	77.82
253.535	51.2
253.752	-12.29
253.968	-24.58
254.185	-6.14
254.401	18.43
254.618	10.24
254.835	32.77
255.051	86.01
255.268	24.58
255.484	83.97
255.701	36.86
255.917	55.3
256.134	-36.86
256.351	51.2
256.567	-67.58
256.784	16.38
257	-6.14
257.217	75.77
257.433	24.58
257.65	53.25
257.866	45.06
258.082	-4.1
258.299	4.1
258.515	49.15
258.732	-8.19
258.948	45.06
259.165	-92.16
259.381	-28.67
259.597	-73.73
259.814	43.01
260.03	71.68
260.246	28.67
260.463	6.14
260.679	-4.1
260.895	-2.05
261.112	22.53
261.328	43.01
261.544	65.54
261.761	73.73
261.977	-28.67
262.193	-22.53
262.409	86.01
262.626	22.53
262.842	14.34
263.058	18.43
263.274	71.68
263.49	90.11
263.707	51.2
263.923	-14.34
264.139	8.19
264.355	-8.19
264.571	26.62
264.787	34.82
265.004	-16.38
265.22	51.2
265.436	14.34
265.652	83.97
265.868	32.77
266.084	-2.05
266.3	-18.43
266.516	-71.68
266.732	94.21
266.948	38.91
267.164	-4.1
267.38	26.62
267.596	-30.72
267.812	98.3
268.028	36.86
268.244	-34.82
268.46	30.72
268.676	30.72
268.892	38.91
269.108	38.91
269.324	40.96
269.54	86.01
269.756	-24.58
269.972	65.54
270.188	26.62
270.403	47.1
270.619	6.14
270.835	51.2
271.051	-16.38
271.267	10.24
271.483	28.67
271.698	-2.05
271.914	6.14
272.13	-20.48
272.346	14.34
272.562	-49.15
272.777	-24.58
272.993	51.2
273.209	38.91
273.425	96.25
273.64	32.77
273.856	65.54
274.072	40.96
274.287	18.43
274.503	47.1
274.719	12.29
274.934	-22.53
275.15	47.1
275.366	26.62
275.581	65.54
275.797	51.2
276.012	-71.68
276.228	10.24
276.444	34.82
276.659	-32.77
276.875	10.24
277.09	-18.43
277.306	71.68
277.521	-22.53
277.737	16.38
277.952	-8.19
278.168	26.62
278.383	30.72
278.599	-18.43
278.814	51.2
279.03	-6.14
279.245	51.2
279.461	149.5
279.676	38.91
279.892	-51.2
280.107	0
280.322	10.24
280.538	16.38
280.753	2.05
280.969	108.54
281.184	90.11
281.399	14.34
281.615	43.01
281.83	-30.72
282.045	0
282.26	-10.24
282.476	-2.05
282.691	36.86
282.906	22.53
283.122	45.06
283.337	26.62
283.552	-4.1
283.767	-67.58
283.983	22.53
284.198	45.06
284.413	32.77
284.628	-34.82
284.843	14.34
285.058	-45.06
285.274	59.39
285.489	-8.19
285.704	51.2
285.919	-6.14
286.134	92.16
286.349	55.3
286.564	63.49
286.779	8.19
286.995	57.34
287.21	36.86
287.425	10.24
287.64	26.62
287.855	-4.1
288.07	53.25
288.285	51.2
288.5	43.01
288.715	30.72
288.93	-47.1
289.145	36.86
289.36	45.06
289.575	61.44
289.79	-18.43
290.004	22.53
290.219	38.91
290.434	24.58
290.649	12.29
290.864	-47.1
291.079	6.14
291.294	10.24
291.509	73.73
291.724	47.1
291.938	16.38
292.153	-10.24
292.368	32.77
292.583	-10.24
292.798	40.96
293.012	-20.48
293.227	-14.34
293.442	53.25
293.657	34.82
293.871	75.77
294.086	24.58
294.301	96.25
294.516	18.43
294.73	30.72
294.945	-45.06
295.16	-4.1
295.374	98.3
295.589	51.2
295.804	10.24
296.018	-57.34
296.233	-12.29
296.447	51.2
296.662	43.01
296.877	30.72
297.091	26.62
297.306	-12.29
297.52	8.19
297.735	16.38
297.949	61.44
298.164	59.39
298.378	100.35
298.593	24.58
298.807	-4.1
299.022	71.68
299.236	4.1
299.451	43.01
299.665	-32.77
299.88	26.62
300.094	-47.1
300.309	53.25
300.523	36.86
300.737	14.34
300.952	81.92
301.166	32.77
301.381	36.86
301.595	61.44
301.809	-14.34
302.024	34.82
302.238	-20.48
302.452	6.14
302.667	22.53
302.881	108.54
303.095	71.68
303.309	-22.53
303.524	-14.34
303.738	-4.1
303.952	59.39
304.166	2.05
304.381	-8.19
304.595	116.73
304.809	-40.96
305.023	14.34
305.237	49.15
305.452	6.14
305.666	-2.05
305.88	38.91
306.094	34.82
306.308	-16.38
306.522	24.58
306.736	67.58
306.95	-10.24
307.164	59.39
307.379	22.53
307.593	135.17
307.807	26.62
308.021	-36.86
308.235	8.19
308.449	43.01
308.663	16.38
308.877	83.97
309.091	4.1
309.305	24.58
309.519	38.91
309.733	63.49
309.947	8.19
310.161	47.1
310.374	43.01
310.588	116.73
310.802	4.1
311.016	65.54
311.23	63.49
311.444	90.11
311.658	71.68
311.872	24.58
312.085	79.87
312.299	-30.72
312.513	16.38
312.727	75.77
312.941	73.73
313.154	65.54
313.368	116.73
313.582	14.34
313.796	34.82
314.009	77.82
314.223	26.62
314.437	28.67
314.651	0
314.864	20.48
315.078	34.82
315.292	45.06
315.505	71.68
315.719	77.82
315.933	47.1
316.146	73.73
316.36	-26.62
316.573	18.43
316.787	116.73
317.001	18.43
317.214	53.25
317.428	0
317.641	55.3
317.855	30.72
318.068	96.25
318.282	22.53
318.495	110.59
318.709	88.06
318.922	8.19
319.136	20.48
319.349	73.73
319.563	49.15
319.776	55.3
319.99	14.34
320.203	-8.19
320.417	59.39
320.63	-28.67
320.843	81.92
321.057	116.73
321.27	34.82
321.483	49.15
321.697	28.67
321.91	6.14
322.124	49.15
322.337	71.68
322.55	-28.67
322.763	20.48
322.977	38.91
323.19	12.29
323.403	-6.14
323.617	26.62
323.83	32.77
324.043	6.14
324.256	22.53
324.469	83.97
324.683	-8.19
324.896	4.1
325.109	49.15
325.322	20.48
325.535	40.96
325.748	49.15
325.962	69.63
326.175	92.16
326.388	2.05
326.601	12.29
326.814	-10.24
327.027	45.06
327.24	110.59
327.453	28.67
327.666	-10.24
327.879	65.54
328.092	49.15
328.305	24.58
328.518	-83.97
328.731	14.34
328.944	-18.43
329.157	2.05
329.37	-10.24
329.583	86.01
329.796	55.3
330.009	75.77
330.222	24.58
330.435	14.34
330.648	6.14
330.861	43.01
331.073	43.01
331.286	53.25
331.499	20.48
331.712	14.34
331.925	-10.24
332.138	67.58
332.35	57.34
332.563	-40.96
332.776	86.01
332.989	16.38
333.202	94.21
333.414	16.38
333.627	38.91
333.84	40.96
334.053	-10.24
334.265	51.2
334.478	0
334.691	28.67
334.903	45.06
335.116	20.48
335.329	-47.1
335.541	65.54
335.754	67.58
335.966	4.1
336.179	22.53
336.392	47.1
336.604	-4.1
336.817	10.24
337.029	47.1
337.242	26.62
337.454	-20.48
337.667	73.73
337.88	61.44
338.092	-6.14
338.305	-4.1
338.517	-20.48
338.729	126.97
338.942	59.39
339.154	43.01
339.367	4.1
339.579	92.16
339.792	34.82
340.004	131.07
340.217	-16.38
340.429	34.82
340.641	-4.1
340.854	-32.77
341.066	20.48
341.278	18.43
341.491	63.49
341.703	32.77
341.915	-14.34
342.128	141.31
342.34	-2.05
342.552	30.72
342.764	28.67
342.977	51.2
343.189	38.91
343.401	28.67
343.613	20.48
343.826	92.16
344.038	14.34
344.25	143.36
344.462	92.16
344.674	69.63
344.886	10.24
345.099	32.77
345.311	-22.53
345.523	77.82
345.735	24.58
345.947	88.06
346.159	32.77
346.371	8.19
346.583	-36.86
346.795	98.3
347.007	-73.73
347.219	57.34
347.431	-32.77
347.643	118.78
347.855	63.49
348.067	28.67
348.279	104.45
348.491	4.1
348.703	110.59
348.915	45.06
349.127	55.3
349.339	67.58
349.551	20.48
349.763	92.16
349.975	24.58
350.187	69.63
350.399	98.3
350.61	16.38
350.822	14.34
351.034	73.73
351.246	-16.38
351.458	36.86
351.669	47.1
351.881	59.39
352.093	118.78
352.305	94.21
352.517	-24.58
352.728	61.44
352.94	22.53
353.152	24.58
353.363	30.72
353.575	-16.38
353.787	-4.1
353.999	-22.53
354.21	67.58
354.422	53.25
354.633	63.49
354.845	18.43
355.057	14.34
355.268	8.19
355.48	2.05
355.692	83.97
355.903	51.2
356.115	8.19
356.326	28.67
356.538	90.11
356.749	38.91
356.961	83.97
357.172	32.77
357.384	14.34
357.595	28.67
357.807	75.77
358.018	81.92
358.23	14.34
358.441	12.29
358.653	141.31
358.864	32.77
359.075	43.01
359.287	14.34
359.498	32.77
359.709	-34.82
359.921	94.21
360.132	36.86
360.344	6.14
360.555	24.58
360.766	77.82
360.977	116.73
361.189	-24.58
361.4	-22.53
361.611	45.06
361.823	2.05
362.034	45.06
362.245	18.43
362.456	8.19
362.667	94.21
362.879	-2.05
363.09	59.39
363.301	59.39
363.512	24.58
363.723	6.14
363.935	26.62
364.146	30.72
364.357	49.15
364.568	47.1
364.779	6.14
364.99	114.69
365.201	0
365.412	65.54
365.623	-55.3
365.834	73.73
366.045	24.58
366.256	16.38
366.467	-28.67
366.678	6.14
366.889	26.62
367.1	81.92
367.311	61.44
367.522	20.48
367.733	65.54
367.944	63.49
368.155	12.29
368.366	43.01
368.577	90.11
368.788	16.38
368.999	63.49
369.209	53.25
369.42	124.93
369.631	16.38
369.842	12.29
370.053	-10.24
370.264	55.3
370.474	55.3
370.685	108.54
370.896	-8.19
371.107	61.44
371.317	83.97
371.528	92.16
371.739	38.91
371.95	55.3
372.16	77.82
372.371	98.3
372.582	40.96
372.792	18.43
373.003	55.3
373.214	-8.19
373.424	55.3
373.635	51.2
373.846	114.69
374.056	30.72
374.267	32.77
374.477	-51.2
374.688	57.34
374.898	-20.48
375.109	-16.38
375.319	-2.05
375.53	24.58
375.74	36.86
375.951	94.21
376.161	18.43
376.372	36.86
376.582	30.72
376.793	92.16
377.003	16.38
377.214	-20.48
377.424	30.72
377.635	73.73
377.845	18.43
378.055	61.44
378.266	114.69
378.476	14.34
378.686	69.63
378.897	45.06
379.107	22.53
379.317	86.01
379.528	16.38
379.738	83.97
379.948	34.82
380.158	28.67
380.369	8.19
380.579	98.3
380.789	14.34
380.999	20.48
381.21	73.73
381.42	40.96
381.63	28.67
381.84	36.86
382.05	-26.62
382.261	43.01
382.471	57.34
382.681	81.92
382.891	88.06
383.101	-22.53
383.311	49.15
383.521	-6.14
383.731	-40.96
383.941	118.78
384.151	63.49
384.361	69.63
384.571	16.38
384.781	36.86
384.991	86.01
385.201	47.1
385.411	38.91
385.621	83.97
385.831	90.11
386.041	20.48
386.251	20.48
386.461	88.06
386.671	83.97
386.881	14.34
387.091	73.73
387.301	106.49
387.511	118.78
387.72	40.96
387.93	47.1
388.14	38.91
388.35	0
388.56	94.21
388.769	106.49
388.979	77.82
389.189	10.24
389.399	43.01
389.609	2.05
389.818	81.92
390.028	92.16
390.238	112.64
390.447	-2.05
390.657	67.58
390.867	67.58
391.076	12.29
391.286	59.39
391.496	45.06
391.705	47.1
391.915	114.69
392.125	86.01
392.334	59.39
392.544	120.83
392.753	14.34
392.963	61.44
393.172	36.86
393.382	59.39
393.591	100.35
393.801	36.86
394.01	116.73
394.22	40.96
394.429	53.25
394.639	94.21
394.848	86.01
395.058	49.15
395.267	59.39
395.477	40.96
395.686	71.68
395.895	22.53
396.105	157.69
396.314	59.39
396.524	131.07
396.733	-2.05
396.942	88.06
397.152	26.62
397.361	157.69
397.57	133.12
397.78	96.25
397.989	108.54
398.198	53.25
398.407	71.68
398.617	106.49
398.826	38.91
399.035	96.25
399.244	151.55
399.453	83.97
399.663	108.54
399.872	110.59
400.081	102.4
400.29	30.72
400.499	63.49
400.708	137.21
400.917	40.96
401.127	4.1
401.336	122.88
401.545	169.98
401.754	98.3
401.963	112.64
402.172	106.49
402.381	143.36
402.59	59.39
402.799	114.69
403.008	133.12
403.217	151.55
403.426	114.69
403.635	100.35
403.844	157.69
404.053	143.36
404.262	126.97
404.471	180.22
404.68	120.83
404.888	122.88
405.097	145.41
405.306	165.89
405.515	194.56
405.724	155.65
405.933	129.02
406.142	145.41
406.35	145.41
406.559	133.12
406.768	139.26
406.977	118.78
407.185	256
407.394	188.41
407.603	141.31
407.812	221.18
408.02	256
408.229	143.36
408.438	221.18
408.646	190.46
408.855	116.73
409.064	178.17
409.272	223.23
409.481	256
409.69	305.15
409.898	241.66
410.107	309.24
410.315	327.68
410.524	278.52
410.733	276.48
410.941	309.24
411.15	325.63
411.358	313.34
411.567	415.74
411.775	309.24
411.984	339.96
412.192	438.27
412.401	376.83
412.609	421.88
412.818	444.41
413.026	413.69
413.234	448.51
413.443	503.8
413.651	452.6
413.86	421.88
414.068	520.18
414.276	532.47
414.485	542.71
414.693	557.05
414.901	634.87
415.11	569.34
415.318	679.93
415.526	595.96
415.734	694.26
415.943	792.56
416.151	747.51
416.359	825.33
416.567	741.36
416.776	794.61
416.984	886.77
417.192	890.87
417.4	931.83
417.608	903.15
417.817	880.63
418.025	1007.6
418.233	1093.62
418.441	1103.86
418.649	1042.42
418.857	1124.33
419.065	1224.69
419.273	1130.48
419.481	1171.44
419.689	1251.31
419.897	1325.04
420.105	1406.95
420.313	1363.95
420.521	1372.14
420.729	1527.78
420.937	1554.41
421.145	1607.66
421.353	1714.15
421.561	1701.86
421.769	1802.21
421.977	1908.71
422.185	1796.07
422.393	1931.23
422.601	2158.56
422.809	1935.33
423.017	2015.2
423.224	2152.42
423.432	2236.38
423.64	2260.96
423.848	2412.51
424.056	2353.12
424.263	2602.97
424.471	2623.45
424.679	2709.46
424.887	2785.24
425.094	2822.1
425.302	2973.65
425.51	2947.03
425.718	3176.4
425.925	3004.37
426.133	3241.93
426.341	3436.49
426.548	3487.69
426.756	3633.1
426.964	3557.32
427.171	3710.92
427.379	3928
427.586	4061.12
427.794	4161.47
428.001	4331.45
428.209	4495.29
428.417	4476.86
428.624	4669.37
428.832	4837.3
429.039	4753.34
429.247	4569.02
429.454	5210.03
429.662	5670.83
429.869	5201.84
430.076	5533.61
430.284	5414.83
430.491	5691.31
430.699	5982.12
430.906	5978.02
431.114	6031.27
431.321	6287.26
431.528	6416.29
431.736	6678.43
431.943	7040.92
432.15	6784.92
432.358	6866.84
432.565	7229.33
432.772	7198.61
432.979	7673.74
433.187	7667.59
433.394	8030.09
433.601	8284.03
433.808	8624
434.016	8124.29
434.223	8447.87
434.43	9232.24
434.637	8988.53
434.844	9568.11
435.052	9903.98
435.259	9715.56
435.466	9787.24
435.673	9719.66
435.88	10379.11
436.087	10860.38
436.294	10993.5
436.501	10569.57
436.708	10952.54
436.915	11269.97
437.122	11685.71
437.329	11562.83
437.537	12136.26
437.743	12347.2
437.95	12279.62
438.157	12867.39
438.364	13205.3
438.571	13246.26
438.778	13162.3
438.985	14636.83
439.192	14026.54
439.399	14731.04
439.606	14257.96
439.813	15060.76
440.02	16008.97
440.227	15640.34
440.433	15388.44
440.64	16047.88
440.847	15740.69
441.054	16291.59
441.261	17479.41
441.467	17133.31
441.674	17497.85
441.881	18024.17
442.088	18046.7
442.294	17962.73
442.501	18360.04
442.708	18786.02
442.914	19519.19
443.121	20172.49
443.328	19586.77
443.534	21165.76
443.741	20330.19
443.948	20397.77
444.154	22025.9
444.361	21825.2
444.568	22120.11
444.774	22011.57
444.981	22273.71
445.187	22703.78
445.394	23522.97
445.6	23582.36
445.807	25671.29
446.013	24839.81
446.22	25233.02
446.426	26218.1
446.633	26097.27
446.839	27344.48
447.046	26295.92
447.252	27674.2
447.459	27614.81
447.665	27770.46
447.871	28741.19
448.078	29705.79
448.284	28614.22
448.491	29212.23
448.697	30479.92
448.903	31051.3
449.11	30862.89
449.316	30637.61
449.522	31370.79
449.728	32136.73
449.935	32247.32
450.141	32259.6
450.347	32814.6
450.553	31993.37
450.76	32155.16
450.966	33336.84
451.172	33242.63
451.378	33902.07
451.584	33228.29
451.791	34223.61
451.997	34219.51
452.203	34598.38
452.409	34311.67
452.615	34360.82
452.821	33056.26
453.027	32650.77
453.233	34571.76
453.44	32839.18
453.646	33922.55
453.852	33705.47
454.058	34518.51
454.264	32919.05
454.47	33975.8
454.676	32650.77
454.882	34254.33
455.088	31385.12
455.294	31890.97
455.5	32085.53
455.705	32636.43
455.911	31278.63
456.117	30742.06
456.323	30299.7
456.529	28626.51
456.735	29935.16
456.941	29341.25
457.147	28759.63
457.352	27846.23
457.558	27549.28
457.764	27692.63
457.97	27194.98
458.176	26406.51
458.381	26484.33
458.587	25159.3
458.793	25126.53
458.999	23850.64
459.204	25835.13
459.41	24895.11
459.616	23203.49
459.821	23215.77
460.027	23137.95
460.233	23006.88
460.438	21472.95
460.644	21739.19
460.85	20868.8
461.055	20375.24
461.261	20690.63
461.466	18945.76
461.672	18753.25
461.878	19807.95
462.083	18310.89
462.289	18351.85
462.494	17825.52
462.7	16969.47
462.905	16684.8
463.111	17149.69
463.316	17305.34
463.522	16887.55
463.727	17004.28
463.932	16740.1
464.138	16654.08
464.343	16760.58
464.549	16072.46
464.754	16924.41
464.959	16822.02
465.165	16604.93
465.37	15894.29
465.575	15458.07
465.781	16006.92
465.986	16215.82
466.191	15632.15
466.397	15015.71
466.602	14462.76
466.807	15159.06
467.012	14909.21
467.218	15146.78
467.423	14837.53
467.628	14894.88
467.833	15595.28
468.038	14966.56
468.244	14559.01
468.449	15150.87
468.654	14470.95
468.859	14569.25
469.064	14485.28
469.269	13799.21
469.474	14247.72
469.679	14200.62
469.885	13897.52
470.09	13854.51
470.295	14075.69
470.5	13426.48
470.705	13729.58
470.91	13385.52
471.115	13123.38
471.32	13467.44
471.525	13455.15
471.73	12982.07
471.935	13170.49
472.139	12681.02
472.344	12750.65
472.549	12670.78
472.754	12435.27
472.959	12306.24
473.164	11960.14
473.369	12003.14
473.574	12283.72
473.778	12109.64
473.983	12017.48
474.188	12105.54
474.393	11360.08
474.598	11687.76
474.802	11599.69
475.007	11286.36
475.212	11376.47
475.417	10989.4
475.621	10882.91
475.826	10942.3
476.031	10805.08
476.235	10762.08
476.44	10729.31
476.645	10411.87
476.849	10553.18
477.054	10325.86
477.259	10229.6
477.463	10219.36
477.668	9977.7
477.872	10219.36
478.077	10063.72
478.282	9635.69
478.486	9645.93
478.691	9621.36
478.895	9473.9
479.1	9455.47
479.304	9383.79
479.509	9506.67
479.713	9480.05
479.918	9162.61
480.122	9209.72
480.326	9222
480.531	9293.68
480.735	9013.11
480.94	8966.01
481.144	9127.8
481.348	8929.14
481.553	8918.9
481.757	8753.02
481.961	8877.94
482.166	8978.3
482.37	9039.73
482.574	8806.27
482.778	8748.92
482.983	8976.25
483.187	8851.32
483.391	8781.69
483.595	8806.27
483.8	8648.57
484.004	8810.36
484.208	8963.96
484.412	8855.42
484.616	8826.75
484.821	8871.8
485.025	8777.59
485.229	8808.31
485.433	8812.41
485.637	8675.2
485.841	8687.48
486.045	8855.42
486.249	8998.77
486.453	8531.84
486.657	8734.59
486.861	8746.87
487.065	8753.02
487.269	8724.35
487.473	8544.13
487.677	8535.93
487.881	8900.47
488.085	8720.25
488.289	9115.51
488.493	8804.22
488.697	8755.07
488.901	8851.32
489.105	8972.15
489.309	8853.37
489.512	8746.87
489.716	8941.43
489.92	8906.62
490.124	8994.68
490.328	9095.03
490.531	8894.33
490.735	8900.47
490.939	9101.17
491.143	8908.66
491.346	8992.63
491.55	9297.78
491.754	9211.76
491.958	9322.35
492.161	9365.36
492.365	9099.13
492.569	9346.93
492.772	9135.99
492.976	9449.33
493.18	9437.04
493.383	9680.75
493.587	9291.63
493.79	9650.03
493.994	9625.45
494.197	9582.45
494.401	9670.51
494.605	9903.98
494.808	10006.38
495.012	9693.04
495.215	10196.84
495.419	10067.81
495.622	9924.46
495.825	10184.55
496.029	10153.83
496.232	10454.88
496.436	10274.66
496.639	10706.78
496.843	10628.96
497.046	10848.09
497.249	10991.45
497.453	11102.04
497.656	10985.3
497.859	11243.35
498.063	11259.73
498.266	11259.73
498.469	11339.6
498.673	11722.57
498.876	11718.48
499.079	11779.92
499.282	11642.7
499.485	11888.46
499.689	12156.74
499.892	12123.98
500.095	12220.23
500.298	12603.2
500.501	12418.88
500.705	13006.65
500.908	13014.84
501.111	13174.58
501.314	13174.58
501.517	13424.44
501.72	13766.45
501.923	13512.5
502.126	13719.34
502.329	14139.18
502.532	14282.53
502.735	14020.39
502.938	14200.62
503.141	14513.95
503.344	14647.07
503.547	14843.68
503.75	15081.24
503.953	15302.42
504.156	15277.85
504.359	15413.01
504.562	15484.69
504.765	16207.62
504.968	15945.48
505.17	16322.31
505.373	16133.9
505.576	16682.75
505.779	16619.27
505.982	16846.59
506.185	17180.41
506.387	17231.61
506.59	17372.92
506.793	17673.97
506.996	17530.61
507.198	18087.66
507.401	18001.65
507.604	18261.74
507.807	18689.76
508.009	18669.28
508.212	18624.23
508.415	19322.59
508.617	19347.16
508.82	19185.37
509.022	19349.21
509.225	19982.03
509.428	19599.06
509.63	20113.1
509.833	20061.9
510.035	20530.89
510.238	20426.44
510.44	20790.98
510.643	21132.99
510.845	21305.02
511.048	21165.76
511.25	21440.18
511.453	21630.65
511.655	22326.96
511.858	21792.44
512.06	22290.09
512.262	22447.79
512.465	22593.19
512.667	23115.42
512.87	22795.94
513.072	23119.52
513.274	23387.8
513.477	23807.64
513.679	23889.56
513.881	24120.98
514.084	24702.6
514.286	24143.5
514.488	24532.62
514.69	25249.41
514.893	25448.06
515.095	25806.45
515.297	25794.17
515.499	25851.51
515.701	25857.65
515.904	26343.02
516.106	26685.03
516.308	26793.58
516.51	27065.95
516.712	27256.42
516.914	27588.19
517.116	27807.32
517.318	27864.66
517.52	27948.63
517.722	28178
517.925	28216.91
518.127	28771.91
518.329	28829.26
518.531	28931.65
518.733	29677.12
518.935	29742.65
519.136	29947.45
519.338	30246.45
519.54	30416.43
519.742	30664.24
519.944	30430.77
520.146	30909.99
520.348	31424.03
520.55	31366.69
520.752	31766.04
520.954	32181.78
521.155	31835.67
521.357	32230.93
521.559	32542.22
521.761	33246.72
521.963	33091.08
522.164	33068.55
522.366	33420.8
522.568	33496.58
522.77	33803.77
522.971	33938.94
523.173	33900.03
523.375	33998.33
523.576	34225.65
523.778	34409.97
523.98	34850.28
524.181	35130.86
524.383	35161.58
524.584	35202.53
524.786	35534.31
524.988	35233.25
525.189	35732.96
525.391	36197.85
525.592	36257.24
525.794	36429.27
525.995	35988.95
526.197	36564.43
526.398	36849.1
526.6	36689.36
526.801	36720.08
527.003	37414.34
527.204	37180.87
527.406	37277.13
527.607	37447.11
527.808	37772.74
528.01	37029.32
528.211	37524.93
528.412	37955
528.614	37866.94
528.815	38475.19
529.016	38542.77
529.218	37995.96
529.419	38673.84
529.62	38477.24
529.822	38075.83
530.023	38157.75
530.224	38415.8
530.425	38606.26
530.626	38204.86
530.828	38550.96
531.029	39056.81
531.23	38596.02
531.431	38530.48
531.632	39134.63
531.833	38841.78
532.035	38997.42
532.236	39001.52
532.437	38897.07
532.638	38634.93
532.839	38952.37
533.04	39755.17
533.241	39034.28
533.442	39370.15
533.643	39478.69
533.844	39280.04
534.045	39321
534.246	38946.22
534.447	39321
534.648	38880.69
534.849	39599.52
535.05	38917.55
535.251	39271.85
535.451	39300.52
535.652	39296.42
535.853	39036.33
536.054	39431.59
536.255	39318.95
536.456	39056.81
536.657	39982.49
536.857	38733.23
537.058	39126.44
537.259	39263.66
537.46	39282.09
537.66	39255.46
537.861	39529.89
538.062	38987.18
538.263	39767.46
538.463	38952.37
538.664	39296.42
538.865	39351.72
539.065	39566.76
539.266	38905.26
539.466	39671.2
539.667	38931.89
539.868	39712.16
540.068	39228.84
540.269	39169.45
540.469	39509.41
540.67	39116.2
540.87	39167.4
541.071	39144.87
541.271	39398.82
541.472	39144.87
541.672	39067.05
541.873	39161.26
542.073	38733.23
542.274	40000.93
542.474	39345.58
542.675	38563.25
542.875	39681.44
543.075	39071.15
543.276	38899.12
543.476	39415.21
543.676	39165.35
543.877	39273.9
544.077	39071.15
544.277	39722.4
544.478	39269.8
544.678	39542.18
544.878	39290.28
545.078	39032.24
545.279	39046.57
545.479	39067.05
545.679	39382.44
545.879	38923.69
546.079	38976.94
546.28	38782.38
546.48	39075.24
546.68	39603.62
546.88	39157.16
547.08	39108.01
547.28	39198.12
547.48	38739.38
547.68	39230.89
547.88	39046.57
548.081	39179.69
548.281	38972.85
548.481	38679.99
548.681	39230.89
548.881	38970.8
549.081	39095.72
549.28	38886.83
549.48	39431.59
549.68	38610.35
549.88	39257.51
550.08	39042.48
550.28	38684.08
550.48	38557.11
550.68	39361.96
550.88	38735.28
551.08	38501.81
551.279	39015.85
551.479	38651.31
551.679	38981.04
551.879	38940.08
552.079	38790.58
552.278	38825.39
552.478	38667.7
552.678	38817.2
552.878	38933.93
553.077	38862.25
553.277	38694.32
553.477	39144.87
553.676	38688.18
553.876	38612.4
554.076	38514.1
554.275	38757.81
554.475	38299.06
554.674	38770.1
554.874	38849.97
555.074	38286.78
555.273	38704.56
555.473	38741.42
555.672	38524.34
555.872	38430.13
556.071	38510
556.271	38612.4
556.47	38321.59
556.67	38258.1
556.869	38018.49
557.068	38608.31
557.268	38151.61
557.467	38063.55
557.667	38223.29
557.866	38385.08
558.065	38415.8
558.265	37701.06
558.464	37877.18
558.663	38016.44
558.863	37883.33
559.062	38325.69
559.261	37305.8
559.461	38522.29
559.66	37342.66
559.859	37875.13
560.058	37633.47
560.258	37651.91
560.457	37410.25
560.656	38057.4
560.855	37563.84
561.054	37455.3
561.253	36947.4
561.453	37604.8
561.652	37782.98
561.851	37268.94
562.05	37107.15
562.249	37121.48
562.448	37307.85
562.647	37219.78
562.846	36990.41
563.045	37199.3
563.244	36781.52
563.443	36994.51
563.642	36769.23
563.841	36539.86
564.04	36863.44
564.239	36851.15
564.438	36595.15
564.637	36828.62
564.836	36705.74
565.035	36265.43
565.234	36603.35
565.432	36521.43
565.631	36206.04
565.83	36462.04
566.029	36244.95
566.228	36160.98
566.427	36173.27
566.625	35954.14
566.824	35696.1
567.023	36398.55
567.222	35464.67
567.42	36138.46
567.619	35874.27
567.818	35978.71
568.016	35603.94
568.215	36031.96
568.414	35581.41
568.612	35825.12
568.811	35538.4
569.01	35507.68
569.208	34921.96
569.407	35245.54
569.605	34848.24
569.804	35333.6
570.002	35083.75
570.201	35116.52
570.4	34817.52
570.598	34993.64
570.797	34262.52
570.995	35198.44
571.193	34518.51
571.392	34993.64
571.59	34639.34
571.789	34444.79
571.987	34393.59
572.186	34504.18
572.384	34067.96
572.582	34641.39
572.781	34571.76
572.979	33682.94
573.177	34088.44
573.376	34381.3
573.574	33785.34
573.772	34151.93
573.971	33816.06
574.169	33687.04
574.367	33611.26
574.565	33857.02
574.763	33549.82
574.962	33586.69
575.16	33091.08
575.358	33607.17
575.556	32900.62
575.754	33584.64
575.952	33027.59
576.151	33121.8
576.349	32828.94
576.547	32755.21
576.745	32704.01
576.943	32994.82
577.141	32579.09
577.339	32835.08
577.537	32517.65
577.735	32335.38
577.933	32216.6
578.131	32515.6
578.329	32382.48
578.527	32036.38
578.725	32372.24
578.923	32339.47
579.121	31749.66
579.319	31837.72
579.516	32001.56
579.714	32153.11
579.912	31807
580.11	31614.49
580.308	31821.34
580.506	31637.02
580.704	31225.38
580.901	32091.67
581.099	31577.63
581.297	31608.35
581.495	31419.94
581.692	31233.57
581.89	30887.46
582.088	31151.65
582.285	30957.1
582.483	30936.62
582.681	31282.72
582.878	31036.97
583.076	30461.49
583.274	30748.2
583.471	30344.75
583.669	30553.65
583.866	30492.21
584.064	30588.46
584.262	30078.52
584.459	30365.23
584.657	30488.11
584.854	30606.89
585.052	29566.52
585.249	30142
585.447	30051.89
585.644	29756.99
585.841	30047.8
586.039	30391.86
586.236	29654.59
586.434	29208.13
586.631	29517.37
586.828	29234.75
587.026	29140.55
587.223	29468.22
587.42	28989
587.618	29326.91
587.815	29025.86
588.012	29171.27
588.21	28696.14
588.407	29109.83
588.604	28945.99
588.801	28665.42
588.999	28595.79
589.196	28716.62
589.393	28335.7
589.59	28180.05
589.787	28280.4
589.984	27924.05
590.182	28278.35
590.379	28102.23
590.576	27903.57
590.773	28175.95
590.97	27758.17
591.167	28014.16
591.364	27965.01
591.561	27805.27
591.758	27315.81
591.955	27637.34
592.152	27618.91
592.349	27668.06
592.546	27307.62
592.743	27399.77
592.94	27194.98
593.137	27145.83
593.334	27203.17
593.531	26719.85
593.727	27014.76
593.924	27035.24
594.121	26713.7
594.318	26988.13
594.515	26295.92
594.712	26762.86
594.908	26144.37
595.105	26764.9
595.302	26029.68
595.499	26402.41
595.696	26283.63
595.892	25939.57
596.089	26058.35
596.286	26089.07
596.482	26285.68
596.679	26023.54
596.876	26074.74
597.072	25806.45
597.269	25941.62
597.466	25575.03
597.662	25755.25
597.859	25585.27
598.055	25478.78
598.252	25462.4
598.448	25237.12
598.645	25202.3
598.841	25265.79
599.038	25036.42
599.234	25079.43
599.431	24559.24
599.627	24667.78
599.824	24983.17
600.02	24749.7
600.217	24880.77
600.413	24448.65
600.609	24819.33
600.806	24293.01
601.002	24319.63
601.198	24311.44
601.395	24301.2
601.591	23994
601.787	24100.5
601.984	23946.9
602.18	24260.24
602.376	23637.66
602.572	23594.65
602.769	23807.64
602.965	23484.06
603.161	23738.01
603.357	23426.71
603.553	23678.61
603.75	23701.14
603.946	23170.72
604.142	23363.23
604.338	23201.44
604.534	23000.74
604.73	23277.21
604.926	22789.8
605.122	23213.73
605.318	22912.67
605.514	22630.05
605.71	22726.31
605.906	22427.31
606.102	22656.68
606.298	22613.67
606.494	22523.56
606.69	22496.94
606.886	22441.64
607.082	22386.35
607.278	22429.35
607.474	22419.11
607.67	22447.79
607.866	21948.08
608.062	22599.34
608.257	22005.42
608.453	22288.04
608.649	22130.35
608.845	21903.03
609.041	22021.81
609.236	22111.92
609.432	21896.88
609.628	21880.5
609.824	21577.4
610.019	21759.67
610.215	21573.3
610.411	21819.06
610.606	21509.82
610.802	21642.93
610.998	21526.2
611.193	21524.15
611.389	21325.5
611.584	21526.2
611.78	21145.28
611.976	21343.93
612.171	21571.25
612.367	21427.9
612.562	21337.79
612.758	20981.44
612.953	21089.98
613.149	21223.1
613.344	20997.82
613.539	21120.7
613.735	21008.06
613.93	21157.57
614.126	21155.52
614.321	21003.97
614.517	21020.35
614.712	21163.71
614.907	20825.79
615.103	21294.78
615.298	20604.61
615.493	20995.78
615.688	20561.61
615.884	21167.81
616.079	20682.44
616.274	20635.33
616.47	20584.13
616.665	20657.86
616.86	20543.17
617.055	20401.86
617.25	20424.39
617.445	20684.48
617.641	19947.22
617.836	20461.26
618.031	19988.17
618.226	20184.78
618.421	19996.37
618.616	20580.04
618.811	19926.74
619.006	20106.96
619.201	19631.83
619.396	19828.43
619.591	19467.99
619.786	19998.41
619.981	19697.36
620.176	19521.24
620.371	19154.65
620.566	19410.65
620.761	19148.51
620.956	19242.71
621.151	19119.84
621.346	19332.83
621.541	18566.88
621.735	19240.67
621.93	18755.3
622.125	18691.81
622.32	18550.5
622.515	18763.49
622.709	18441.96
622.904	18530.02
623.099	18355.94
623.294	18325.22
623.488	17936.11
623.683	18044.65
623.878	17815.28
624.072	18145
624.267	17970.93
624.462	17854.19
624.656	17716.98
624.851	17606.39
625.046	17422.07
625.24	17327.86
625.435	16994.04
625.629	17061.63
625.824	17018.62
626.018	16992
626.213	16764.67
626.407	16649.99
626.602	16727.81
626.796	16717.57
626.991	16856.83
627.185	16510.72
627.38	16230.15
627.574	16170.76
627.768	16285.45
627.963	16168.71
628.157	16054.03
628.352	16043.79
628.546	15697.68
628.74	15707.92
628.935	15605.52
629.129	15697.68
629.323	15349.53
629.517	15593.23
629.712	15245.08
629.906	15073.05
630.1	15136.54
630.294	15275.8
630.489	14909.21
630.683	15019.8
630.877	14587.68
631.071	15044.38
631.265	14788.38
631.459	14745.38
631.653	14487.33
631.848	14479.14
632.042	14483.24
632.236	14415.65
632.43	14292.77
632.624	14298.92
632.818	14028.59
633.012	14290.73
633.206	14073.64
633.4	14069.55
633.594	13831.98
633.788	13924.14
633.982	13905.71
634.176	13831.98
634.369	13698.86
634.563	13496.11
634.757	13430.58
634.951	13426.48
635.145	13383.48
635.339	13352.76
635.533	13233.97
635.726	13352.76
635.92	13055.8
636.114	13408.05
636.308	12990.27
636.501	12879.68
636.695	13006.65
636.889	12711.74
637.083	12578.62
637.276	12562.24
637.47	12599.1
637.664	12683.07
637.857	12420.93
638.051	12504.9
638.244	12185.41
638.438	12207.94
638.632	12164.93
638.825	11964.23
639.019	12093.26
639.212	11999.05
639.406	11827.02
639.599	11837.26
639.793	11841.36
639.986	11759.44
640.18	11749.2
640.373	11851.6
640.567	11409.23
640.76	11464.53
640.954	11468.62
641.147	11188.05
641.34	11147.09
641.534	11599.69
641.727	11487.06
641.92	11310.93
642.114	11204.44
642.307	11079.51
642.5	11114.33
642.694	10891.1
642.887	11024.22
643.08	11011.93
643.273	10846.04
643.467	10604.38
643.66	10637.15
643.853	10764.12
644.046	10592.09
644.239	10581.85
644.432	10305.38
644.626	10293.09
644.819	10510.18
645.012	10348.39
645.205	10358.63
645.398	10272.61
645.591	10051.43
645.784	10137.45
645.977	10114.92
646.17	10043.24
646.363	9844.59
646.556	10010.47
646.749	9998.18
646.942	9801.58
647.135	9766.76
647.328	9740.14
647.521	9668.46
647.714	9516.91
647.907	9527.15
648.099	9635.69
648.292	9394.03
648.485	9611.12
648.678	9285.49
648.871	9295.73
649.064	9260.91
649.256	9351.03
649.449	9244.53
649.642	9289.59
649.835	9021.3
650.027	9146.23
650.22	8957.82
650.413	9076.6
650.605	9095.03
650.798	8914.81
650.991	8814.46
651.183	8740.73
651.376	8523.65
651.568	8763.26
651.761	8703.87
651.954	8630.14
652.146	8691.58
652.339	8609.66
652.531	8583.04
652.724	8388.48
652.916	8304.51
653.109	8472.45
653.301	8257.41
653.494	8112
653.686	8245.12
653.879	8359.81
654.071	8107.91
654.263	8118.15
654.456	8034.18
654.648	7993.22
654.84	8028.04
655.033	7886.73
655.225	8032.13
655.417	7837.58
655.61	7813
655.802	7952.26
655.994	7665.55
656.186	7780.23
656.379	7722.89
656.571	7919.5
656.763	7704.46
656.955	7538.57
657.148	7640.97
657.34	7421.84
657.532	7505.81
657.724	7518.09
657.916	7352.21
658.108	7413.65
658.3	7350.16
658.492	7272.34
658.684	7135.12
658.876	7255.95
659.068	7178.13
659.26	7120.79
659.452	7124.88
659.644	7247.76
659.836	7040.92
660.028	7042.96
660.22	6903.7
660.412	7016.34
660.604	6832.02
660.796	6870.94
660.988	6750.1
661.18	6756.25
661.372	6698.91
661.563	6655.9
661.755	6868.89
661.947	6694.81
662.139	6621.08
662.331	6588.32
662.522	6594.46
662.714	6500.25
662.906	6444.96
663.097	6490.01
663.289	6373.28
663.481	6244.26
663.673	6336.42
663.864	6285.22
664.056	6289.31
664.247	6389.66
664.439	6164.39
664.631	6354.85
664.822	6309.79
665.014	6207.39
665.205	6109.09
665.397	6092.71
665.588	5986.21
665.78	6141.86
665.971	5832.61
666.163	5992.36
666.354	5738.41
666.546	5953.45
666.737	5777.32
666.929	5781.42
667.12	5830.57
667.311	5844.9
667.503	5789.61
667.694	5896.1
667.885	5765.03
668.077	5674.92
668.268	5502.89
668.459	5527.47
668.651	5617.58
668.842	5619.63
669.033	5670.83
669.224	5676.97
669.416	5461.93
669.607	5513.13
669.798	5582.76
669.989	5463.98
670.18	5453.74
670.371	5242.8
670.563	5312.43
670.754	5371.82
670.945	5234.61
671.136	5255.09
671.327	5351.34
671.518	5279.66
671.709	5218.22
671.9	5248.94
672.091	5259.18
672.282	5074.87
672.473	5109.68
672.664	5169.07
672.855	5101.49
673.046	5183.41
673.237	5134.26
673.428	4986.8
673.619	5210.03
673.809	4904.89
674	5140.4
674.191	4976.56
674.382	4925.36
674.573	4806.58
674.764	4822.97
674.954	4966.32
675.145	4974.52
675.336	5007.28
675.527	4736.95
675.717	4911.03
675.908	4763.58
676.099	4818.87
676.289	4747.19
676.48	4714.42
676.671	4794.29
676.861	4724.66
677.052	4677.56
677.243	4601.79
677.433	4691.9
677.624	4798.39
677.814	4556.73
678.005	4712.38
678.195	4626.36
678.386	4583.35
678.576	4540.35
678.767	4573.11
678.957	4753.34
679.148	4519.87
679.338	4591.55
679.529	4605.88
679.719	4442.04
679.909	4618.17
680.1	4360.13
680.29	4624.31
680.481	4497.34
680.671	4550.59
680.861	4384.7
681.052	4370.37
681.242	4491.2
681.432	4497.34
681.622	4437.95
681.813	4550.59
682.003	4460.48
682.193	4351.93
682.383	4345.79
682.573	4347.84
682.764	4296.64
682.954	4302.78
683.144	4329.41
683.334	4356.03
683.524	4306.88
683.714	4216.77
683.904	4163.52
684.094	4286.4
684.284	4140.99
684.474	4331.45
684.664	4296.64
684.854	4186.05
685.044	4214.72
685.234	4153.28
685.424	4151.23
685.614	4181.95
685.804	4085.7
685.994	4167.62
686.184	4188.1
686.374	4003.78
686.564	4009.92
686.753	4194.24
686.943	4020.16
687.133	4089.79
687.323	3981.25
687.513	3934.15
687.702	3932.1
687.892	3880.9
688.082	3930.05
688.272	3878.85
688.461	3882.95
688.651	3835.85
688.841	3846.09
689.03	3770.31
689.22	3903.43
689.41	3872.71
689.599	3868.61
689.789	3801.03
689.979	3694.54
690.168	3825.61
690.358	3747.78
690.547	3622.86
690.737	3770.31
690.926	3667.91
691.116	3528.65
691.305	3592.14
691.495	3598.28
691.684	3520.46
691.874	3667.91
692.063	3635.14
692.252	3573.71
692.442	3538.89
692.631	3495.88
692.82	3428.3
693.01	3483.59
693.199	3411.92
693.388	3407.82
693.578	3393.48
693.767	3479.5
693.956	3450.83
694.146	3413.96
694.335	3295.18
694.524	3301.33
694.713	3375.05
694.902	3297.23
695.092	3268.56
695.281	3303.37
695.47	3237.84
695.659	3164.11
695.848	3217.36
696.037	3225.55
696.226	3252.17
696.415	3028.95
696.604	3215.31
696.793	3164.11
696.982	3289.04
697.171	3166.16
697.36	3248.08
697.549	3051.47
697.738	3078.1
697.927	3176.4
698.116	3231.69
698.305	3145.68
698.494	3108.82
698.683	3090.38
698.872	2928.6
699.061	3030.99
699.25	3080.15
699.438	2998.23
699.627	2973.65
699.816	3088.34
700.005	2949.08
700.193	3022.8
700.382	3024.85
700.571	2963.41
700.76	3069.91
700.948	2963.41
701.137	3035.09
701.326	3053.52
701.514	2926.55
701.703	2973.65
701.892	2885.59
702.08	2938.84
702.269	3006.42
702.457	2963.41
702.646	2887.64
702.834	2940.88
703.023	2883.54
703.212	2947.03
703.4	2922.45
703.589	2799.57
703.777	2904.02
703.965	2719.7
704.154	3006.42
704.342	2764.76
704.531	2879.44
704.719	2818.01
704.907	2822.1
705.096	2799.57
705.284	2879.44
705.472	2818.01
705.661	2854.87
705.849	2910.16
706.037	2793.43
706.226	2885.59
706.414	2848.72
706.602	2787.29
706.79	2721.75
706.979	2836.44
707.167	2742.23
707.355	2863.06
707.543	2820.05
707.731	2899.92
707.919	2901.97
708.107	2785.24
708.296	2822.1
708.484	2854.87
708.672	2772.95
708.86	2770.9
709.048	2731.99
709.236	2807.77
709.424	2797.53
709.612	2787.29
709.8	2797.53
709.988	2764.76
710.176	2820.05
710.364	2801.62
710.551	2930.64
710.739	2729.94
710.927	2764.76
711.115	2775
711.303	2791.38
711.491	2770.9
711.679	2777.05
711.866	2756.57
712.054	2721.75
712.242	2789.33
712.43	2836.44
712.617	2766.81
712.805	2664.41
712.993	2832.34
713.181	2785.24
713.368	2775
713.556	2795.48
713.744	2662.36
713.931	2842.58
714.119	2852.82
714.306	2850.77
714.494	2752.47
714.682	2768.85
714.869	2744.28
715.057	2793.43
715.244	2701.27
715.432	2891.73
715.619	2799.57
715.807	2791.38
715.994	2852.82
716.182	2803.67
716.369	2770.9
716.556	2674.65
716.744	2787.29
716.931	2758.61
717.119	2777.05
717.306	2756.57
717.493	2609.11
717.681	2791.38
717.868	2822.1
718.055	2750.42
718.242	2719.7
718.43	2715.61
718.617	2742.23
718.804	2770.9
718.991	2871.25
719.179	2723.8
719.366	2697.17
719.553	2770.9
719.74	2686.94
719.927	2705.37
720.114	2684.89
720.301	2629.59
720.488	2795.48
720.676	2674.65
720.863	2736.09
721.05	2740.18
721.237	2832.34
721.424	2668.5
721.611	2705.37
721.798	2672.6
721.985	2555.86
722.172	2590.68
722.358	2701.27
722.545	2723.8
722.732	2734.04
722.919	2645.98
723.106	2754.52
723.293	2590.68
723.48	2641.88
723.667	2822.1
723.853	2768.85
724.04	2717.65
724.227	2832.34
724.414	2824.15
724.6	2631.64
724.787	2721.75
724.974	2744.28
725.161	2625.5
725.347	2564.06
725.534	2613.21
725.72	2693.08
725.907	2715.61
726.094	2664.41
726.28	2605.02
726.467	2549.72
726.653	2691.03
726.84	2670.55
727.027	2676.7
727.213	2717.65
727.4	2738.13
727.586	2775
727.773	2699.22
727.959	2754.52
728.145	2738.13
728.332	2701.27
728.518	2754.52
728.705	2674.65
728.891	2615.26
729.077	2684.89
729.264	2758.61
729.45	2701.27
729.636	2770.9
729.823	2582.49
730.009	2652.12
730.195	2625.5
730.382	2721.75
730.568	2637.78
730.754	2697.17
730.94	2676.7
731.126	2770.9
731.313	2701.27
731.499	2693.08
731.685	2602.97
731.871	2758.61
732.057	2670.55
732.243	2715.61
732.429	2539.48
732.615	2705.37
732.801	2637.78
732.987	2547.67
733.173	2662.36
733.359	2727.89
733.545	2607.06
733.731	2525.15
733.917	2645.98
734.103	2629.59
734.289	2723.8
734.475	2699.22
734.661	2672.6
734.847	2674.65
735.033	2688.98
735.219	2568.15
735.404	2650.07
735.59	2584.54
735.776	2555.86
735.962	2715.61
736.148	2637.78
736.333	2711.51
736.519	2535.39
736.705	2463.71
736.89	2598.87
737.076	2605.02
737.262	2545.63
737.447	2598.87
737.633	2478.04
737.819	2627.54
738.004	2600.92
738.19	2580.44
738.375	2553.82
738.561	2523.1
738.747	2557.91
738.932	2549.72
739.118	2519
739.303	2488.28
739.489	2623.45
739.674	2490.33
739.859	2469.85
740.045	2582.49
740.23	2469.85
740.416	2525.15
740.601	2461.66
740.786	2457.56
740.972	2424.8
741.157	2437.08
741.342	2275.29
741.528	2469.85
741.713	2441.18
741.898	2521.05
742.084	2469.85
742.269	2574.3
742.454	2455.51
742.639	2437.08
742.824	2422.75
743.01	2496.47
743.195	2361.31
743.38	2445.27
743.565	2428.89
743.75	2310.11
743.935	2375.64
744.12	2322.4
744.305	2306.01
744.49	2373.6
744.675	2246.62
744.86	2228.19
745.045	2408.41
745.23	2236.38
745.415	2187.23
745.6	2136.03
745.785	2148.32
745.97	2205.66
746.155	2215.9
746.34	2154.46
746.525	2162.65
746.71	2234.33
746.895	2095.07
747.079	2136.03
747.264	2199.52
747.449	2144.22
747.634	2232.29
747.819	2140.13
748.003	2172.89
748.188	2119.65
748.373	1951.71
748.557	2101.22
748.742	1953.76
748.927	2027.49
749.111	2062.3
749.296	1980.39
749.481	1949.67
749.665	2136.03
749.85	1947.62
750.034	1873.89
750.219	1918.95
750.404	1912.8
750.588	2054.11
750.773	1902.56
750.957	1902.56
751.141	1853.41
751.326	1916.9
751.51	1914.85
751.695	1886.18
751.879	1877.99
752.064	1857.51
752.248	1765.35
752.432	1771.49
752.617	1787.88
752.801	1697.77
752.985	1783.78
753.17	1757.16
753.354	1855.46
753.538	1720.29
753.722	1658.85
753.907	1644.52
754.091	1703.91
754.275	1589.22
754.459	1660.9
754.643	1632.23
754.828	1611.75
755.012	1667.05
755.196	1482.73
755.38	1593.32
755.564	1654.76
755.748	1562.6
755.932	1605.61
756.116	1564.65
756.3	1533.93
756.484	1550.31
756.668	1552.36
756.852	1503.21
757.036	1648.61
757.22	1482.73
757.404	1466.35
757.588	1363.95
757.772	1423.34
757.956	1415.15
758.14	1378.28
758.323	1425.39
758.507	1445.87
758.691	1390.57
758.875	1402.86
759.059	1538.02
759.242	1378.28
759.426	1318.89
759.61	1413.1
759.794	1404.91
759.977	1443.82
760.161	1331.18
760.345	1271.79
760.528	1322.99
760.712	1359.85
760.895	1378.28
761.079	1267.69
761.263	1226.73
761.446	1370.09
761.63	1298.41
761.813	1187.82
761.997	1230.83
762.18	1298.41
762.364	1216.49
762.547	1173.49
762.731	1320.94
762.914	1208.3
763.098	1173.49
763.281	1345.52
763.464	1138.67
763.648	1216.49
763.831	1251.31
764.015	1171.44
764.198	1161.2
764.381	1101.81
764.564	1206.25
764.748	1171.44
764.931	1114.1
765.114	1173.49
765.297	1159.15
765.481	1167.34
765.664	1200.11
765.847	1224.69
766.03	1155.05
766.213	1124.33
766.397	1181.68
766.58	1193.97
766.763	1140.72
766.946	1144.81
767.129	1107.95
767.312	1040.37
767.495	1042.42
767.678	1046.51
767.861	1095.66
768.044	1167.34
768.227	1128.43
768.41	1044.46
768.593	1056.75
768.776	1132.53
768.959	1036.27
769.142	1157.1
769.324	1048.56
769.507	1056.75
769.69	937.97
769.873	997.36
770.056	1034.22
770.239	1023.98
770.421	1013.74
770.604	1054.7
770.787	954.35
770.97	919.54
771.152	987.12
771.335	972.79
771.518	1083.38
771.7	1093.62
771.883	925.68
772.066	931.83
772.248	946.16
772.431	897.01
772.613	944.11
772.796	856.05
772.978	968.69
773.161	958.45
773.343	858.1
773.526	942.07
773.708	913.39
773.891	847.86
774.073	872.43
774.256	897.01
774.438	987.12
774.621	802.8
774.803	851.96
774.985	790.52
775.168	935.92
775.35	880.63
775.532	796.66
775.715	872.43
775.897	864.24
776.079	892.91
776.261	737.27
776.444	792.56
776.626	794.61
776.808	841.72
776.99	866.29
777.173	806.9
777.355	733.17
777.537	759.8
777.719	821.24
777.901	755.7
778.083	729.08
778.265	636.92
778.447	727.03
778.629	733.17
778.811	661.49
778.993	677.88
779.175	745.46
779.357	673.78
779.539	655.35
779.721	604.15
779.903	661.49
780.085	735.22
780.267	729.08
780.449	753.65
780.631	622.58
780.812	727.03
780.994	598.01
781.176	686.07
781.358	573.43
781.54	675.83
781.721	659.45
781.903	542.71
782.085	614.39
782.267	559.1
782.448	593.91
782.63	585.72
782.812	579.58
782.993	624.63
783.175	622.58
783.357	518.14
783.538	620.53
783.72	550.9
783.901	485.37
784.083	548.86
784.264	595.96
784.446	569.34
784.627	620.53
784.809	532.47
784.99	526.33
785.172	524.28
785.353	557.05
785.535	557.05
785.716	520.18
785.897	534.52
786.079	534.52
786.26	430.07
786.441	511.99
786.623	452.6
786.804	421.88
786.985	499.7
787.167	409.59
787.348	542.71
787.529	481.27
787.71	548.86
787.891	401.4
788.073	436.22
788.254	407.55
788.435	520.18
788.616	511.99
788.797	544.76
788.978	477.18
789.159	370.68
789.34	428.03
789.522	413.69
789.703	378.87
789.884	391.16
790.065	397.31
790.246	524.28
790.427	393.21
790.607	464.89
790.788	368.63
790.969	440.31
791.15	407.55
791.331	417.79
791.512	327.68
791.693	397.31
791.874	362.49
792.054	481.27
792.235	348.15
792.416	395.26
792.597	385.02
792.778	419.83
792.958	395.26
793.139	385.02
793.32	358.39
793.5	333.82
793.681	364.54
793.862	401.4
794.042	339.96
794.223	366.59
794.404	389.11
794.584	303.1
794.765	253.95
794.945	376.83
795.126	278.52
795.306	360.44
795.487	307.2
795.667	327.68
795.848	360.44
796.028	327.68
796.209	337.91
796.389	382.97
796.57	344.06
796.75	253.95
796.93	348.15
797.111	362.49
797.291	282.62
797.471	337.91
797.652	354.3
797.832	266.24
798.012	344.06
798.192	258.04
798.373	251.9
798.553	288.76
798.733	321.53
798.913	364.54
799.093	317.44
799.274	305.15
799.454	241.66
799.634	352.25
799.814	309.24
799.994	290.81
800.174	278.52
800.354	301.05
800.534	276.48
800.714	323.58
800.894	202.75
801.074	266.24
801.254	294.91
801.434	231.42
801.614	210.94
801.794	206.84
801.974	724.98
802.154	212.99
802.334	237.56
802.514	278.52
802.693	278.52
802.873	241.66
803.053	266.24
803.233	301.05
803.413	264.19
803.592	159.74
803.772	280.57
803.952	268.28
804.131	210.94
804.311	303.1
804.491	204.8
804.67	194.56
804.85	256
805.03	212.99
805.209	299
805.389	245.76
805.568	225.28
805.748	260.09
805.928	186.37
806.107	268.28
806.287	169.98
806.466	352.25
806.646	202.75
806.825	178.17
807.004	251.9
807.184	202.75
807.363	225.28
807.543	204.8
807.722	210.94
807.901	272.38
808.081	290.81
808.26	225.28
808.439	245.76
808.619	137.21
808.798	198.65
808.977	200.7
809.156	243.71
809.336	163.84
809.515	172.03
809.694	219.13
809.873	270.33
810.052	126.97
810.231	292.86
810.411	278.52
810.59	200.7
810.769	133.12
810.948	241.66
811.127	180.22
811.306	210.94
811.485	163.84
811.664	245.76
811.843	96.25
812.022	143.36
812.201	200.7
812.38	212.99
812.559	176.13
812.737	141.31
812.916	165.89
813.095	194.56
813.274	194.56
813.453	167.93
813.632	176.13
813.811	167.93
813.989	186.37
814.168	184.32
814.347	190.46
814.526	151.55
814.704	227.32
814.883	155.65
815.062	176.13
815.24	135.17
815.419	180.22
815.598	149.5
815.776	143.36
815.955	155.65
816.133	149.5
816.312	186.37
816.49	112.64
816.669	159.74
816.847	122.88
817.026	223.23
817.204	153.6
817.383	129.02
817.561	165.89
817.74	157.69
817.918	141.31
818.097	155.65
818.275	157.69
818.453	145.41
818.632	126.97
818.81	167.93
818.988	137.21
819.167	30.72
819.345	155.65
819.523	59.39
819.701	161.79
819.879	77.82
820.058	159.74
820.236	88.06
820.414	94.21
820.592	112.64
820.77	118.78
820.948	104.45
821.127	49.15
821.305	149.5
821.483	135.17
821.661	129.02
821.839	114.69
822.017	116.73
822.195	122.88
822.373	141.31
822.551	155.65
822.729	159.74
822.907	100.35
823.085	192.51
823.262	131.07
823.44	96.25
823.618	122.88
823.796	122.88
823.974	131.07
824.152	114.69
824.329	147.45
824.507	83.97
824.685	94.21
824.863	126.97
825.04	63.49
825.218	92.16
825.396	137.21
825.574	114.69
825.751	63.49
825.929	90.11
826.107	73.73
826.284	163.84
826.462	75.77
826.639	122.88
826.817	118.78
826.994	126.97
827.172	75.77
827.349	149.5
827.527	90.11
827.704	165.89
827.882	126.97
828.059	163.84
828.237	108.54
828.414	88.06
828.591	51.2
828.769	153.6
828.946	139.26
829.124	143.36
829.301	77.82
829.478	92.16
829.655	57.34
829.833	96.25
830.01	69.63
830.187	141.31
830.364	102.4
830.542	34.82
830.719	67.58
830.896	131.07
831.073	100.35
831.25	94.21
831.427	96.25
831.604	137.21
831.782	90.11
831.959	26.62
832.136	86.01
832.313	124.93
832.49	-12.29
832.667	55.3
832.844	129.02
833.021	143.36
833.198	114.69
833.374	75.77
833.551	83.97
833.728	57.34
833.905	55.3
834.082	36.86
834.259	73.73
834.436	94.21
834.612	14.34
834.789	100.35
834.966	55.3
835.143	112.64
835.319	65.54
835.496	75.77
835.673	32.77
835.85	65.54
836.026	67.58
836.203	57.34
836.38	63.49
836.556	120.83
836.733	26.62
836.909	69.63
837.086	30.72
837.262	57.34
837.439	36.86
837.616	53.25
837.792	43.01
837.968	38.91
838.145	-18.43
838.321	83.97
838.498	100.35
838.674	90.11
838.851	36.86
839.027	45.06
839.203	16.38
839.38	51.2
839.556	94.21
839.732	53.25
839.909	28.67
840.085	59.39
840.261	53.25
840.437	83.97
840.614	40.96
840.79	98.3
840.966	106.49
841.142	26.62
841.318	30.72
841.494	69.63
841.671	47.1
841.847	59.39
842.023	67.58
842.199	71.68
842.375	106.49
842.551	63.49
842.727	129.02
842.903	79.87
843.079	57.34
843.255	129.02
843.431	22.53
843.607	79.87
843.783	-16.38
843.959	77.82
844.134	-20.48
844.31	75.77
844.486	133.12
844.662	12.29
844.838	49.15
845.013	104.45
845.189	57.34
845.365	55.3
845.541	40.96
845.716	65.54
845.892	122.88
846.068	118.78
846.244	57.34
846.419	8.19
846.595	73.73
846.77	14.34
846.946	108.54
847.122	-38.91
847.297	43.01
847.473	86.01
847.648	-18.43
847.824	114.69
847.999	-12.29
848.175	34.82
848.35	102.4
848.526	73.73
848.701	75.77
848.876	28.67
849.052	100.35
849.227	26.62
849.403	0
849.578	4.1
849.753	61.44
849.929	24.58
850.104	16.38
850.279	8.19
850.454	47.1
850.63	14.34
850.805	55.3
850.98	71.68
851.155	49.15
851.33	47.1
851.505	2.05
851.681	75.77
851.856	45.06
852.031	43.01
852.206	86.01
852.381	-20.48
852.556	30.72
852.731	63.49
852.906	18.43
853.081	14.34
853.256	61.44
853.431	40.96
853.606	18.43
853.781	63.49
853.956	-18.43
854.131	24.58
854.305	-10.24
854.48	30.72
854.655	55.3
854.83	57.34
855.005	38.91
855.18	69.63
855.354	30.72
855.529	49.15
855.704	-6.14
855.879	26.62
856.053	20.48
856.228	114.69
856.403	20.48
856.577	40.96
856.752	83.97
856.926	43.01
857.101	16.38
857.276	-38.91
857.45	30.72
857.625	40.96
857.799	20.48
857.974	86.01
858.148	-4.1
858.323	114.69
858.497	-8.19
858.672	22.53
858.846	10.24
859.02	32.77
859.195	16.38
859.369	40.96
859.543	57.34
859.718	0
859.892	16.38
860.066	51.2
860.241	36.86
860.415	24.58
860.589	49.15
860.763	10.24
860.938	67.58
861.112	79.87
861.286	-32.77
861.46	43.01
861.634	-26.62
861.808	69.63
861.982	131.07
862.157	83.97
862.331	26.62
862.505	-24.58
862.679	-59.39
862.853	-4.1
863.027	90.11
863.201	14.34
863.375	18.43
863.549	-51.2
863.722	63.49
863.896	112.64
864.07	-4.1
864.244	-10.24
864.418	14.34
864.592	73.73
864.766	61.44
864.939	30.72
865.113	-12.29
865.287	69.63
865.461	43.01
865.634	53.25
865.808	-18.43
865.982	-16.38
866.156	-28.67
866.329	-34.82
866.503	16.38
866.676	38.91
866.85	30.72
867.024	45.06
867.197	96.25
867.371	57.34
867.544	-4.1
867.718	-26.62
867.891	-14.34
868.065	-30.72
868.238	16.38
868.412	32.77
868.585	22.53
868.759	73.73
868.932	14.34
869.105	4.1
869.279	4.1
869.452	-53.25
869.625	-4.1
869.799	53.25
869.972	20.48
870.145	73.73
870.319	63.49
870.492	-81.92
870.665	30.72
870.838	55.3
871.011	-6.14
871.185	53.25
871.358	40.96
871.531	57.34
871.704	-45.06
871.877	67.58
872.05	30.72
872.223	88.06
872.396	24.58
872.569	2.05
872.742	-22.53
872.915	-2.05
873.088	28.67
873.261	-6.14
873.434	51.2
873.607	-47.1
873.78	14.34
873.953	40.96
874.126	32.77
874.299	59.39
874.471	-24.58
874.644	-6.14
874.817	36.86
874.99	30.72
875.163	-20.48
875.335	16.38
875.508	36.86
875.681	24.58
875.853	-45.06
876.026	20.48
876.199	-2.05
876.371	67.58
876.544	-18.43
876.717	-38.91
876.889	-12.29
877.062	83.97
877.234	2.05
877.407	22.53
877.579	22.53
877.752	-55.3
877.924	-26.62
878.097	20.48
878.269	-4.1
878.442	30.72
878.614	45.06
878.786	59.39
878.959	30.72
879.131	40.96
879.303	-67.58
879.476	-6.14
879.648	-40.96
879.82	0
879.993	-4.1
880.165	28.67
880.337	-36.86
880.509	26.62
880.681	-53.25
880.854	-16.38
881.026	38.91
881.198	-14.34
881.37	24.58
881.542	4.1
881.714	14.34
881.886	49.15
882.058	-36.86
882.23	-12.29
882.402	40.96
882.574	59.39
882.746	-18.43
882.918	57.34
883.09	14.34
883.262	47.1
883.434	32.77
883.606	88.06
883.778	36.86
883.95	28.67
884.122	-26.62
884.293	34.82
884.465	-26.62
884.637	45.06
884.809	38.91
884.98	8.19
885.152	71.68
885.324	16.38
885.496	-55.3
885.667	10.24
885.839	-6.14
886.011	40.96
886.182	-43.01
886.354	-4.1
886.525	30.72
886.697	-16.38
886.869	38.91
887.04	-14.34
887.212	10.24
887.383	26.62
887.555	-16.38
887.726	81.92
887.897	6.14
888.069	-30.72
888.24	-16.38
888.412	-71.68
888.583	18.43
888.754	16.38
888.926	-92.16
889.097	73.73
889.268	51.2
889.44	16.38
889.611	-83.97
889.782	-12.29
889.953	10.24
890.125	98.3
890.296	-10.24
890.467	40.96
890.638	65.54
890.809	-4.1
890.98	53.25
891.151	18.43
891.323	34.82
891.494	-26.62
891.665	30.72
891.836	8.19
892.007	61.44
892.178	22.53
892.349	36.86
892.52	-6.14
892.691	20.48
892.862	-45.06
893.032	34.82
893.203	-2.05
893.374	-16.38
893.545	-6.14
893.716	26.62
893.887	49.15
894.057	16.38
894.228	20.48
894.399	43.01
894.57	49.15
894.74	-4.1
894.911	57.34
895.082	-34.82
895.253	-14.34
895.423	-30.72
895.594	55.3
895.764	-28.67
895.935	67.58
896.106	-8.19
896.276	30.72
896.447	96.25
896.617	-4.1
896.788	-67.58
896.958	59.39
897.129	-14.34
897.299	14.34
897.47	106.49
897.64	69.63
897.81	-53.25
897.981	14.34
898.151	-24.58
898.322	10.24
898.492	10.24
898.662	-6.14
898.832	0
899.003	36.86
899.173	-49.15
899.343	-67.58
899.513	30.72
