Data from USB4F104151__45__12-27-25-334.txt Node

Date: Fri Mar 14 12:27:25 EDT 2025
User: louis
Spectrometer: USB4F10415
Trigger mode: 4
Integration Time (sec): 2.000000E-2
Scans to average: 1
Electric dark correction enabled: true
Nonlinearity correction enabled: false
Boxcar width: 0
XAxis mode: Wavelengths
Number of Pixels in Spectrum: 3648
>>>>>Begin Spectral Data<<<<<
178.204	-83.97
178.424	-83.97
178.644	-83.97
178.864	-124.93
179.084	-116.73
179.304	-20.48
179.524	20.48
179.744	6.14
179.964	63.49
180.184	4.1
180.404	10.24
180.624	43.01
180.844	-65.53
181.064	-34.82
181.283	22.53
181.503	-53.25
181.723	4.1
181.943	-22.53
182.163	102.4
182.383	8.19
182.602	71.68
182.822	18.43
183.042	34.82
183.262	-36.86
183.482	38.91
183.701	30.72
183.921	4.1
184.141	20.48
184.361	96.25
184.58	55.3
184.8	53.25
185.02	14.34
185.239	77.82
185.459	32.77
185.679	135.17
185.898	-57.34
186.118	10.24
186.338	36.86
186.557	47.1
186.777	-14.34
186.997	18.43
187.216	28.67
187.436	67.58
187.655	106.49
187.875	34.82
188.095	20.48
188.314	40.96
188.534	65.54
188.753	18.43
188.973	45.06
189.192	26.62
189.412	-2.05
189.631	10.24
189.851	47.1
190.07	53.25
190.29	4.1
190.509	38.91
190.729	-59.39
190.948	71.68
191.168	159.74
191.387	63.49
191.607	-22.53
191.826	14.34
192.045	28.67
192.265	63.49
192.484	-34.82
192.704	-34.82
192.923	8.19
193.142	73.73
193.362	61.44
193.581	73.73
193.8	-24.58
194.02	-16.38
194.239	-10.24
194.458	22.53
194.678	14.34
194.897	40.96
195.116	12.29
195.335	4.1
195.555	8.19
195.774	6.14
195.993	36.86
196.212	-61.44
196.432	-32.77
196.651	-45.06
196.87	75.77
197.089	57.34
197.308	114.69
197.528	40.96
197.747	-20.48
197.966	28.67
198.185	2.05
198.404	51.2
198.623	-4.1
198.842	-16.38
199.062	110.59
199.281	49.15
199.5	32.77
199.719	36.86
199.938	2.05
200.157	51.2
200.376	55.3
200.595	88.06
200.814	8.19
201.033	67.58
201.252	32.77
201.471	81.92
201.69	-18.43
201.909	63.49
202.128	55.3
202.347	-2.05
202.566	63.49
202.785	-75.77
203.004	-43.01
203.223	112.64
203.442	4.1
203.661	57.34
203.879	38.91
204.098	14.34
204.317	75.77
204.536	83.97
204.755	30.72
204.974	14.34
205.193	47.1
205.411	94.21
205.63	20.48
205.849	77.82
206.068	75.77
206.287	63.49
206.505	-24.58
206.724	59.39
206.943	24.58
207.162	38.91
207.381	38.91
207.599	59.39
207.818	-20.48
208.037	40.96
208.255	47.1
208.474	45.06
208.693	96.25
208.911	67.58
209.13	81.92
209.349	57.34
209.567	-14.34
209.786	22.53
210.005	-16.38
210.223	-6.14
210.442	16.38
210.661	79.87
210.879	71.68
211.098	45.06
211.316	69.63
211.535	108.54
211.753	22.53
211.972	51.2
212.191	6.14
212.409	30.72
212.628	73.73
212.846	-8.19
213.065	16.38
213.283	63.49
213.502	30.72
213.72	116.73
213.938	30.72
214.157	24.58
214.375	20.48
214.594	16.38
214.812	-49.15
215.031	83.97
215.249	34.82
215.467	-43.01
215.686	-22.53
215.904	57.34
216.122	28.67
216.341	14.34
216.559	8.19
216.778	149.5
216.996	36.86
217.214	24.58
217.432	77.82
217.651	-8.19
217.869	40.96
218.087	16.38
218.306	22.53
218.524	12.29
218.742	79.87
218.96	34.82
219.179	2.05
219.397	22.53
219.615	28.67
219.833	32.77
220.051	-22.53
220.27	135.17
220.488	73.73
220.706	65.54
220.924	55.3
221.142	22.53
221.36	-16.38
221.578	-30.72
221.796	-34.82
222.015	6.14
222.233	61.44
222.451	20.48
222.669	65.54
222.887	32.77
223.105	-34.82
223.323	36.86
223.541	30.72
223.759	40.96
223.977	0
224.195	55.3
224.413	73.73
224.631	12.29
224.849	18.43
225.067	106.49
225.285	53.25
225.503	73.73
225.721	2.05
225.939	20.48
226.157	53.25
226.375	151.55
226.592	49.15
226.81	-4.1
227.028	36.86
227.246	61.44
227.464	53.25
227.682	-22.53
227.9	4.1
228.117	63.49
228.335	-12.29
228.553	18.43
228.771	-24.58
228.989	90.11
229.206	43.01
229.424	0
229.642	43.01
229.86	32.77
230.077	32.77
230.295	24.58
230.513	32.77
230.731	45.06
230.948	81.92
231.166	112.64
231.384	45.06
231.601	38.91
231.819	57.34
232.037	51.2
232.254	75.77
232.472	-2.05
232.689	24.58
232.907	45.06
233.125	49.15
233.342	45.06
233.56	-55.3
233.777	43.01
233.995	57.34
234.213	47.1
234.43	20.48
234.648	-10.24
234.865	47.1
235.083	63.49
235.3	69.63
235.518	-6.14
235.735	0
235.953	16.38
236.17	-45.06
236.388	0
236.605	-2.05
236.822	104.45
237.04	45.06
237.257	-10.24
237.475	-34.82
237.692	63.49
237.909	61.44
238.127	8.19
238.344	-10.24
238.562	51.2
238.779	-8.19
238.996	14.34
239.214	79.87
239.431	106.49
239.648	0
239.865	94.21
240.083	24.58
240.3	73.73
240.517	92.16
240.735	69.63
240.952	96.25
241.169	57.34
241.386	20.48
241.603	43.01
241.821	-26.62
242.038	69.63
242.255	-12.29
242.472	92.16
242.689	34.82
242.907	38.91
243.124	-14.34
243.341	43.01
243.558	53.25
243.775	22.53
243.992	36.86
244.209	-43.01
244.426	71.68
244.643	-12.29
244.86	53.25
245.078	22.53
245.295	24.58
245.512	92.16
245.729	28.67
245.946	73.73
246.163	20.48
246.38	32.77
246.597	49.15
246.814	22.53
247.031	49.15
247.248	22.53
247.464	49.15
247.681	-20.48
247.898	18.43
248.115	83.97
248.332	59.39
248.549	104.45
248.766	34.82
248.983	24.58
249.2	-63.49
249.417	90.11
249.633	49.15
249.85	-10.24
250.067	20.48
250.284	34.82
250.501	57.34
250.717	-10.24
250.934	6.14
251.151	8.19
251.368	14.34
251.585	16.38
251.801	36.86
252.018	-8.19
252.235	12.29
252.451	40.96
252.668	88.06
252.885	47.1
253.102	12.29
253.318	79.87
253.535	16.38
253.752	12.29
253.968	16.38
254.185	28.67
254.401	10.24
254.618	90.11
254.835	53.25
255.051	77.82
255.268	-36.86
255.484	-43.01
255.701	-10.24
255.917	79.87
256.134	71.68
256.351	22.53
256.567	59.39
256.784	124.93
257	-40.96
257.217	18.43
257.433	49.15
257.65	96.25
257.866	88.06
258.082	34.82
258.299	-36.86
258.515	143.36
258.732	73.73
258.948	51.2
259.165	-6.14
259.381	47.1
259.597	90.11
259.814	38.91
260.03	43.01
260.246	-12.29
260.463	32.77
260.679	6.14
260.895	-4.1
261.112	53.25
261.328	30.72
261.544	8.19
261.761	43.01
261.977	45.06
262.193	-2.05
262.409	32.77
262.626	-30.72
262.842	45.06
263.058	36.86
263.274	14.34
263.49	18.43
263.707	6.14
263.923	-38.91
264.139	16.38
264.355	51.2
264.571	38.91
264.787	-14.34
265.004	182.27
265.22	57.34
265.436	43.01
265.652	12.29
265.868	32.77
266.084	10.24
266.3	36.86
266.516	-32.77
266.732	57.34
266.948	-4.1
267.164	96.25
267.38	71.68
267.596	61.44
267.812	81.92
268.028	49.15
268.244	36.86
268.46	14.34
268.676	14.34
268.892	24.58
269.108	18.43
269.324	-16.38
269.54	6.14
269.756	38.91
269.972	43.01
270.188	65.54
270.403	30.72
270.619	51.2
270.835	-2.05
271.051	71.68
271.267	34.82
271.483	30.72
271.698	14.34
271.914	26.62
272.13	69.63
272.346	71.68
272.562	92.16
272.777	32.77
272.993	63.49
273.209	63.49
273.425	-36.86
273.64	-12.29
273.856	51.2
274.072	30.72
274.287	32.77
274.503	63.49
274.719	98.3
274.934	135.17
275.15	-51.2
275.366	77.82
275.581	55.3
275.797	18.43
276.012	10.24
276.228	-10.24
276.444	0
276.659	92.16
276.875	-6.14
277.09	32.77
277.306	8.19
277.521	24.58
277.737	59.39
277.952	129.02
278.168	12.29
278.383	83.97
278.599	59.39
278.814	75.77
279.03	-2.05
279.245	71.68
279.461	26.62
279.676	53.25
279.892	4.1
280.107	98.3
280.322	-4.1
280.538	65.54
280.753	20.48
280.969	83.97
281.184	12.29
281.399	57.34
281.615	-6.14
281.83	129.02
282.045	38.91
282.26	32.77
282.476	6.14
282.691	90.11
282.906	-45.06
283.122	51.2
283.337	141.31
283.552	71.68
283.767	77.82
283.983	104.45
284.198	14.34
284.413	122.88
284.628	83.97
284.843	28.67
285.058	51.2
285.274	57.34
285.489	73.73
285.704	120.83
285.919	-12.29
286.134	24.58
286.349	49.15
286.564	10.24
286.779	45.06
286.995	106.49
287.21	4.1
287.425	73.73
287.64	18.43
287.855	26.62
288.07	38.91
288.285	57.34
288.5	83.97
288.715	79.87
288.93	73.73
289.145	-4.1
289.36	43.01
289.575	0
289.79	61.44
290.004	36.86
290.219	86.01
290.434	-2.05
290.649	22.53
290.864	47.1
291.079	12.29
291.294	61.44
291.509	38.91
291.724	51.2
291.938	26.62
292.153	34.82
292.368	-6.14
292.583	28.67
292.798	59.39
293.012	59.39
293.227	57.34
293.442	2.05
293.657	43.01
293.871	96.25
294.086	40.96
294.301	169.98
294.516	77.82
294.73	69.63
294.945	10.24
295.16	47.1
295.374	2.05
295.589	77.82
295.804	77.82
296.018	65.54
296.233	77.82
296.447	100.35
296.662	2.05
296.877	79.87
297.091	28.67
297.306	49.15
297.52	-2.05
297.735	38.91
297.949	40.96
298.164	2.05
298.378	-14.34
298.593	10.24
298.807	45.06
299.022	10.24
299.236	32.77
299.451	96.25
299.665	-4.1
299.88	55.3
300.094	36.86
300.309	12.29
300.523	10.24
300.737	90.11
300.952	40.96
301.166	4.1
301.381	51.2
301.595	10.24
301.809	38.91
302.024	6.14
302.238	4.1
302.452	94.21
302.667	12.29
302.881	40.96
303.095	8.19
303.309	114.69
303.524	8.19
303.738	28.67
303.952	8.19
304.166	83.97
304.381	73.73
304.595	79.87
304.809	30.72
305.023	26.62
305.237	55.3
305.452	75.77
305.666	36.86
305.88	36.86
306.094	55.3
306.308	26.62
306.522	30.72
306.736	34.82
306.95	24.58
307.164	8.19
307.379	45.06
307.593	57.34
307.807	65.54
308.021	172.03
308.235	90.11
308.449	32.77
308.663	45.06
308.877	63.49
309.091	-6.14
309.305	79.87
309.519	38.91
309.733	63.49
309.947	43.01
310.161	124.93
310.374	67.58
310.588	79.87
310.802	83.97
311.016	8.19
311.23	12.29
311.444	-4.1
311.658	2.05
311.872	30.72
312.085	79.87
312.299	77.82
312.513	-2.05
312.727	94.21
312.941	4.1
313.154	47.1
313.368	36.86
313.582	77.82
313.796	45.06
314.009	-4.1
314.223	34.82
314.437	69.63
314.651	139.26
314.864	30.72
315.078	12.29
315.292	10.24
315.505	71.68
315.719	36.86
315.933	2.05
316.146	38.91
316.36	47.1
316.573	14.34
316.787	22.53
317.001	18.43
317.214	67.58
317.428	40.96
317.641	28.67
317.855	94.21
318.068	14.34
318.282	81.92
318.495	45.06
318.709	12.29
318.922	8.19
319.136	57.34
319.349	47.1
319.563	22.53
319.776	51.2
319.99	38.91
320.203	63.49
320.417	6.14
320.63	57.34
320.843	131.07
321.057	26.62
321.27	26.62
321.483	6.14
321.697	86.01
321.91	28.67
322.124	63.49
322.337	118.78
322.55	22.53
322.763	73.73
322.977	4.1
323.19	28.67
323.403	67.58
323.617	143.36
323.83	-26.62
324.043	16.38
324.256	65.54
324.469	126.97
324.683	10.24
324.896	45.06
325.109	-34.82
325.322	16.38
325.535	75.77
325.748	40.96
325.962	6.14
326.175	53.25
326.388	12.29
326.601	-10.24
326.814	12.29
327.027	45.06
327.24	36.86
327.453	38.91
327.666	135.17
327.879	90.11
328.092	45.06
328.305	67.58
328.518	-36.86
328.731	22.53
328.944	10.24
329.157	2.05
329.37	-8.19
329.583	10.24
329.796	69.63
330.009	38.91
330.222	-6.14
330.435	83.97
330.648	38.91
330.861	30.72
331.073	45.06
331.286	-2.05
331.499	79.87
331.712	40.96
331.925	47.1
332.138	-4.1
332.35	79.87
332.563	16.38
332.776	12.29
332.989	22.53
333.202	24.58
333.414	55.3
333.627	40.96
333.84	55.3
334.053	77.82
334.265	65.54
334.478	61.44
334.691	6.14
334.903	34.82
335.116	67.58
335.329	47.1
335.541	90.11
335.754	118.78
335.966	18.43
336.179	0
336.392	47.1
336.604	79.87
336.817	77.82
337.029	49.15
337.242	53.25
337.454	67.58
337.667	-6.14
337.88	12.29
338.092	73.73
338.305	118.78
338.517	-4.1
338.729	124.93
338.942	118.78
339.154	-16.38
339.367	-10.24
339.579	79.87
339.792	45.06
340.004	65.54
340.217	43.01
340.429	67.58
340.641	12.29
340.854	45.06
341.066	-20.48
341.278	61.44
341.491	116.73
341.703	2.05
341.915	24.58
342.128	92.16
342.34	36.86
342.552	79.87
342.764	-10.24
342.977	122.88
343.189	43.01
343.401	63.49
343.613	57.34
343.826	83.97
344.038	-30.72
344.25	77.82
344.462	-4.1
344.674	24.58
344.886	24.58
345.099	145.41
345.311	57.34
345.523	20.48
345.735	55.3
345.947	32.77
346.159	57.34
346.371	100.35
346.583	20.48
346.795	57.34
347.007	92.16
347.219	69.63
347.431	49.15
347.643	96.25
347.855	34.82
348.067	53.25
348.279	67.58
348.491	71.68
348.703	88.06
348.915	30.72
349.127	26.62
349.339	96.25
349.551	26.62
349.763	22.53
349.975	34.82
350.187	88.06
350.399	26.62
350.61	104.45
350.822	77.82
351.034	6.14
351.246	90.11
351.458	55.3
351.669	57.34
351.881	-2.05
352.093	108.54
352.305	65.54
352.517	0
352.728	77.82
352.94	83.97
353.152	110.59
353.363	67.58
353.575	63.49
353.787	129.02
353.999	4.1
354.21	96.25
354.422	-8.19
354.633	-49.15
354.845	40.96
355.057	106.49
355.268	32.77
355.48	28.67
355.692	34.82
355.903	86.01
356.115	2.05
356.326	0
356.538	8.19
356.749	43.01
356.961	110.59
357.172	98.3
357.384	81.92
357.595	67.58
357.807	4.1
358.018	36.86
358.23	-26.62
358.441	98.3
358.653	38.91
358.864	43.01
359.075	75.77
359.287	34.82
359.498	122.88
359.709	49.15
359.921	43.01
360.132	55.3
360.344	32.77
360.555	51.2
360.766	45.06
360.977	10.24
361.189	110.59
361.4	-55.3
361.611	36.86
361.823	77.82
362.034	34.82
362.245	47.1
362.456	75.77
362.667	49.15
362.879	59.39
363.09	79.87
363.301	96.25
363.512	2.05
363.723	2.05
363.935	61.44
364.146	53.25
364.357	26.62
364.568	86.01
364.779	2.05
364.99	77.82
365.201	53.25
365.412	63.49
365.623	-10.24
365.834	126.97
366.045	-4.1
366.256	147.45
366.467	16.38
366.678	36.86
366.889	36.86
367.1	47.1
367.311	2.05
367.522	-30.72
367.733	63.49
367.944	-14.34
368.155	63.49
368.366	122.88
368.577	4.1
368.788	106.49
368.999	32.77
369.209	53.25
369.42	114.69
369.631	102.4
369.842	30.72
370.053	40.96
370.264	106.49
370.474	30.72
370.685	83.97
370.896	22.53
371.107	-40.96
371.317	40.96
371.528	10.24
371.739	24.58
371.95	67.58
372.16	6.14
372.371	8.19
372.582	26.62
372.792	67.58
373.003	108.54
373.214	102.4
373.424	57.34
373.635	47.1
373.846	100.35
374.056	18.43
374.267	71.68
374.477	32.77
374.688	67.58
374.898	88.06
375.109	114.69
375.319	30.72
375.53	40.96
375.74	69.63
375.951	77.82
376.161	59.39
376.372	65.54
376.582	36.86
376.793	65.54
377.003	18.43
377.214	96.25
377.424	14.34
377.635	79.87
377.845	57.34
378.055	118.78
378.266	65.54
378.476	73.73
378.686	43.01
378.897	-10.24
379.107	92.16
379.317	8.19
379.528	43.01
379.738	49.15
379.948	4.1
380.158	22.53
380.369	106.49
380.579	90.11
380.789	34.82
380.999	47.1
381.21	20.48
381.42	63.49
381.63	28.67
381.84	51.2
382.05	77.82
382.261	73.73
382.471	43.01
382.681	65.54
382.891	126.97
383.101	38.91
383.311	63.49
383.521	65.54
383.731	38.91
383.941	30.72
384.151	2.05
384.361	16.38
384.571	135.17
384.781	110.59
384.991	49.15
385.201	131.07
385.411	86.01
385.621	36.86
385.831	67.58
386.041	-12.29
386.251	61.44
386.461	88.06
386.671	73.73
386.881	59.39
387.091	10.24
387.301	71.68
387.511	26.62
387.72	57.34
387.93	22.53
388.14	81.92
388.35	43.01
388.56	32.77
388.769	141.31
388.979	75.77
389.189	26.62
389.399	94.21
389.609	102.4
389.818	18.43
390.028	90.11
390.238	108.54
390.447	8.19
390.657	73.73
390.867	49.15
391.076	51.2
391.286	94.21
391.496	112.64
391.705	-53.25
391.915	112.64
392.125	30.72
392.334	38.91
392.544	114.69
392.753	169.98
392.963	65.54
393.172	75.77
393.382	100.35
393.591	153.6
393.801	167.93
394.01	137.21
394.22	53.25
394.429	96.25
394.639	102.4
394.848	43.01
395.058	63.49
395.267	79.87
395.477	92.16
395.686	104.45
395.895	77.82
396.105	141.31
396.314	38.91
396.524	67.58
396.733	114.69
396.942	83.97
397.152	96.25
397.361	161.79
397.57	114.69
397.78	122.88
397.989	108.54
398.198	186.37
398.407	65.54
398.617	92.16
398.826	73.73
399.035	90.11
399.244	137.21
399.453	57.34
399.663	137.21
399.872	110.59
400.081	43.01
400.29	77.82
400.499	96.25
400.708	126.97
400.917	96.25
401.127	126.97
401.336	143.36
401.545	190.46
401.754	38.91
401.963	145.41
402.172	100.35
402.381	155.65
402.59	110.59
402.799	129.02
403.008	88.06
403.217	143.36
403.426	26.62
403.635	86.01
403.844	200.7
404.053	129.02
404.262	114.69
404.471	180.22
404.68	98.3
404.888	129.02
405.097	112.64
405.306	184.32
405.515	147.45
405.724	159.74
405.933	169.98
406.142	196.61
406.35	124.93
406.559	215.04
406.768	159.74
406.977	235.52
407.185	165.89
407.394	239.61
407.603	194.56
407.812	141.31
408.02	182.27
408.229	200.7
408.438	182.27
408.646	352.25
408.855	167.93
409.064	223.23
409.272	188.41
409.481	294.91
409.69	290.81
409.898	268.28
410.107	278.52
410.315	335.87
410.524	321.53
410.733	348.15
410.941	342.01
411.15	325.63
411.358	325.63
411.567	428.03
411.775	313.34
411.984	331.77
412.192	415.74
412.401	430.07
412.609	421.88
412.818	419.83
413.026	493.56
413.234	442.36
413.443	434.17
413.651	483.32
413.86	464.89
414.068	563.19
414.276	604.15
414.485	587.77
414.693	632.82
414.901	657.4
415.11	618.49
415.318	632.82
415.526	626.68
415.734	686.07
415.943	786.42
416.151	864.24
416.359	763.89
416.567	780.28
416.776	786.42
416.984	880.63
417.192	929.78
417.4	851.95
417.608	843.76
417.817	919.54
418.025	964.59
418.233	1003.5
418.441	960.5
418.649	1062.9
418.857	1146.86
419.065	1218.54
419.273	1116.14
419.481	1241.07
419.689	1378.28
419.897	1423.34
420.105	1390.57
420.313	1458.15
420.521	1462.25
420.729	1550.31
420.937	1632.23
421.145	1626.09
421.353	1650.66
421.561	1877.99
421.769	1794.02
421.977	1894.37
422.185	1806.31
422.393	1912.8
422.601	2052.06
422.809	2009.06
423.017	2027.49
423.224	2154.46
423.432	2242.53
423.64	2357.21
423.848	2506.71
424.056	2328.54
424.263	2496.47
424.471	2475.99
424.679	2549.72
424.887	2789.33
425.094	2912.21
425.302	2848.72
425.51	2975.7
425.718	3160.02
425.925	3024.85
426.133	3219.41
426.341	3547.08
426.548	3616.71
426.756	3776.45
426.964	3727.3
427.171	3858.37
427.379	3852.23
427.586	3930.05
427.794	4200.38
428.001	4294.59
428.209	4487.1
428.417	4501.44
428.624	4825.01
428.832	4730.81
429.039	4812.73
429.247	4769.72
429.454	5183.41
429.662	5369.77
429.869	5169.07
430.076	5570.47
430.284	5377.97
430.491	5668.78
430.699	5842.85
430.906	6004.64
431.114	6037.41
431.321	6240.16
431.528	6240.16
431.736	6770.58
431.943	7098.26
432.15	6946.71
432.358	6991.77
432.565	7395.22
432.772	7309.2
432.979	7743.37
433.187	7733.13
433.394	7901.06
433.601	8351.62
433.808	8298.37
434.016	8570.75
434.223	8679.29
434.43	9265.01
434.637	9148.28
434.844	9787.24
435.052	9897.83
435.259	9815.91
435.466	9932.65
435.673	9693.04
435.88	10532.7
436.087	10899.29
436.294	11046.74
436.501	10604.38
436.708	11059.03
436.915	11415.38
437.122	11968.33
437.329	11917.13
437.537	12150.6
437.743	12171.08
437.95	12365.64
438.157	13014.84
438.364	13389.62
438.571	13551.41
438.778	13455.15
438.985	14679.84
439.192	14081.83
439.399	14559.01
439.606	14274.34
439.813	14901.02
440.02	15707.92
440.227	15628.05
440.433	15591.19
440.64	16275.21
440.847	15965.96
441.054	16215.82
441.261	17356.54
441.467	17245.94
441.674	17542.9
441.881	18138.86
442.088	18020.08
442.294	17907.44
442.501	18433.77
442.708	18958.05
442.914	19703.51
443.121	20475.59
443.328	19812.05
443.534	21556.92
443.741	20489.93
443.948	20092.62
444.154	21728.95
444.361	21821.11
444.568	21802.68
444.774	21913.27
444.981	22507.18
445.187	22570.66
445.394	23885.46
445.6	23512.73
445.807	25587.32
446.013	24264.33
446.22	25288.32
446.426	26156.66
446.633	26166.9
446.839	27094.63
447.046	25988.72
447.252	27661.91
447.459	27649.63
447.665	27285.09
447.871	28939.85
448.078	29957.69
448.284	28603.98
448.491	29673.02
448.697	30674.48
448.903	30858.79
449.11	31034.92
449.316	30619.18
449.522	30940.71
449.728	31979.03
449.935	32411.15
450.141	31970.84
450.347	33043.98
450.553	32298.52
450.76	32642.57
450.966	33588.74
451.172	32994.82
451.378	33742.33
451.584	33379.84
451.791	33900.03
451.997	33920.51
452.203	34389.49
452.409	34647.54
452.615	34616.82
452.821	33351.17
453.027	32470.54
453.233	34743.79
453.44	33207.81
453.646	33535.49
453.852	33945.08
454.058	33936.89
454.264	33242.63
454.47	34045.43
454.676	33117.7
454.882	34375.16
455.088	31292.96
455.294	31770.14
455.5	31915.54
455.705	32558.61
455.911	31370.79
456.117	30846.51
456.323	30453.3
456.529	28560.97
456.735	30008.89
456.941	29103.68
457.147	28628.56
457.352	28089.94
457.558	27420.25
457.764	27835.99
457.97	26836.58
458.176	26615.4
458.381	26642.03
458.587	25089.67
458.793	25460.35
458.999	23879.32
459.204	25370.24
459.41	25069.19
459.616	23170.72
459.821	23326.36
460.027	23434.91
460.233	22691.49
460.438	21395.13
460.644	21962.42
460.85	20698.82
461.055	20375.24
461.261	20438.73
461.466	18808.54
461.672	18482.92
461.878	19957.46
462.083	18247.4
462.289	18104.04
462.494	17694.45
462.7	16987.9
462.905	16561.92
463.111	17161.98
463.316	17223.42
463.522	16746.24
463.727	17014.52
463.932	16928.51
464.138	16779.01
464.343	16856.83
464.549	16287.5
464.754	16627.46
464.959	16772.86
465.165	16103.18
465.37	15849.23
465.575	15327
465.781	15822.61
465.986	16240.39
466.191	15494.93
466.397	15355.67
466.602	14685.98
466.807	15234.84
467.012	15103.77
467.218	14853.92
467.423	14835.49
467.628	14812.96
467.833	15742.74
468.038	14997.28
468.244	14597.92
468.449	15228.7
468.654	14479.14
468.859	14417.7
469.064	14565.15
469.269	13840.17
469.474	14077.74
469.679	14155.56
469.885	13926.19
470.09	14151.46
470.295	14034.73
470.5	13575.98
470.705	13860.65
470.91	13471.54
471.115	13379.38
471.32	13676.34
471.525	13459.25
471.73	13305.65
471.935	13031.23
472.139	12638.02
472.344	12842.81
472.549	12648.25
472.754	12535.62
472.959	12402.5
473.164	12042.06
473.369	11792.2
473.574	12439.36
473.778	12332.87
473.983	11999.05
474.188	11956.04
474.393	11687.76
474.598	11495.25
474.802	11374.42
475.007	11321.17
475.212	11517.78
475.417	10778.46
475.621	11028.31
475.826	10876.76
476.031	10846.04
476.235	10565.47
476.44	10667.87
476.645	10631.01
476.849	10424.16
477.054	10532.7
477.259	10237.8
477.463	10475.36
477.668	10026.85
477.872	9985.9
478.077	9969.51
478.282	9744.24
478.486	9631.6
478.691	9523.05
478.895	9672.56
479.1	9385.84
479.304	9633.65
479.509	9148.28
479.713	9428.85
479.918	9457.52
480.122	9258.87
480.326	9199.48
480.531	9135.99
480.735	9006.97
480.94	8963.96
481.144	9373.55
481.348	8941.43
481.553	8994.68
481.757	8730.49
481.961	8937.34
482.166	9084.79
482.37	9135.99
482.574	8771.45
482.778	8718.2
482.983	8972.15
483.187	8873.85
483.391	8937.34
483.595	8662.91
483.8	8787.83
484.004	8929.14
484.208	8779.64
484.412	8662.91
484.616	8693.63
484.821	8716.15
485.025	8640.38
485.229	8923
485.433	8877.94
485.637	8875.9
485.841	8877.94
486.045	8826.75
486.249	8843.13
486.453	8824.7
486.657	8585.08
486.861	8918.9
487.065	8673.15
487.269	8746.87
487.473	8734.59
487.677	8851.32
487.881	8898.42
488.085	8712.06
488.289	8664.96
488.493	8822.65
488.697	8877.94
488.901	8896.38
489.105	8765.31
489.309	8873.85
489.512	9037.69
489.716	8673.15
489.92	8750.97
490.124	8884.09
490.328	9150.32
490.531	8955.77
490.735	9111.41
490.939	9052.02
491.143	9006.97
491.346	9066.36
491.55	9068.41
491.754	9144.18
491.958	9361.27
492.161	9193.33
492.365	9258.87
492.569	9211.76
492.772	9289.59
492.976	9400.18
493.18	9359.22
493.383	9441.14
493.587	9576.3
493.79	9715.56
493.994	9545.58
494.197	9652.08
494.401	9682.8
494.605	9783.15
494.808	9903.98
495.012	9807.72
495.215	9957.22
495.419	10213.22
495.622	10149.73
495.825	10317.67
496.029	10245.99
496.232	10475.36
496.436	10350.43
496.639	10866.52
496.843	10657.63
497.046	11028.31
497.249	10864.47
497.453	10979.16
497.656	11087.7
497.859	11059.03
498.063	11120.47
498.266	11554.64
498.469	11599.69
498.673	11464.53
498.876	11884.36
499.079	11675.47
499.282	11743.05
499.485	11992.9
499.689	12126.02
499.892	11960.14
500.095	12146.5
500.298	12656.45
500.501	12504.9
500.705	12795.71
500.908	12861.24
501.111	13066.04
501.314	13469.49
501.517	13395.76
501.72	13344.56
501.923	13547.31
502.126	13821.74
502.329	14143.27
502.532	13909.8
502.735	14063.4
502.938	14360.36
503.141	14509.86
503.344	14837.53
503.547	14585.63
503.75	14987.04
503.953	15380.25
504.156	15335.19
504.359	15585.04
504.562	15648.53
504.765	15947.53
504.968	16021.26
505.17	16170.76
505.373	16181
505.576	16563.97
505.779	16742.14
505.982	16760.58
506.185	16924.41
506.387	17082.11
506.59	17291
506.793	17622.77
506.996	17567.48
507.198	18065.13
507.401	17759.99
507.604	17921.77
507.807	18437.86
508.009	18826.98
508.212	18704.1
508.415	18847.46
508.617	19117.79
508.82	19275.48
509.022	19085.02
509.225	19685.08
509.428	20078.29
509.63	20037.33
509.833	20235.98
510.035	20551.37
510.238	20356.81
510.44	20979.39
510.643	21096.13
510.845	21245.63
511.048	21202.62
511.25	21618.36
511.453	21741.24
511.655	22560.42
511.858	22165.17
512.06	22662.82
512.262	22386.35
512.465	22513.32
512.667	23006.88
512.87	23371.42
513.072	23541.4
513.274	23465.63
513.477	23985.81
513.679	24084.11
513.881	24428.17
514.084	24426.12
514.286	24503.95
514.488	24811.14
514.69	25413.24
514.893	25101.95
515.095	25646.71
515.297	25620.09
515.499	26089.07
515.701	26279.53
515.904	26467.95
516.106	26676.84
516.308	26961.51
516.51	27518.56
516.712	27360.86
516.914	27356.77
517.116	27965.01
517.318	27727.45
517.52	28145.23
517.722	28024.4
517.925	28628.56
518.127	28876.36
518.329	28814.92
518.531	29087.3
518.733	29552.19
518.935	29742.65
519.136	30017.08
519.338	30389.81
519.54	30340.66
519.742	30625.32
519.944	30785.07
520.146	31227.43
520.348	31188.52
520.55	31514.14
520.752	31794.71
520.954	32048.66
521.155	31499.81
521.357	32454.16
521.559	32779.79
521.761	32927.24
521.963	33005.06
522.164	32929.29
522.366	33611.26
522.568	33811.96
522.77	33574.4
522.971	34280.95
523.173	34000.38
523.375	34231.8
523.576	34293.24
523.778	34483.7
523.98	34600.43
524.181	34883.05
524.383	35067.37
524.584	35845.6
524.786	35601.89
524.988	35341.8
525.189	36203.99
525.391	35814.88
525.592	36177.37
525.794	36167.13
525.995	36771.28
526.197	36453.84
526.398	36498.9
526.6	36390.36
526.801	36855.25
527.003	37225.93
527.204	37084.62
527.406	37508.55
527.607	37701.06
527.808	37805.5
528.01	37189.06
528.211	37787.07
528.412	38356.41
528.614	38147.51
528.815	37686.72
529.016	38561.2
529.218	37903.81
529.419	38172.09
529.62	38239.67
529.822	38172.09
530.023	38540.72
530.224	38507.96
530.425	38413.75
530.626	38423.99
530.828	38198.71
531.029	39103.92
531.23	38479.28
531.431	38518.2
531.632	38634.93
531.833	39044.52
532.035	39030.19
532.236	38915.5
532.437	39251.37
532.638	39220.65
532.839	39142.83
533.04	38966.7
533.241	38782.38
533.442	39761.31
533.643	39189.93
533.844	39122.35
534.045	39359.91
534.246	38608.31
534.447	39167.4
534.648	39243.18
534.849	39298.47
535.05	38958.51
535.251	39341.48
535.451	39513.51
535.652	39714.21
535.853	39538.08
536.054	39280.04
536.255	39916.96
536.456	39019.95
536.657	39722.4
536.857	39165.35
537.058	39611.81
537.259	39605.67
537.46	39810.46
537.66	39673.25
537.861	39527.84
538.062	39337.38
538.263	39595.43
538.463	39046.57
538.664	39179.69
538.865	39574.95
539.065	39536.04
539.266	38993.32
539.466	39536.04
539.667	38981.04
539.868	39861.66
540.068	39073.2
540.269	39521.7
540.469	39900.58
540.67	39294.38
540.87	39663.01
541.071	39493.03
541.271	39089.58
541.472	39384.49
541.672	39163.31
541.873	39546.28
542.073	38849.97
542.274	39591.33
542.474	39351.72
542.675	38991.28
542.875	39515.56
543.075	39519.65
543.276	38743.47
543.476	39503.27
543.676	38911.41
543.877	39241.13
544.077	39306.66
544.277	38802.86
544.478	39267.75
544.678	39419.3
544.878	39167.4
545.078	39437.73
545.279	39085.48
545.479	38968.75
545.679	39269.8
545.879	39286.18
546.079	39208.36
546.28	38847.92
546.48	38806.96
546.68	39017.9
546.88	39015.85
547.08	38872.49
547.28	38864.3
547.48	38999.47
547.68	39101.87
547.88	38507.96
548.081	39280.04
548.281	39388.58
548.481	38806.96
548.681	39402.92
548.881	38966.7
549.081	39101.87
549.28	38964.65
549.48	39181.74
549.68	38559.16
549.88	39607.72
550.08	38596.02
550.28	39007.66
550.48	38774.19
550.68	39118.25
550.88	39069.1
551.08	39048.62
551.279	39093.68
551.479	38454.71
551.679	39022
551.879	38815.15
552.079	39228.84
552.278	38768.05
552.478	38469.04
552.678	38665.65
552.878	39026.09
553.077	38557.11
553.277	38477.24
553.477	38983.09
553.676	38663.6
553.876	38540.72
554.076	38532.53
554.275	38493.62
554.475	38385.08
554.674	38929.84
554.874	38931.89
555.074	38690.23
555.273	38440.37
555.473	38737.33
555.672	38165.95
555.872	38606.26
556.071	38485.43
556.271	38954.41
556.47	38430.13
556.67	38094.27
556.869	38380.98
557.068	38264.25
557.268	38059.45
557.467	38227.38
557.667	38004.16
557.866	38346.17
558.065	38303.16
558.265	38018.49
558.464	37893.57
558.663	38307.26
558.863	37455.3
559.062	38311.35
559.261	37254.6
559.461	38317.5
559.66	37590.47
559.859	37791.17
560.058	38188.47
560.258	37475.78
560.457	37236.17
560.656	37785.02
560.855	37635.52
561.054	37541.32
561.253	37402.05
561.453	37430.72
561.652	37471.68
561.851	37516.74
562.05	37414.34
562.249	37578.18
562.448	37559.75
562.647	37144.01
562.846	37162.44
563.045	37017.04
563.244	37135.82
563.443	37320.13
563.642	36586.96
563.841	36724.18
564.04	36928.97
564.239	37123.53
564.438	36666.83
564.637	36711.89
564.836	36896.21
565.035	36496.85
565.234	36543.95
565.432	36072.92
565.631	35952.09
565.83	36638.16
566.029	36355.54
566.228	35798.49
566.427	36304.34
566.625	35898.84
566.824	35706.34
567.023	36296.15
567.222	35732.96
567.42	35798.49
567.619	35581.41
567.818	35546.59
568.016	35712.48
568.215	35808.73
568.414	35648.99
568.612	35870.17
568.811	35415.52
569.01	35503.59
569.208	35055.08
569.407	35675.62
569.605	34899.44
569.804	35470.82
570.002	35073.51
570.201	35419.62
570.4	34995.69
570.598	34911.72
570.797	34706.93
570.995	34799.08
571.193	34549.23
571.392	34952.68
571.59	34543.09
571.789	34424.31
571.987	34379.25
572.186	34610.67
572.384	34072.06
572.582	34872.81
572.781	34465.27
572.979	33873.4
573.177	34254.33
573.376	34356.72
573.574	33689.09
573.772	34233.85
573.971	34037.24
574.169	33869.31
574.367	33502.72
574.565	33836.54
574.763	33420.8
574.962	33521.15
575.16	33424.9
575.358	33383.94
575.556	32951.82
575.754	33463.81
575.952	33046.02
576.151	33340.93
576.349	32622.09
576.547	33005.06
576.745	32771.6
576.943	32912.91
577.141	32579.09
577.339	33080.84
577.537	32693.77
577.735	32978.44
577.933	32271.89
578.131	32613.9
578.329	32450.06
578.527	31970.84
578.725	32030.23
578.923	32550.42
579.121	32232.98
579.319	32161.3
579.516	32042.52
579.714	31847.96
579.912	31929.88
580.11	31727.13
580.308	31999.51
580.506	31637.02
580.704	31651.36
580.901	31469.09
581.099	31563.29
581.297	31051.3
581.495	31196.71
581.692	31483.42
581.89	31006.25
582.088	31505.95
582.285	31190.56
582.483	31184.42
582.681	30805.55
582.878	30582.32
583.076	30643.76
583.274	31102.5
583.471	30664.24
583.669	30647.85
583.866	30408.24
584.064	30903.85
584.262	30123.57
584.459	30309.94
584.657	30107.19
584.854	30225.97
585.052	29789.75
585.249	30037.56
585.447	29687.35
585.644	29726.27
585.841	30129.72
586.039	29937.21
586.236	29523.52
586.434	29701.69
586.631	29396.54
586.828	29255.23
587.026	29668.92
587.223	28747.34
587.42	29021.77
587.618	29357.63
587.815	28745.29
588.012	28925.51
588.21	28571.21
588.407	29075.01
588.604	29064.77
588.801	28462.67
588.999	28466.77
589.196	28565.07
589.393	28522.06
589.59	28491.34
589.787	28458.57
589.984	28311.12
590.182	27770.46
590.379	28317.26
590.576	28057.17
590.773	28003.92
590.97	27989.59
591.167	28118.61
591.364	27801.18
591.561	27881.05
591.758	27549.28
591.955	27600.47
592.152	27369.05
592.349	27385.44
592.546	27266.66
592.743	27401.82
592.94	27104.87
593.137	27301.47
593.334	27252.32
593.531	26539.63
593.727	27043.43
593.924	26850.92
594.121	26599.02
594.318	26846.82
594.515	26549.87
594.712	26732.14
594.908	26662.51
595.105	26599.02
595.302	26097.27
595.499	26375.79
595.696	26488.43
595.892	26001.01
596.089	25884.28
596.286	26109.55
596.482	25937.52
596.679	26111.6
596.876	26107.51
597.072	25575.03
597.269	25769.59
597.466	25833.08
597.662	25527.93
597.859	25667.19
598.055	25171.58
598.252	25515.64
598.448	25241.21
598.645	25048.71
598.841	25075.33
599.038	24931.97
599.234	25017.99
599.431	24692.36
599.627	24882.82
599.824	24800.9
600.02	24243.85
600.217	24888.96
600.413	24604.3
600.609	24477.32
600.806	24061.58
601.002	24352.4
601.198	24250
601.395	24268.43
601.591	23994
601.787	24286.86
601.984	24004.24
602.18	24080.02
602.376	23961.23
602.572	23938.71
602.769	23750.29
602.965	23387.8
603.161	23586.46
603.357	23557.78
603.553	23852.69
603.75	23598.74
603.946	23264.92
604.142	23305.88
604.338	23541.4
604.534	23150.24
604.73	22957.73
604.926	23084.7
605.122	23101.09
605.318	22953.63
605.514	22752.93
605.71	22654.63
605.906	22748.84
606.102	22644.39
606.298	22652.58
606.494	22720.17
606.69	22775.46
606.886	22912.67
607.082	22279.85
607.278	22449.83
607.474	21921.46
607.67	22423.21
607.866	22189.74
608.062	22273.71
608.257	22208.17
608.453	22091.44
608.649	22034.1
608.845	22085.29
609.041	22056.62
609.236	22259.37
609.432	22163.12
609.628	21950.13
609.824	21706.42
610.019	21894.83
610.215	21812.92
610.411	21765.81
610.606	21655.22
610.802	21679.8
610.998	21290.68
611.193	21702.32
611.389	21343.93
611.584	21376.7
611.78	21176
611.976	21526.2
612.171	21513.91
612.367	21491.38
612.562	21259.96
612.758	21161.66
612.953	21104.32
613.149	21538.49
613.344	21243.58
613.539	21440.18
613.735	21157.57
613.93	21186.24
614.126	21214.91
614.321	21165.76
614.517	21012.16
614.712	20811.46
614.907	20825.79
615.103	20969.15
615.298	20690.63
615.493	21016.26
615.688	20557.51
615.884	21173.95
616.079	20432.58
616.274	20788.93
616.47	20469.45
616.665	20797.12
616.86	20176.59
617.055	20549.32
617.25	20455.11
617.445	20594.37
617.641	20436.68
617.836	20399.82
618.031	20119.25
618.226	20350.67
618.421	19988.17
618.616	20285.13
618.811	19789.52
619.006	19943.12
619.201	19846.87
619.396	20051.66
619.591	19597.01
619.786	19517.14
619.981	19396.31
620.176	19613.4
620.371	19474.13
620.566	19447.51
620.761	19171.04
620.956	19519.19
621.151	18968.29
621.346	19146.46
621.541	18839.26
621.735	18904.8
621.93	18663.14
622.125	18837.22
622.32	18542.31
622.515	18710.24
622.709	18583.27
622.904	18351.85
623.099	18097.9
623.294	18233.07
623.488	18003.69
623.683	18278.12
623.878	17981.17
624.072	17868.53
624.267	17970.93
624.462	17780.46
624.656	17303.29
624.851	17477.37
625.046	17526.52
625.24	17108.73
625.435	17061.63
625.629	17307.38
625.824	17078.01
626.018	17061.63
626.213	16557.83
626.407	16996.09
626.602	16570.12
626.796	16543.49
626.991	16482.05
627.185	16320.26
627.38	16181
627.574	16277.26
627.768	15861.52
627.963	16029.45
628.157	15955.72
628.352	15935.24
628.546	15804.17
628.74	15914.77
628.935	15589.14
629.129	15918.86
629.323	15394.58
629.517	15337.24
629.712	15234.84
629.906	15742.74
630.1	14882.59
630.294	15230.74
630.489	14944.03
630.683	15085.34
630.877	15081.24
631.071	14606.11
631.265	14731.04
631.459	14923.55
631.653	14626.59
631.848	14591.78
632.042	14425.89
632.236	14679.84
632.43	14227.24
632.624	14421.8
632.818	14362.4
633.012	13967.15
633.206	14114.6
633.4	13997.87
633.594	13983.53
633.788	14026.54
633.982	13643.57
634.176	13866.8
634.369	13514.55
634.563	13700.91
634.757	13481.78
634.951	13567.79
635.145	13369.14
635.339	13315.89
635.533	13080.38
635.726	13258.55
635.92	13074.23
636.114	13125.43
636.308	12943.16
636.501	12904.25
636.695	13002.55
636.889	12619.58
637.083	12808
637.276	12908.35
637.47	12611.39
637.664	12386.11
637.857	12513.09
638.051	12445.51
638.244	12431.17
638.438	12197.7
638.632	12187.46
638.825	12148.55
639.019	11941.71
639.212	12062.54
639.406	12023.62
639.599	11743.05
639.793	11798.35
639.986	11542.35
640.18	12048.2
640.373	11601.74
640.567	11482.96
640.76	11673.42
640.954	11382.61
641.147	11470.67
641.34	11290.45
641.534	11384.66
641.727	11116.37
641.92	11220.82
642.114	11136.85
642.307	11024.22
642.5	11018.07
642.694	10809.18
642.887	10817.37
643.08	10979.16
643.273	10872.67
643.467	10843.99
643.66	10737.5
643.853	10522.46
644.046	10407.78
644.239	10428.26
644.432	10389.35
644.626	10258.28
644.819	10256.23
645.012	10291.04
645.205	10415.97
645.398	10297.19
645.591	10219.36
645.784	10024.81
645.977	10213.22
646.17	10084.2
646.363	9938.79
646.556	9781.1
646.749	9992.04
646.942	9889.64
647.135	9946.98
647.328	9736.04
647.521	9660.27
647.714	9650.03
647.907	9643.88
648.099	9584.49
648.292	9478
648.485	9377.65
648.678	9344.88
648.871	9363.31
649.064	9408.37
649.256	9455.47
649.449	9078.65
649.642	9232.24
649.835	9185.14
650.027	9217.91
650.22	9002.87
650.413	8888.18
650.605	8963.96
650.798	8937.34
650.991	8781.69
651.183	8980.34
651.376	8775.55
651.568	8568.7
651.761	8664.96
651.954	8566.65
652.146	8664.96
652.339	8546.17
652.531	8599.42
652.724	8492.93
652.916	8302.47
653.109	8394.62
653.301	8243.07
653.494	8308.61
653.686	8189.83
653.879	8335.23
654.071	8232.83
654.263	7970.69
654.456	8099.72
654.648	7978.89
654.84	7950.21
655.033	8243.07
655.225	8073.09
655.417	7931.78
655.61	7909.26
655.802	7890.82
655.994	7827.34
656.186	7632.78
656.379	7743.37
656.571	7675.79
656.763	7507.85
656.955	7552.91
657.148	7602.06
657.34	7546.76
657.532	7524.24
657.724	7315.34
657.916	7339.92
658.108	7372.69
658.3	7411.6
658.492	7296.91
658.684	7038.87
658.876	7186.32
659.068	7139.22
659.26	7171.99
659.452	7106.45
659.644	7008.15
659.836	6932.37
660.028	7163.79
660.22	6883.22
660.412	6809.5
660.604	6637.47
660.796	6875.03
660.988	6793.11
661.18	6682.52
661.372	6657.95
661.563	6829.98
661.755	6604.7
661.947	6598.56
662.139	6313.89
662.331	6627.23
662.522	6553.5
662.714	6551.45
662.906	6371.23
663.097	6518.68
663.289	6287.26
663.481	6428.57
663.673	6381.47
663.864	6225.82
664.056	6250.4
664.247	6231.97
664.439	6303.65
664.631	6129.57
664.822	6070.18
665.014	6268.83
665.205	6279.07
665.397	6051.75
665.588	6148
665.78	6031.27
665.971	6043.56
666.163	6107.04
666.354	5959.59
666.546	5846.95
666.737	5904.29
666.929	5922.73
667.12	5894.05
667.311	5752.74
667.503	5717.93
667.694	5691.31
667.885	5765.03
668.077	5640.11
668.268	5664.68
668.459	5644.2
668.651	5658.54
668.842	5527.47
669.033	5398.45
669.224	5650.35
669.416	5623.72
669.607	5472.17
669.798	5595.05
669.989	5404.59
670.18	5457.84
670.371	5271.47
670.563	5466.03
670.754	5570.47
670.945	5439.4
671.136	5330.86
671.327	5257.14
671.518	5156.79
671.709	5142.45
671.9	5250.99
672.091	5136.31
672.282	5255.09
672.473	5076.91
672.664	5216.18
672.855	5062.58
673.046	5107.63
673.237	5146.55
673.428	5207.98
673.619	4978.61
673.809	5130.16
674	4972.47
674.191	5081.01
674.382	4870.07
674.573	4870.07
674.764	5011.38
674.954	5083.06
675.145	4929.46
675.336	4919.22
675.527	4775.86
675.717	4872.12
675.908	4726.71
676.099	4800.44
676.289	4806.58
676.48	4845.49
676.671	4822.97
676.861	4812.73
677.052	4825.01
677.243	4898.74
677.433	4751.29
677.624	4765.62
677.814	4644.79
678.005	4708.28
678.195	4679.61
678.386	4771.77
678.576	4652.98
678.767	4663.22
678.957	4556.73
679.148	4685.75
679.338	4528.06
679.529	4577.21
679.719	4575.16
679.909	4519.87
680.1	4458.43
680.29	4558.78
680.481	4528.06
680.671	4626.36
680.861	4431.8
681.052	4485.05
681.242	4569.02
681.432	4593.59
681.622	4323.26
681.813	4396.99
682.003	4382.65
682.193	4272.06
682.383	4483
682.573	4315.07
682.764	4437.95
682.954	4497.34
683.144	4286.4
683.334	4435.9
683.524	4184
683.714	4300.73
683.904	4308.93
684.094	4380.61
684.284	4222.91
684.474	4282.3
684.664	4358.08
684.854	4126.66
685.044	4130.75
685.234	4263.87
685.424	4310.97
685.614	4229.06
685.804	4159.42
685.994	4124.61
686.184	4245.44
686.374	4149.18
686.564	3999.68
686.753	4061.12
686.943	4026.31
687.133	3989.44
687.323	4018.11
687.513	4104.13
687.702	4083.65
687.892	3825.61
688.082	3930.05
688.272	3993.54
688.461	4003.78
688.651	3870.66
688.841	3968.96
689.03	3903.43
689.22	3796.93
689.41	3864.52
689.599	3768.26
689.789	3798.98
689.979	3747.78
690.168	3807.17
690.358	3663.82
690.547	3712.97
690.737	3694.54
690.926	3764.17
691.116	3622.86
691.305	3667.91
691.495	3514.31
691.684	3624.9
691.874	3663.82
692.063	3674.06
692.252	3411.92
692.442	3676.1
692.631	3561.42
692.82	3540.94
693.01	3506.12
693.199	3438.54
693.388	3413.96
693.578	3413.96
693.767	3506.12
693.956	3381.2
694.146	3418.06
694.335	3284.94
694.524	3332.05
694.713	3291.09
694.902	3313.61
695.092	3346.38
695.281	3213.26
695.47	3192.78
695.659	3162.06
695.848	3217.36
696.037	3360.72
696.226	3160.02
696.415	3162.06
696.604	3188.69
696.793	3180.5
696.982	3196.88
697.171	3278.8
697.36	3180.5
697.549	3182.54
697.738	3184.59
697.927	3155.92
698.116	3248.08
698.305	3119.06
698.494	3123.15
698.683	3221.45
698.872	3002.32
699.061	3028.95
699.25	3194.83
699.438	2951.12
699.627	3131.34
699.816	3076.05
700.005	3100.62
700.193	3076.05
700.382	3000.27
700.571	3018.71
700.76	3018.71
700.948	2914.26
701.137	3055.57
701.326	2959.31
701.514	3071.95
701.703	3039.19
701.892	3012.56
702.08	2957.27
702.269	2953.17
702.457	2848.72
702.646	3000.27
702.834	3078.1
703.023	2877.4
703.212	2930.64
703.4	2916.31
703.589	2990.03
703.777	2873.3
703.965	2926.55
704.154	2877.4
704.342	2830.29
704.531	2947.03
704.719	2820.05
704.907	2934.74
705.096	2881.49
705.284	2807.77
705.472	2971.6
705.661	2799.57
705.849	2979.79
706.037	2965.46
706.226	2983.89
706.414	2795.48
706.602	2887.64
706.79	2785.24
706.979	2813.91
707.167	2826.2
707.355	2785.24
707.543	2910.16
707.731	2781.14
707.919	2910.16
708.107	2719.7
708.296	2848.72
708.484	2826.2
708.672	2809.81
708.86	2775
709.048	2854.87
709.236	2783.19
709.424	2795.48
709.612	2680.79
709.8	2832.34
709.988	2729.94
710.176	2910.16
710.364	2842.58
710.551	2815.96
710.739	2807.77
710.927	2818.01
711.115	2684.89
711.303	2830.29
711.491	2787.29
711.679	2707.41
711.866	2760.66
712.054	2742.23
712.242	2910.16
712.43	2748.37
712.617	2811.86
712.805	2813.91
712.993	2731.99
713.181	2789.33
713.368	2889.68
713.556	2811.86
713.744	2740.18
713.931	2813.91
714.119	2770.9
714.306	2715.61
714.494	2844.63
714.682	2873.3
714.869	2738.13
715.057	2865.11
715.244	2789.33
715.432	2740.18
715.619	2818.01
715.807	2736.09
715.994	2691.03
716.182	2713.56
716.369	2645.98
716.556	2775
716.744	2787.29
716.931	2818.01
717.119	2766.81
717.306	2811.86
717.493	2766.81
717.681	2844.63
717.868	2742.23
718.055	2725.85
718.242	2836.44
718.43	2713.56
718.617	2678.74
718.804	2768.85
718.991	2756.57
719.179	2764.76
719.366	2770.9
719.553	2760.66
719.74	2713.56
719.927	2744.28
720.114	2707.41
720.301	2711.51
720.488	2672.6
720.676	2617.3
720.863	2879.44
721.05	2826.2
721.237	2736.09
721.424	2734.04
721.611	2785.24
721.798	2695.13
721.985	2793.43
722.172	2631.64
722.358	2658.26
722.545	2803.67
722.732	2725.85
722.919	2787.29
723.106	2758.61
723.293	2635.74
723.48	2783.19
723.667	2770.9
723.853	2783.19
724.04	2701.27
724.227	2707.41
724.414	2813.91
724.6	2711.51
724.787	2682.84
724.974	2729.94
725.161	2803.67
725.347	2731.99
725.534	2754.52
725.72	2699.22
725.907	2768.85
726.094	2791.38
726.28	2693.08
726.467	2605.02
726.653	2699.22
726.84	2717.65
727.027	2734.04
727.213	2631.64
727.4	2736.09
727.586	2738.13
727.773	2684.89
727.959	2695.13
728.145	2633.69
728.332	2799.57
728.518	2785.24
728.705	2717.65
728.891	2701.27
729.077	2662.36
729.264	2746.33
729.45	2631.64
729.636	2641.88
729.823	2791.38
730.009	2672.6
730.195	2711.51
730.382	2758.61
730.568	2717.65
730.754	2734.04
730.94	2564.06
731.126	2607.06
731.313	2797.53
731.499	2744.28
731.685	2668.5
731.871	2668.5
732.057	2549.72
732.243	2740.18
732.429	2654.17
732.615	2666.46
732.801	2680.79
732.987	2746.33
733.173	2736.09
733.359	2731.99
733.545	2697.17
733.731	2578.39
733.917	2754.52
734.103	2742.23
734.289	2711.51
734.475	2768.85
734.661	2734.04
734.847	2631.64
735.033	2729.94
735.219	2660.31
735.404	2680.79
735.59	2625.5
735.776	2650.07
735.962	2674.65
736.148	2615.26
736.333	2498.52
736.519	2570.2
736.705	2752.47
736.89	2725.85
737.076	2635.74
737.262	2594.78
737.447	2641.88
737.633	2639.83
737.819	2707.41
738.004	2562.01
738.19	2449.37
738.375	2574.3
738.561	2641.88
738.747	2508.76
738.932	2516.95
739.118	2684.89
739.303	2611.16
739.489	2535.39
739.674	2545.63
739.859	2541.53
740.045	2576.34
740.23	2549.72
740.416	2445.27
740.601	2570.2
740.786	2541.53
740.972	2404.32
741.157	2588.63
741.342	2412.51
741.528	2469.85
741.713	2406.36
741.898	2461.66
742.084	2492.38
742.269	2441.18
742.454	2414.56
742.639	2473.95
742.824	2396.12
743.01	2471.9
743.195	2461.66
743.38	2428.89
743.565	2416.6
743.75	2432.99
743.935	2340.83
744.12	2269.15
744.305	2398.17
744.49	2377.69
744.675	2267.1
744.86	2263.01
745.045	2269.15
745.23	2314.2
745.415	2283.49
745.6	2322.4
745.785	2277.34
745.97	2369.5
746.155	2287.58
746.34	2199.52
746.525	2162.66
746.71	2301.92
746.895	2236.38
747.079	2250.72
747.264	2246.62
747.449	2273.25
747.634	2047.97
747.819	2164.7
748.003	2146.27
748.188	2176.99
748.373	2142.18
748.557	2021.35
748.742	2064.35
748.927	2166.75
749.111	2181.09
749.296	2127.84
749.481	2004.96
749.665	2121.7
749.85	2004.96
750.034	1992.67
750.219	1955.81
750.404	1974.24
750.588	1947.62
750.773	1904.61
750.957	1984.48
751.141	1914.85
751.326	1867.75
751.51	1933.28
751.695	1943.52
751.879	1859.56
752.064	1818.6
752.248	1849.32
752.432	1773.54
752.617	1794.02
752.801	1851.36
752.985	1898.47
753.17	1773.54
753.354	1789.92
753.538	1695.72
753.722	1810.4
753.907	1794.02
754.091	1671.14
754.275	1630.18
754.459	1705.96
754.643	1613.8
754.828	1654.76
755.012	1615.85
755.196	1642.47
755.38	1570.79
755.564	1544.17
755.748	1531.88
755.932	1673.19
756.116	1568.74
756.3	1568.74
756.484	1578.98
756.668	1490.92
756.852	1601.51
757.036	1566.7
757.22	1513.45
757.404	1509.35
757.588	1456.11
757.772	1527.78
757.956	1458.15
758.14	1490.92
758.323	1497.07
758.507	1421.29
758.691	1497.07
758.875	1507.3
759.059	1480.68
759.242	1404.91
759.426	1378.28
759.61	1347.56
759.794	1386.47
759.977	1329.13
760.161	1357.8
760.345	1286.12
760.528	1306.6
760.712	1380.33
760.895	1331.18
761.079	1339.37
761.263	1302.51
761.446	1378.28
761.63	1314.8
761.813	1269.74
761.997	1355.76
762.18	1216.49
762.364	1261.55
762.547	1241.07
762.731	1269.74
762.914	1220.59
763.098	1271.79
763.281	1220.59
763.464	1310.7
763.648	1136.62
763.831	1191.92
764.015	1247.21
764.198	1320.94
764.381	1247.21
764.564	1202.16
764.748	1136.62
764.931	1189.87
765.114	1148.91
765.297	1157.1
765.481	1210.35
765.664	1097.71
765.847	1132.53
766.03	1224.69
766.213	1073.14
766.397	1208.3
766.58	1157.1
766.763	1110
766.946	1075.18
767.129	1046.51
767.312	1060.85
767.495	1148.91
767.678	1118.19
767.861	1056.75
768.044	1036.27
768.227	1056.75
768.41	1091.57
768.593	1048.56
768.776	1062.9
768.959	1071.09
769.142	1103.86
769.324	1173.49
769.507	1089.52
769.69	1040.37
769.873	999.41
770.056	1114.1
770.239	993.26
770.421	1007.6
770.604	1056.75
770.787	1069.04
770.97	1062.9
771.152	1069.04
771.335	995.31
771.518	1062.9
771.7	1009.65
771.883	1015.79
772.066	1026.03
772.248	905.2
772.431	1001.46
772.613	966.64
772.796	927.73
772.978	972.79
773.161	997.36
773.343	978.93
773.526	942.07
773.708	911.35
773.891	804.85
774.073	925.68
774.256	827.38
774.438	966.64
774.621	878.58
774.803	1011.7
774.985	815.09
775.168	921.59
775.35	880.63
775.532	901.11
775.715	837.62
775.897	847.86
776.079	837.62
776.261	798.71
776.444	839.67
776.626	780.28
776.808	849.91
776.99	784.37
777.173	716.79
777.355	684.02
777.537	815.09
777.719	796.66
777.901	739.32
778.083	710.65
778.265	718.84
778.447	761.84
778.629	720.89
778.811	790.52
778.993	819.19
779.175	743.41
779.357	653.3
779.539	604.15
779.721	620.53
779.903	700.41
780.085	659.45
780.267	718.84
780.449	731.12
780.631	800.76
780.812	671.73
780.994	694.26
781.176	673.78
781.358	690.17
781.54	604.15
781.721	661.49
781.903	626.68
782.085	677.88
782.267	667.64
782.448	694.26
782.63	630.77
782.812	663.54
782.993	530.42
783.175	612.34
783.357	579.58
783.538	659.45
783.72	616.44
783.901	571.38
784.083	647.16
784.264	581.62
784.446	591.86
784.627	536.57
784.809	581.62
784.99	483.32
785.172	540.66
785.353	466.94
785.535	489.46
785.716	569.34
785.897	534.52
786.079	557.05
786.26	548.86
786.441	524.28
786.623	483.32
786.804	438.27
786.985	497.66
787.167	485.37
787.348	495.61
787.529	493.56
787.71	514.04
787.891	477.18
788.073	491.51
788.254	479.22
788.435	577.53
788.616	460.79
788.797	450.55
788.978	438.27
789.159	395.26
789.34	466.94
789.522	366.59
789.703	432.12
789.884	292.86
790.065	425.98
790.246	403.45
790.427	481.27
790.607	487.42
790.788	415.74
790.969	374.78
791.15	438.27
791.331	466.94
791.512	417.79
791.693	481.27
791.874	311.29
792.054	468.98
792.235	444.41
792.416	305.15
792.597	399.35
792.778	468.98
792.958	462.84
793.139	395.26
793.32	354.3
793.5	348.15
793.681	364.54
793.862	448.51
794.042	397.31
794.223	239.61
794.404	362.49
794.584	389.11
794.765	352.25
794.945	378.87
795.126	428.03
795.306	382.97
795.487	350.2
795.667	387.07
795.848	354.3
796.028	301.05
796.209	335.87
796.389	286.72
796.57	299
796.75	329.72
796.93	284.67
797.111	307.2
797.291	321.53
797.471	358.39
797.652	405.5
797.832	303.1
798.012	354.3
798.192	344.06
798.373	256
798.553	274.43
798.733	333.82
798.913	260.09
799.093	327.68
799.274	219.13
799.454	301.05
799.634	342.01
799.814	323.58
799.994	264.19
800.174	335.87
800.354	233.47
800.534	266.24
800.714	323.58
800.894	294.91
801.074	206.84
801.254	307.2
801.434	227.32
801.614	370.68
801.794	282.62
801.974	786.42
802.154	245.76
802.334	356.35
802.514	243.71
802.693	264.19
802.873	212.99
803.053	262.14
803.233	264.19
803.413	264.19
803.592	243.71
803.772	284.67
803.952	241.66
804.131	239.61
804.311	227.32
804.491	264.19
804.67	233.47
804.85	235.52
805.03	327.68
805.209	282.62
805.389	208.89
805.568	225.28
805.748	202.75
805.928	305.15
806.107	231.42
806.287	225.28
806.466	190.46
806.646	286.72
806.825	249.85
807.004	153.6
807.184	225.28
807.363	260.09
807.543	126.97
807.722	239.61
807.901	227.32
808.081	272.38
808.26	153.6
808.439	278.52
808.619	233.47
808.798	313.34
808.977	245.76
809.156	249.85
809.336	190.46
809.515	196.61
809.694	210.94
809.873	241.66
810.052	200.7
810.231	243.71
810.411	221.18
810.59	239.61
810.769	253.95
810.948	235.52
811.127	167.93
811.306	159.74
811.485	145.41
811.664	260.09
811.843	182.27
812.022	229.37
812.201	122.88
812.38	139.26
812.559	180.22
812.737	235.52
812.916	135.17
813.095	202.75
813.274	186.37
813.453	208.89
813.632	212.99
813.811	186.37
813.989	184.32
814.168	178.17
814.347	153.6
814.526	190.46
814.704	151.55
814.883	237.56
815.062	196.61
815.24	122.88
815.419	163.84
815.598	237.56
815.776	102.4
815.955	217.08
816.133	139.26
816.312	198.65
816.49	129.02
816.669	219.13
816.847	165.89
817.026	155.65
817.204	137.21
817.383	180.22
817.561	133.12
817.74	159.74
817.918	131.07
818.097	139.26
818.275	147.45
818.453	133.12
818.632	194.56
818.81	159.74
818.988	86.01
819.167	182.27
819.345	126.97
819.523	184.32
819.701	88.06
819.879	206.84
820.058	96.25
820.236	194.56
820.414	174.08
820.592	106.49
820.77	86.01
820.948	169.98
821.127	129.02
821.305	126.97
821.483	151.55
821.661	112.64
821.839	118.78
822.017	94.21
822.195	206.84
822.373	155.65
822.551	180.22
822.729	180.22
822.907	192.51
823.085	159.74
823.262	139.26
823.44	153.6
823.618	159.74
823.796	172.03
823.974	75.77
824.152	157.69
824.329	126.97
824.507	116.73
824.685	145.41
824.863	159.74
825.04	118.78
825.218	149.5
825.396	59.39
825.574	151.55
825.751	178.17
825.929	141.31
826.107	104.45
826.284	106.49
826.462	108.54
826.639	174.08
826.817	57.34
826.994	88.06
827.172	67.58
827.349	163.84
827.527	147.45
827.704	172.03
827.882	212.99
828.059	102.4
828.237	122.88
828.414	133.12
828.591	53.25
828.769	112.64
828.946	100.35
829.124	200.7
829.301	149.5
829.478	88.06
829.655	102.4
829.833	55.3
830.01	45.06
830.187	110.59
830.364	129.02
830.542	55.3
830.719	83.97
830.896	135.17
831.073	147.45
831.25	126.97
831.427	169.98
831.604	79.87
831.782	116.73
831.959	145.41
832.136	96.25
832.313	102.4
832.49	133.12
832.667	63.49
832.844	26.62
833.021	102.4
833.198	98.3
833.374	67.58
833.551	116.73
833.728	139.26
833.905	63.49
834.082	69.63
834.259	106.49
834.436	131.07
834.612	124.93
834.789	94.21
834.966	161.79
835.143	108.54
835.319	90.11
835.496	73.73
835.673	129.02
835.85	147.45
836.026	61.44
836.203	88.06
836.38	131.07
836.556	110.59
836.733	135.17
836.909	104.45
837.086	88.06
837.262	98.3
837.439	51.2
837.616	104.45
837.792	114.69
837.968	116.73
838.145	38.91
838.321	63.49
838.498	73.73
838.674	102.4
838.851	83.97
839.027	36.86
839.203	94.21
839.38	94.21
839.556	40.96
839.732	65.54
839.909	83.97
840.085	88.06
840.261	38.91
840.437	69.63
840.614	71.68
840.79	100.35
840.966	73.73
841.142	106.49
841.318	36.86
841.494	47.1
841.671	94.21
841.847	34.82
842.023	79.87
842.199	61.44
842.375	55.3
842.551	55.3
842.727	36.86
842.903	94.21
843.079	83.97
843.255	129.02
843.431	94.21
843.607	30.72
843.783	40.96
843.959	30.72
844.134	67.58
844.31	51.2
844.486	133.12
844.662	55.3
844.838	26.62
845.013	102.4
845.189	118.78
845.365	79.87
845.541	0
845.716	104.45
845.892	63.49
846.068	32.77
846.244	67.58
846.419	73.73
846.595	71.68
846.77	10.24
846.946	-28.67
847.122	102.4
847.297	122.88
847.473	57.34
847.648	10.24
847.824	108.54
847.999	73.73
848.175	110.59
848.35	34.82
848.526	137.21
848.701	55.3
848.876	36.86
849.052	36.86
849.227	34.82
849.403	57.34
849.578	75.77
849.753	30.72
849.929	63.49
850.104	-12.29
850.279	34.82
850.454	92.16
850.63	71.68
850.805	-26.62
850.98	20.48
851.155	51.2
851.33	55.3
851.505	94.21
851.681	114.69
851.856	-6.14
852.031	120.83
852.206	51.2
852.381	81.92
852.556	47.1
852.731	73.73
852.906	20.48
853.081	-2.05
853.256	94.21
853.431	71.68
853.606	53.25
853.781	67.58
853.956	2.05
854.131	81.92
854.305	34.82
854.48	10.24
854.655	71.68
854.83	53.25
855.005	59.39
855.18	30.72
855.354	24.58
855.529	32.77
855.704	96.25
855.879	59.39
856.053	-55.3
856.228	38.91
856.403	-18.43
856.577	-6.14
856.752	16.38
856.926	43.01
857.101	38.91
857.276	26.62
857.45	79.87
857.625	49.15
857.799	40.96
857.974	163.84
858.148	47.1
858.323	75.77
858.497	86.01
858.672	8.19
858.846	18.43
859.02	98.3
859.195	71.68
859.369	-16.38
859.543	28.67
859.718	61.44
859.892	-38.91
860.066	51.2
860.241	38.91
860.415	-18.43
860.589	96.25
860.763	59.39
860.938	24.58
861.112	90.11
861.286	40.96
861.46	94.21
861.634	71.68
861.808	69.63
861.982	-59.39
862.157	24.58
862.331	30.72
862.505	-22.53
862.679	4.1
862.853	2.05
863.027	10.24
863.201	-2.05
863.375	16.38
863.549	-8.19
863.722	47.1
863.896	155.65
864.07	10.24
864.244	61.44
864.418	120.83
864.592	104.45
864.766	73.73
864.939	8.19
865.113	81.92
865.287	83.97
865.461	-2.05
865.634	20.48
865.808	30.72
865.982	-30.72
866.156	-10.24
866.329	-10.24
866.503	6.14
866.676	34.82
866.85	69.63
867.024	61.44
867.197	20.48
867.371	26.62
867.544	10.24
867.718	86.01
867.891	20.48
868.065	24.58
868.238	-26.62
868.412	88.06
868.585	43.01
868.759	38.91
868.932	24.58
869.105	-10.24
869.279	-47.1
869.452	-4.1
869.625	118.78
869.799	22.53
869.972	10.24
870.145	55.3
870.319	79.87
870.492	20.48
870.665	65.54
870.838	-40.96
871.011	83.97
871.185	-30.72
871.358	28.67
871.531	51.2
871.704	-32.77
871.877	34.82
872.05	45.06
872.223	20.48
872.396	65.54
872.569	-22.53
872.742	22.53
872.915	32.77
873.088	53.25
873.261	-2.05
873.434	20.48
873.607	2.05
873.78	22.53
873.953	16.38
874.126	-16.38
874.299	51.2
874.471	10.24
874.644	-47.1
874.817	83.97
874.99	40.96
875.163	14.34
875.335	10.24
875.508	-20.48
875.681	94.21
875.853	-43.01
876.026	22.53
876.199	38.91
876.371	40.96
876.544	-14.34
876.717	-40.96
876.889	61.44
877.062	40.96
877.234	69.63
877.407	28.67
877.579	63.49
877.752	-10.24
877.924	-18.43
878.097	63.49
878.269	-43.01
878.442	20.48
878.614	26.62
878.786	12.29
878.959	4.1
879.131	-61.44
879.303	-59.39
879.476	59.39
879.648	32.77
879.82	-4.1
879.993	-40.96
880.165	38.91
880.337	43.01
880.509	14.34
880.681	32.77
880.854	53.25
881.026	67.58
881.198	114.69
881.37	-10.24
881.542	-22.53
881.714	-4.1
881.886	10.24
882.058	-2.05
882.23	-8.19
882.402	36.86
882.574	57.34
882.746	-34.82
882.918	90.11
883.09	0
883.262	6.14
883.434	-6.14
883.606	18.43
883.778	49.15
883.95	106.49
884.122	36.86
884.293	47.1
884.465	0
884.637	49.15
884.809	43.01
884.98	18.43
885.152	14.34
885.324	28.67
885.496	-36.86
885.667	-18.43
885.839	-6.14
886.011	43.01
886.182	12.29
886.354	40.96
886.525	-4.1
886.697	-12.29
886.869	4.1
887.04	32.77
887.212	-24.58
887.383	90.11
887.555	-73.73
887.726	-8.19
887.897	-6.14
888.069	47.1
888.24	40.96
888.412	73.73
888.583	-14.34
888.754	4.1
888.926	47.1
889.097	-8.19
889.268	-8.19
889.44	4.1
889.611	81.92
889.782	63.49
889.953	-16.38
890.125	116.73
890.296	51.2
890.467	53.25
890.638	-45.06
890.809	-16.38
890.98	-6.14
891.151	102.4
891.323	-40.96
891.494	53.25
891.665	-14.34
891.836	57.34
892.007	-12.29
892.178	22.53
892.349	-4.1
892.52	45.06
892.691	-6.14
892.862	-28.67
893.032	51.2
893.203	53.25
893.374	4.1
893.545	83.97
893.716	63.49
893.887	100.35
894.057	73.73
894.228	104.45
894.399	43.01
894.57	6.14
894.74	36.86
894.911	61.44
895.082	79.87
895.253	4.1
895.423	67.58
895.594	47.1
895.764	49.15
895.935	-63.49
896.106	20.48
896.276	61.44
896.447	38.91
896.617	36.86
896.788	92.16
896.958	0
897.129	8.19
897.299	104.45
897.47	-30.72
897.64	-10.24
897.81	4.1
897.981	30.72
898.151	20.48
898.322	45.06
898.492	-6.14
898.662	-96.25
898.832	61.44
899.003	24.58
899.173	63.49
899.343	-16.38
899.513	20.48
