Data from USB4F104151__8__12-26-58-038.txt Node

Date: Fri Mar 14 12:26:58 EDT 2025
User: louis
Spectrometer: USB4F10415
Trigger mode: 4
Integration Time (sec): 2.000000E-2
Scans to average: 1
Electric dark correction enabled: true
Nonlinearity correction enabled: false
Boxcar width: 0
XAxis mode: Wavelengths
Number of Pixels in Spectrum: 3648
>>>>>Begin Spectral Data<<<<<
178.204	-55.47
178.424	-55.47
178.644	-55.47
178.864	-108.71
179.084	-106.67
179.304	-10.41
179.524	16.21
179.744	-37.03
179.964	1.88
180.184	44.88
180.404	32.6
180.624	61.27
180.844	-30.89
181.064	-57.51
181.283	38.74
181.503	38.74
181.723	-98.47
181.943	-30.89
182.163	51.03
182.383	40.79
182.602	30.55
182.822	18.26
183.042	40.79
183.262	-24.75
183.482	-28.84
183.701	-30.89
183.921	32.6
184.141	18.26
184.361	83.8
184.58	28.5
184.8	-0.17
185.02	1.88
185.239	42.84
185.459	36.69
185.679	104.28
185.898	-16.55
186.118	26.45
186.338	-73.9
186.557	44.88
186.777	-55.47
186.997	57.17
187.216	-4.27
187.436	-18.6
187.655	-41.13
187.875	98.13
188.095	8.02
188.314	77.65
188.534	28.5
188.753	-80.04
188.973	87.89
189.192	116.56
189.412	102.23
189.631	34.64
189.851	5.97
190.07	69.46
190.29	79.7
190.509	24.4
190.729	38.74
190.948	55.12
191.168	108.37
191.387	59.22
191.607	69.46
191.826	63.32
192.045	-0.17
192.265	14.17
192.484	65.36
192.704	-28.84
192.923	24.4
193.142	106.32
193.362	48.98
193.581	48.98
193.8	-43.18
194.02	38.74
194.239	24.4
194.458	63.32
194.678	22.36
194.897	55.12
195.116	-12.46
195.335	63.32
195.555	-32.94
195.774	-32.94
195.993	1.88
196.212	-18.6
196.432	-43.18
196.651	-39.08
196.87	51.03
197.089	46.93
197.308	46.93
197.528	69.46
197.747	-8.36
197.966	16.21
198.185	100.18
198.404	-0.17
198.623	34.64
198.842	44.88
199.062	-8.36
199.281	83.8
199.5	42.84
199.719	38.74
199.938	44.88
200.157	-51.37
200.376	48.98
200.595	67.41
200.814	16.21
201.033	24.4
201.252	36.69
201.471	53.08
201.69	79.7
201.909	-2.22
202.128	55.12
202.347	71.51
202.566	14.17
202.785	40.79
203.004	-34.99
203.223	91.99
203.442	-4.27
203.661	32.6
203.879	89.94
204.098	67.41
204.317	5.97
204.536	26.45
204.755	69.46
204.974	48.98
205.193	12.12
205.411	77.65
205.63	28.5
205.849	32.6
206.068	-41.13
206.287	34.64
206.505	5.97
206.724	-10.41
206.943	-4.27
207.162	-12.46
207.381	3.93
207.599	-28.84
207.818	1.88
208.037	24.4
208.255	-20.65
208.474	10.07
208.693	42.84
208.911	38.74
209.13	63.32
209.349	12.12
209.567	71.51
209.786	73.56
210.005	83.8
210.223	34.64
210.442	53.08
210.661	26.45
210.879	42.84
211.098	67.41
211.316	114.52
211.535	44.88
211.753	114.52
211.972	118.61
212.191	-16.55
212.409	51.03
212.628	28.5
212.846	30.55
213.065	30.55
213.283	-18.6
213.502	53.08
213.72	87.89
213.938	-32.94
214.157	40.79
214.375	24.4
214.594	53.08
214.812	69.46
215.031	3.93
215.249	-67.75
215.467	-26.79
215.686	-39.08
215.904	69.46
216.122	38.74
216.341	-6.31
216.559	16.21
216.778	34.64
216.996	18.26
217.214	-22.7
217.432	32.6
217.651	-4.27
217.869	-92.33
218.087	18.26
218.306	-6.31
218.524	91.99
218.742	-16.55
218.96	-34.99
219.179	5.97
219.397	46.93
219.615	-41.13
219.833	-24.75
220.051	-8.36
220.27	-6.31
220.488	8.02
220.706	48.98
220.924	-67.75
221.142	26.45
221.36	28.5
221.578	65.36
221.796	5.97
222.015	34.64
222.233	61.27
222.451	98.13
222.669	83.8
222.887	-16.55
223.105	38.74
223.323	24.4
223.541	10.07
223.759	100.18
223.977	40.79
224.195	51.03
224.413	22.36
224.631	65.36
224.849	79.7
225.067	12.12
225.285	46.93
225.503	40.79
225.721	-16.55
225.939	59.22
226.157	79.7
226.375	55.12
226.592	8.02
226.81	1.88
227.028	73.56
227.246	51.03
227.464	-14.51
227.682	55.12
227.9	36.69
228.117	40.79
228.335	1.88
228.553	8.02
228.771	34.64
228.989	100.18
229.206	71.51
229.424	57.17
229.642	-26.79
229.86	46.93
230.077	59.22
230.295	-22.7
230.513	-4.27
230.731	30.55
230.948	59.22
231.166	108.37
231.384	16.21
231.601	5.97
231.819	98.13
232.037	16.21
232.254	-22.7
232.472	75.6
232.689	42.84
232.907	20.31
233.125	32.6
233.342	-30.89
233.56	16.21
233.777	12.12
233.995	32.6
234.213	87.89
234.43	59.22
234.648	5.97
234.865	65.36
235.083	53.08
235.3	10.07
235.518	42.84
235.735	167.76
235.953	55.12
236.17	-32.94
236.388	14.17
236.605	38.74
236.822	26.45
237.04	-16.55
237.257	1.88
237.475	20.31
237.692	42.84
237.909	10.07
238.127	10.07
238.344	-24.75
238.562	3.93
238.779	-10.41
238.996	18.26
239.214	26.45
239.431	30.55
239.648	-37.03
239.865	69.46
240.083	77.65
240.3	26.45
240.517	-39.08
240.735	8.02
240.952	53.08
241.169	8.02
241.386	18.26
241.603	42.84
241.821	-104.62
242.038	53.08
242.255	71.51
242.472	-30.89
242.689	-30.89
242.907	26.45
243.124	-14.51
243.341	-6.31
243.558	12.12
243.775	53.08
243.992	-0.17
244.209	51.03
244.426	30.55
244.643	24.4
244.86	51.03
245.078	-28.84
245.295	61.27
245.512	10.07
245.729	-39.08
245.946	-18.6
246.163	34.64
246.38	22.36
246.597	22.36
246.814	12.12
247.031	85.84
247.248	53.08
247.464	-14.51
247.681	18.26
247.898	38.74
248.115	24.4
248.332	-6.31
248.549	69.46
248.766	69.46
248.983	-22.7
249.2	71.51
249.417	26.45
249.633	65.36
249.85	-8.36
250.067	-45.23
250.284	38.74
250.501	48.98
250.717	-18.6
250.934	-32.94
251.151	38.74
251.368	100.18
251.585	55.12
251.801	63.32
252.018	-18.6
252.235	73.56
252.451	34.64
252.668	38.74
252.885	-6.31
253.102	24.4
253.318	55.12
253.535	-16.55
253.752	5.97
253.968	85.84
254.185	1.88
254.401	16.21
254.618	20.31
254.835	85.84
255.051	71.51
255.268	48.98
255.484	-18.6
255.701	32.6
255.917	1.88
256.134	5.97
256.351	61.27
256.567	10.07
256.784	40.79
257	-32.94
257.217	5.97
257.433	71.51
257.65	143.19
257.866	36.69
258.082	-8.36
258.299	1.88
258.515	32.6
258.732	89.94
258.948	26.45
259.165	59.22
259.381	65.36
259.597	-4.27
259.814	-20.65
260.03	89.94
260.246	89.94
260.463	-0.17
260.679	73.56
260.895	38.74
261.112	-8.36
261.328	32.6
261.544	63.32
261.761	67.41
261.977	24.4
262.193	-34.99
262.409	89.94
262.626	40.79
262.842	48.98
263.058	53.08
263.274	57.17
263.49	38.74
263.707	96.08
263.923	5.97
264.139	12.12
264.355	-6.31
264.571	40.79
264.787	59.22
265.004	94.04
265.22	-43.18
265.436	1.88
265.652	-10.41
265.868	-2.22
266.084	8.02
266.3	12.12
266.516	-10.41
266.732	38.74
266.948	130.9
267.164	-16.55
267.38	42.84
267.596	-12.46
267.812	18.26
268.028	42.84
268.244	22.36
268.46	-0.17
268.676	-49.32
268.892	69.46
269.108	61.27
269.324	20.31
269.54	-18.6
269.756	67.41
269.972	-26.79
270.188	-8.36
270.403	55.12
270.619	5.97
270.835	-22.7
271.051	53.08
271.267	-63.66
271.483	24.4
271.698	8.02
271.914	73.56
272.13	-4.27
272.346	30.55
272.562	106.32
272.777	71.51
272.993	63.32
273.209	32.6
273.425	14.17
273.64	36.69
273.856	57.17
274.072	67.41
274.287	98.13
274.503	14.17
274.719	-4.27
274.934	32.6
275.15	8.02
275.366	-14.51
275.581	59.22
275.797	112.47
276.012	44.88
276.228	38.74
276.444	61.27
276.659	57.17
276.875	-71.85
277.09	46.93
277.306	30.55
277.521	36.69
277.737	1.88
277.952	51.03
278.168	73.56
278.383	-8.36
278.599	22.36
278.814	46.93
279.03	10.07
279.245	-14.51
279.461	83.8
279.676	26.45
279.892	-0.17
280.107	51.03
280.322	-8.36
280.538	100.18
280.753	53.08
280.969	51.03
281.184	81.75
281.399	36.69
281.615	1.88
281.83	8.02
282.045	-2.22
282.26	34.64
282.476	67.41
282.691	71.51
282.906	40.79
283.122	67.41
283.337	-24.75
283.552	57.17
283.767	10.07
283.983	67.41
284.198	48.98
284.413	55.12
284.628	-41.13
284.843	8.02
285.058	-6.31
285.274	57.17
285.489	-39.08
285.704	34.64
285.919	26.45
286.134	40.79
286.349	67.41
286.564	104.28
286.779	44.88
286.995	-14.51
287.21	96.08
287.425	118.61
287.64	44.88
287.855	53.08
288.07	-30.89
288.285	3.93
288.5	75.6
288.715	-14.51
288.93	-8.36
289.145	48.98
289.36	102.23
289.575	44.88
289.79	28.5
290.004	32.6
290.219	75.6
290.434	55.12
290.649	5.97
290.864	1.88
291.079	42.84
291.294	53.08
291.509	28.5
291.724	81.75
291.938	24.4
292.153	145.24
292.368	63.32
292.583	-45.23
292.798	-20.65
293.012	-0.17
293.227	46.93
293.442	38.74
293.657	108.37
293.871	-30.89
294.086	-0.17
294.301	42.84
294.516	91.99
294.73	44.88
294.945	16.21
295.16	18.26
295.374	53.08
295.589	67.41
295.804	51.03
296.018	28.5
296.233	22.36
296.447	30.55
296.662	22.36
296.877	98.13
297.091	46.93
297.306	-8.36
297.52	-14.51
297.735	38.74
297.949	46.93
298.164	16.21
298.378	14.17
298.593	40.79
298.807	28.5
299.022	28.5
299.236	8.02
299.451	-0.17
299.665	-24.75
299.88	59.22
300.094	22.36
300.309	10.07
300.523	-4.27
300.737	114.52
300.952	79.7
301.166	73.56
301.381	61.27
301.595	-14.51
301.809	-30.89
302.024	-2.22
302.238	-39.08
302.452	-30.89
302.667	81.75
302.881	53.08
303.095	28.5
303.309	46.93
303.524	-53.42
303.738	81.75
303.952	-30.89
304.166	-4.27
304.381	-24.75
304.595	81.75
304.809	77.65
305.023	38.74
305.237	-65.71
305.452	-55.47
305.666	22.36
305.88	51.03
306.094	40.79
306.308	40.79
306.522	83.8
306.736	61.27
306.95	65.36
307.164	24.4
307.379	-24.75
307.593	59.22
307.807	83.8
308.021	-26.79
308.235	26.45
308.449	36.69
308.663	-45.23
308.877	69.46
309.091	51.03
309.305	24.4
309.519	34.64
309.733	79.7
309.947	28.5
310.161	137.04
310.374	26.45
310.588	20.31
310.802	8.02
311.016	26.45
311.23	3.93
311.444	71.51
311.658	40.79
311.872	63.32
312.085	-6.31
312.299	61.27
312.513	24.4
312.727	73.56
312.941	30.55
313.154	-6.31
313.368	40.79
313.582	48.98
313.796	10.07
314.009	61.27
314.223	40.79
314.437	-4.27
314.651	48.98
314.864	34.64
315.078	30.55
315.292	44.88
315.505	5.97
315.719	57.17
315.933	40.79
316.146	34.64
316.36	5.97
316.573	38.74
316.787	34.64
317.001	51.03
317.214	28.5
317.428	-49.32
317.641	-39.08
317.855	-8.36
318.068	24.4
318.282	-4.27
318.495	65.36
318.709	8.02
318.922	36.69
319.136	98.13
319.349	96.08
319.563	65.36
319.776	-88.23
319.99	48.98
320.203	44.88
320.417	32.6
320.63	26.45
320.843	130.9
321.057	12.12
321.27	59.22
321.483	16.21
321.697	8.02
321.91	67.41
322.124	55.12
322.337	8.02
322.55	5.97
322.763	91.99
322.977	38.74
323.19	-24.75
323.403	149.33
323.617	3.93
323.83	28.5
324.043	71.51
324.256	83.8
324.469	-8.36
324.683	36.69
324.896	10.07
325.109	-0.17
325.322	59.22
325.535	-14.51
325.748	10.07
325.962	-6.31
326.175	-8.36
326.388	59.22
326.601	106.32
326.814	26.45
327.027	51.03
327.24	26.45
327.453	24.4
327.666	40.79
327.879	73.56
328.092	-12.46
328.305	-26.79
328.518	48.98
328.731	67.41
328.944	3.93
329.157	69.46
329.37	-8.36
329.583	42.84
329.796	40.79
330.009	26.45
330.222	12.12
330.435	-14.51
330.648	69.46
330.861	124.76
331.073	46.93
331.286	77.65
331.499	63.32
331.712	-37.03
331.925	30.55
332.138	-49.32
332.35	81.75
332.563	20.31
332.776	51.03
332.989	-2.22
333.202	44.88
333.414	-6.31
333.627	-16.55
333.84	75.6
334.053	59.22
334.265	-20.65
334.478	75.6
334.691	-10.41
334.903	67.41
335.116	98.13
335.329	-20.65
335.541	44.88
335.754	118.61
335.966	16.21
336.179	63.32
336.392	75.6
336.604	-2.22
336.817	112.47
337.029	28.5
337.242	51.03
337.454	48.98
337.667	-0.17
337.88	30.55
338.092	12.12
338.305	36.69
338.517	85.84
338.729	61.27
338.942	153.43
339.154	87.89
339.367	-10.41
339.579	96.08
339.792	24.4
340.004	8.02
340.217	24.4
340.429	3.93
340.641	83.8
340.854	14.17
341.066	89.94
341.278	81.75
341.491	24.4
341.703	38.74
341.915	8.02
342.128	59.22
342.34	67.41
342.552	-8.36
342.764	-24.75
342.977	28.5
343.189	-69.8
343.401	-4.27
343.613	10.07
343.826	18.26
344.038	12.12
344.25	-18.6
344.462	102.23
344.674	20.31
344.886	28.5
345.099	24.4
345.311	-8.36
345.523	34.64
345.735	26.45
345.947	22.36
346.159	32.6
346.371	18.26
346.583	-10.41
346.795	126.8
347.007	53.08
347.219	55.12
347.431	44.88
347.643	135
347.855	46.93
348.067	20.31
348.279	-45.23
348.491	108.37
348.703	-63.66
348.915	53.08
349.127	-71.85
349.339	24.4
349.551	38.74
349.763	20.31
349.975	36.69
350.187	30.55
350.399	42.84
350.61	96.08
350.822	69.46
351.034	34.64
351.246	71.51
351.458	63.32
351.669	126.8
351.881	79.7
352.093	30.55
352.305	81.75
352.517	55.12
352.728	106.32
352.94	-57.51
353.152	44.88
353.363	44.88
353.575	38.74
353.787	77.65
353.999	67.41
354.21	73.56
354.422	16.21
354.633	42.84
354.845	8.02
355.057	42.84
355.268	-16.55
355.48	69.46
355.692	128.85
355.903	61.27
356.115	100.18
356.326	5.97
356.538	77.65
356.749	69.46
356.961	48.98
357.172	100.18
357.384	28.5
357.595	147.28
357.807	1.88
358.018	42.84
358.23	-39.08
358.441	42.84
358.653	20.31
358.864	16.21
359.075	3.93
359.287	71.51
359.498	98.13
359.709	-47.27
359.921	48.98
360.132	85.84
360.344	10.07
360.555	-0.17
360.766	112.47
360.977	73.56
361.189	18.26
361.4	18.26
361.611	-6.31
361.823	71.51
362.034	69.46
362.245	28.5
362.456	67.41
362.667	126.8
362.879	30.55
363.09	61.27
363.301	61.27
363.512	28.5
363.723	12.12
363.935	-22.7
364.146	46.93
364.357	-0.17
364.568	57.17
364.779	36.69
364.99	61.27
365.201	-12.46
365.412	36.69
365.623	-18.6
365.834	128.85
366.045	38.74
366.256	83.8
366.467	87.89
366.678	-45.23
366.889	1.88
367.1	18.26
367.311	63.32
367.522	-4.27
367.733	36.69
367.944	12.12
368.155	30.55
368.366	30.55
368.577	61.27
368.788	-4.27
368.999	28.5
369.209	-0.17
369.42	91.99
369.631	108.37
369.842	44.88
370.053	96.08
370.264	81.75
370.474	22.36
370.685	46.93
370.896	-8.36
371.107	87.89
371.317	24.4
371.528	18.26
371.739	65.36
371.95	48.98
372.16	132.95
372.371	-45.23
372.582	71.51
372.792	5.97
373.003	44.88
373.214	110.42
373.424	51.03
373.635	36.69
373.846	91.99
374.056	51.03
374.267	18.26
374.477	10.07
374.688	91.99
374.898	30.55
375.109	-30.89
375.319	36.69
375.53	89.94
375.74	-37.03
375.951	69.46
376.161	67.41
376.372	16.21
376.582	69.46
376.793	36.69
377.003	-14.51
377.214	5.97
377.424	55.12
377.635	77.65
377.845	51.03
378.055	-0.17
378.266	24.4
378.476	12.12
378.686	-0.17
378.897	-0.17
379.107	36.69
379.317	8.02
379.528	46.93
379.738	79.7
379.948	30.55
380.158	61.27
380.369	75.6
380.579	77.65
380.789	63.32
380.999	77.65
381.21	89.94
381.42	57.17
381.63	8.02
381.84	106.32
382.05	40.79
382.261	5.97
382.471	100.18
382.681	71.51
382.891	12.12
383.101	36.69
383.311	42.84
383.521	61.27
383.731	71.51
383.941	59.22
384.151	71.51
384.361	-0.17
384.571	75.6
384.781	42.84
384.991	137.04
385.201	85.84
385.411	30.55
385.621	55.12
385.831	10.07
386.041	71.51
386.251	36.69
386.461	46.93
386.671	67.41
386.881	57.17
387.091	42.84
387.301	81.75
387.511	46.93
387.72	71.51
387.93	104.28
388.14	61.27
388.35	12.12
388.56	73.56
388.769	51.03
388.979	5.97
389.189	14.17
389.399	61.27
389.609	8.02
389.818	57.17
390.028	61.27
390.238	100.18
390.447	61.27
390.657	89.94
390.867	36.69
391.076	32.6
391.286	-28.84
391.496	-6.31
391.705	96.08
391.915	112.47
392.125	53.08
392.334	104.28
392.544	61.27
392.753	83.8
392.963	59.22
393.172	18.26
393.382	63.32
393.591	102.23
393.801	79.7
394.01	26.45
394.22	79.7
394.429	24.4
394.639	67.41
394.848	34.64
395.058	61.27
395.267	32.6
395.477	34.64
395.686	-8.36
395.895	81.75
396.105	110.42
396.314	44.88
396.524	75.6
396.733	42.84
396.942	79.7
397.152	38.74
397.361	59.22
397.57	108.37
397.78	89.94
397.989	61.27
398.198	112.47
398.407	126.8
398.617	91.99
398.826	94.04
399.035	87.89
399.244	75.6
399.453	91.99
399.663	38.74
399.872	51.03
400.081	75.6
400.29	83.8
400.499	51.03
400.708	110.42
400.917	77.65
401.127	42.84
401.336	5.97
401.545	165.71
401.754	118.61
401.963	55.12
402.172	65.36
402.381	114.52
402.59	110.42
402.799	106.32
403.008	108.37
403.217	100.18
403.426	116.56
403.635	137.04
403.844	124.76
404.053	128.85
404.262	55.12
404.471	192.34
404.68	128.85
404.888	51.03
405.097	79.7
405.306	155.47
405.515	159.57
405.724	118.61
405.933	145.24
406.142	188.24
406.35	110.42
406.559	165.71
406.768	188.24
406.977	198.48
407.185	89.94
407.394	169.81
407.603	96.08
407.812	132.95
408.02	132.95
408.229	151.38
408.438	137.04
408.646	159.57
408.855	114.52
409.064	173.91
409.272	124.76
409.481	221.01
409.69	245.59
409.898	225.11
410.107	216.91
410.315	237.39
410.524	223.06
410.733	235.35
410.941	245.59
411.15	362.32
411.358	245.59
411.567	276.31
411.775	286.54
411.984	331.6
412.192	356.18
412.401	290.64
412.609	325.46
412.818	390.99
413.026	454.48
413.234	286.54
413.443	388.94
413.651	429.9
413.86	458.57
414.068	431.95
414.276	362.32
414.485	397.14
414.693	472.91
414.901	477.01
415.11	491.34
415.318	567.12
415.526	563.02
415.734	585.55
415.943	616.27
416.151	587.6
416.359	517.97
416.567	581.45
416.776	608.08
416.984	708.43
417.192	776.01
417.4	681.8
417.608	702.28
417.817	780.11
418.025	730.95
418.233	872.26
418.441	886.6
418.649	931.66
418.857	939.85
419.065	948.04
419.273	945.99
419.481	1005.38
419.689	1107.78
419.897	1064.77
420.105	1195.84
420.313	1163.08
420.521	1204.03
420.729	1234.75
420.937	1242.95
421.145	1333.06
421.353	1378.11
421.561	1414.98
421.769	1388.35
421.977	1503.04
422.185	1484.61
422.393	1584.96
422.601	1734.46
422.809	1736.51
423.017	1621.82
423.224	1773.37
423.432	1773.37
423.64	1851.19
423.848	1990.45
424.056	1998.65
424.263	2055.99
424.471	2064.18
424.679	2205.49
424.887	2301.75
425.094	2332.47
425.302	2357.04
425.51	2428.72
425.718	2475.82
425.925	2662.19
426.133	2635.57
426.341	2752.3
426.548	2959.14
426.756	2909.99
426.964	3020.58
427.171	3082.02
427.379	3198.76
427.586	3131.17
427.794	3284.77
428.001	3381.03
428.209	3618.59
428.417	3657.5
428.624	3919.64
428.832	3847.96
429.039	3837.72
429.247	3833.63
429.454	4261.65
429.662	4509.46
429.869	4177.69
430.076	4591.38
430.284	4417.3
430.491	4620.05
430.699	4734.73
430.906	4777.74
431.114	4917
431.321	5197.57
431.528	5039.88
431.736	5392.13
431.943	5869.31
432.15	5590.78
432.358	5705.47
432.565	6043.39
432.772	6078.2
432.979	6217.46
433.187	6317.81
433.394	6360.82
433.601	6921.96
433.808	6774.51
434.016	6866.67
434.223	7122.66
434.43	7505.63
434.637	7489.25
434.844	7790.3
435.052	7970.52
435.259	7931.61
435.466	8060.63
435.673	7919.32
435.88	8433.36
436.087	8959.69
436.294	8883.92
436.501	8711.89
436.708	8892.11
436.915	9277.13
437.122	9674.43
437.329	9557.7
437.537	9912
437.743	10100.41
437.95	10098.36
438.157	10542.77
438.364	10886.83
438.571	10915.5
438.778	10884.78
438.985	12056.22
439.192	11572.9
439.399	12041.89
439.606	11577
439.813	12218.01
440.02	13074.06
440.227	12701.33
440.433	12715.67
440.64	12949.14
440.847	12942.99
441.054	13311.63
441.261	14216.83
441.467	13983.36
441.674	14347.9
441.881	14986.86
442.088	14954.1
442.294	14601.85
442.501	15142.51
442.708	15472.23
442.914	16119.39
443.121	16578.14
443.328	16449.11
443.534	17565.26
443.741	16719.45
443.948	16625.24
444.154	18177.6
444.361	18005.57
444.568	18114.11
444.774	17946.18
444.981	18142.78
445.187	18611.77
445.394	19435.05
445.6	19355.18
445.807	21397.01
446.013	20225.57
446.22	20592.16
446.426	21292.56
446.633	21743.11
446.839	22707.71
447.046	21407.25
447.252	22613.5
447.459	22818.3
447.665	22691.32
447.871	23526.89
448.078	24460.77
448.284	23234.03
448.491	24374.75
448.697	25085.4
448.903	25499.09
449.11	25587.15
449.316	24964.57
449.522	26246.6
449.728	26695.1
449.935	26443.2
450.141	26416.58
450.347	27116.98
450.553	26256.84
450.76	26934.71
450.966	27805.1
451.172	27313.59
451.378	28163.5
451.584	27719.09
451.791	28091.82
451.997	28155.3
452.203	28462.5
452.409	28765.6
452.615	28495.27
452.821	27340.21
453.027	27364.79
453.233	28603.81
453.44	27639.22
453.646	27704.75
453.852	28063.15
454.058	28405.16
454.264	27549.1
454.47	27981.23
454.676	27366.84
454.882	28368.29
455.088	25927.11
455.294	26217.93
455.5	26371.52
455.705	26801.6
455.911	25785.8
456.117	25218.52
456.323	25413.07
456.529	23735.79
456.735	24856.03
456.941	23926.25
457.147	23723.5
457.352	23279.09
457.558	22695.42
457.764	22834.68
457.97	22324.74
458.176	22124.04
458.381	21921.29
458.587	20579.87
458.793	20733.46
458.999	19879.46
459.204	21188.11
459.41	20600.35
459.616	19387.95
459.821	19207.73
460.027	19211.82
460.233	18748.98
460.438	17911.36
460.644	18136.64
460.85	17186.38
461.055	17116.75
461.261	16909.91
461.466	15578.73
461.672	15152.75
461.878	16164.45
462.083	15513.19
462.289	14988.91
462.494	14777.97
462.7	14007.94
462.905	13823.62
463.111	14249.6
463.316	14382.71
463.522	13999.74
463.727	14100.09
463.932	13964.93
464.138	14102.14
464.343	13717.12
464.549	13416.07
464.754	13993.6
464.959	13919.87
465.165	13784.71
465.37	13338.25
465.575	12635.8
465.781	13418.12
465.986	13465.22
466.191	12990.1
466.397	12517.01
466.602	12416.66
466.807	12572.31
467.012	12660.37
467.218	12549.78
467.423	12381.85
467.628	12478.1
467.833	13155.98
468.038	12383.9
468.244	12162.72
468.449	12465.82
468.654	11962.01
468.859	12256.92
469.064	11830.94
469.269	11482.79
469.474	11810.47
469.679	11982.49
469.885	11447.97
470.09	11740.83
470.295	11732.64
470.5	11237.03
470.705	11435.69
470.91	11052.72
471.115	11013.81
471.32	11226.79
471.525	11275.95
471.73	10847.92
471.935	10890.93
472.139	10653.36
472.344	10641.07
472.549	10704.56
472.754	10516.15
472.959	10088.12
473.164	10122.94
473.369	10038.97
473.574	10208.95
473.778	10196.67
473.983	10055.36
474.188	10081.98
474.393	9518.79
474.598	9684.67
474.802	9451.21
475.007	9606.85
475.212	9483.97
475.417	9287.37
475.621	9137.87
475.826	9160.39
476.031	8969.93
476.235	8885.97
476.44	8799.95
476.645	8742.61
476.849	8928.97
477.054	8707.79
477.259	8773.33
477.463	8699.6
477.668	8333.01
477.872	8322.77
478.077	8255.19
478.282	8265.43
478.486	8046.3
478.691	8050.39
478.895	8064.73
479.1	8013.53
479.304	8001.24
479.509	7827.17
479.713	7759.58
479.918	7687.9
480.122	7696.1
480.326	7800.54
480.531	7665.38
480.735	7546.59
480.94	7585.51
481.144	7771.87
481.348	7407.33
481.553	7442.15
481.757	7448.29
481.961	7438.05
482.166	7585.51
482.37	7550.69
482.574	7423.72
482.778	7266.02
482.983	7577.31
483.187	7571.17
483.391	7378.66
483.595	7296.74
483.8	7266.02
484.004	7380.71
484.208	7417.57
484.412	7374.56
484.616	7347.94
484.821	7417.57
485.025	7286.5
485.229	7440.1
485.433	7491.3
485.637	7237.35
485.841	7198.44
486.045	7337.7
486.249	7395.04
486.453	7360.23
486.657	7436
486.861	7399.14
487.065	7292.65
487.269	7409.38
487.473	7243.49
487.677	7427.81
487.881	7663.33
488.085	7309.03
488.289	7470.82
488.493	7354.09
488.697	7446.24
488.901	7368.42
489.105	7470.82
489.309	7497.44
489.512	7519.97
489.716	7507.68
489.92	7491.3
490.124	7358.18
490.328	7591.65
490.531	7677.66
490.735	7675.62
490.939	7605.99
491.143	7620.32
491.346	7550.69
491.55	7726.82
491.754	7675.62
491.958	7898.84
492.161	7687.9
492.365	7894.75
492.569	7763.68
492.772	7902.94
492.976	7847.65
493.18	8021.72
493.383	8003.29
493.587	8019.67
493.79	8294.1
493.994	8236.76
494.197	8130.27
494.401	8013.53
494.605	8115.93
494.808	8429.27
495.012	8365.78
495.215	8244.95
495.419	8431.32
495.622	8517.33
495.825	8572.63
496.029	8572.63
496.232	8849.1
496.436	8634.07
496.639	8980.17
496.843	8914.64
497.046	9178.83
497.249	9178.83
497.453	9262.79
497.656	9262.79
497.859	9365.19
498.063	9371.33
498.266	9598.66
498.469	9488.07
498.673	9731.78
498.876	9811.65
499.079	9780.93
499.282	9979.58
499.485	10329.78
499.689	10249.91
499.892	10370.74
500.095	10417.85
500.298	10757.81
500.501	10655.41
500.705	10792.62
500.908	10895.02
501.111	11157.16
501.314	11208.36
501.517	11273.9
501.72	11327.14
501.923	11380.39
502.126	11634.34
502.329	11818.66
502.532	11929.25
502.735	11884.19
502.938	12058.27
503.141	12136.09
503.344	12334.75
503.547	12277.4
503.75	12945.04
503.953	12889.74
504.156	12904.08
504.359	12846.74
504.562	13074.06
504.765	13325.96
504.968	13489.8
505.17	13592.2
505.373	13452.94
505.576	13977.22
505.779	14093.95
505.982	14098.05
506.185	14313.08
506.387	14409.34
506.59	14433.91
506.793	14812.79
506.996	14900.85
507.198	15138.41
507.401	15150.7
507.604	15531.62
507.807	15511.14
508.009	15892.07
508.212	15961.7
508.415	15945.31
508.617	16150.11
508.82	16205.41
509.022	16350.81
509.225	16768.6
509.428	16645.72
509.63	16948.82
509.833	17014.35
510.035	17272.4
510.238	17303.12
510.44	17489.48
510.643	17722.95
510.845	17862.21
511.048	17888.84
511.25	18140.74
511.453	18245.18
511.655	18923.06
511.858	18859.57
512.06	18992.69
512.262	19009.08
512.465	18935.35
512.667	19521.07
512.87	19494.44
513.072	19656.23
513.274	19879.46
513.477	19938.85
513.679	20289.06
513.881	20672.03
514.084	20672.03
514.286	20868.63
514.488	20919.83
514.69	21556.75
514.893	21605.9
515.095	21255.7
515.297	21911.05
515.499	21798.41
515.701	22187.52
515.904	22722.04
516.106	22361.6
516.308	22818.3
516.51	22924.79
516.712	22969.85
516.914	23258.61
517.116	23764.46
517.318	23526.89
517.52	23680.49
517.722	23922.15
517.925	24407.52
518.127	24327.65
518.329	24612.32
518.531	24456.67
518.733	24821.21
518.935	25343.44
519.136	25087.45
519.338	25417.17
519.54	25822.67
519.742	25839.05
519.944	25652.69
520.146	26252.74
520.348	26318.28
520.55	26654.14
520.752	26639.81
520.954	27137.46
521.155	26951.1
521.357	27151.8
521.559	27391.41
521.761	27811.24
521.963	27862.44
522.164	28018.09
522.366	27901.36
522.568	28530.08
522.77	28417.44
522.971	28786.08
523.173	28616.1
523.375	28710.3
523.576	28878.24
523.778	29498.77
523.98	29468.05
524.181	29861.26
524.383	29584.79
524.584	29902.22
524.786	30213.51
524.988	30160.27
525.189	30231.94
525.391	30248.33
525.592	30463.36
525.794	30993.79
525.995	30803.33
526.197	30702.98
526.398	30698.88
526.6	31245.69
526.801	31489.4
527.003	31139.19
527.204	31239.54
527.406	31610.23
527.607	31540.6
527.808	31898.99
528.01	31268.22
528.211	31595.89
528.412	32130.41
528.614	32154.99
528.815	32079.21
529.016	32322.92
529.218	32218.47
529.419	32257.39
529.62	32177.51
529.822	32304.49
530.023	32683.36
530.224	32331.11
530.425	32540
530.626	32181.61
530.828	32208.23
531.029	32771.43
531.23	32638.31
531.431	32785.76
531.632	32787.81
531.833	33101.15
532.035	32888.16
532.236	32752.99
532.437	33258.84
532.638	33107.29
532.839	33332.57
533.04	33344.86
533.241	32875.87
533.442	33398.1
533.643	33193.31
533.844	32775.52
534.045	33244.51
534.246	32793.95
534.447	33389.91
534.648	33021.28
534.849	33398.1
535.05	32933.21
535.251	33170.78
535.451	32984.41
535.652	33652.05
535.853	33305.95
536.054	33121.63
536.255	33428.82
536.456	33291.61
536.657	33959.25
536.857	33236.31
537.058	33172.83
537.259	33639.76
537.46	33684.82
537.66	33213.79
537.861	33471.83
538.062	33301.85
538.263	33629.52
538.463	33228.12
538.664	33484.12
538.865	33662.29
539.065	33477.97
539.266	33203.55
539.466	33099.1
539.667	32818.53
539.868	33727.83
540.068	33082.72
540.269	33465.69
540.469	33742.16
540.67	33156.44
540.87	33563.99
541.071	33164.64
541.271	33387.86
541.472	33510.74
541.672	33160.54
541.873	33262.94
542.073	32693.6
542.274	33377.62
542.474	32914.78
542.675	33213.79
542.875	33287.51
543.075	33117.53
543.276	33262.94
543.476	33736.02
543.676	33508.69
543.877	32996.7
544.077	32898.4
544.277	32982.37
544.478	33271.13
544.678	33283.42
544.878	33463.64
545.078	33203.55
545.279	32818.53
545.479	33107.29
545.679	32828.77
545.879	33254.75
546.079	33332.57
546.28	32910.69
546.48	33240.41
546.68	33342.81
546.88	33471.83
547.08	33279.32
547.28	32742.75
547.48	32615.78
547.68	33121.63
547.88	32634.21
548.081	32875.87
548.281	33043.81
548.481	32929.12
548.681	32984.41
548.881	33025.37
549.081	32990.56
549.28	32771.43
549.48	33314.14
549.68	32787.81
549.88	33369.43
550.08	32695.65
550.28	32990.56
550.48	32906.59
550.68	33090.91
550.88	33019.23
551.08	33111.39
551.279	33240.41
551.479	32830.82
551.679	33080.67
551.879	32972.13
552.079	33389.91
552.278	32576.87
552.478	32894.3
552.678	32990.56
552.878	32988.51
553.077	32681.31
553.277	32384.36
553.477	33111.39
553.676	32734.56
553.876	33166.68
554.076	32453.99
554.275	32611.68
554.475	32191.85
554.674	32775.52
554.874	32601.44
555.074	32869.73
555.273	32691.55
555.473	32847.2
555.672	32349.54
555.872	32724.32
556.071	32605.54
556.271	33008.99
556.47	32779.62
556.67	32073.07
556.869	32845.15
557.068	32466.28
557.268	32513.38
557.467	32351.59
557.667	32300.39
557.866	32077.16
558.065	32417.13
558.265	32023.92
558.464	32206.19
558.663	32439.65
558.863	31786.35
559.062	32601.44
559.261	31595.89
559.461	32451.94
559.66	31720.82
559.859	32197.99
560.058	31677.81
560.258	31901.04
560.457	32128.36
560.656	32206.19
560.855	31931.76
561.054	32093.55
561.253	31763.82
561.453	31827.31
561.652	31792.5
561.851	31788.4
562.05	31653.23
562.249	31511.92
562.448	31743.34
562.647	31939.95
562.846	31686
563.045	31464.82
563.244	31198.59
563.443	31509.88
563.642	31210.87
563.841	31210.87
564.04	31147.39
564.239	31618.42
564.438	31067.52
564.637	31165.82
564.836	31073.66
565.035	30961.02
565.234	31098.23
565.432	30563.71
565.631	30655.87
565.83	30985.6
566.029	30797.18
566.228	30764.42
566.427	30598.53
566.625	30477.7
566.824	30201.22
567.023	30508.42
567.222	29791.63
567.42	30061.96
567.619	30520.71
567.818	30324.1
568.016	30608.77
568.215	30436.74
568.414	30274.95
568.612	30270.86
568.811	29918.6
569.01	29785.49
569.208	29547.92
569.407	30240.14
569.605	29492.63
569.804	29787.53
570.002	29455.76
570.201	29678.99
570.4	29584.79
570.598	29658.51
570.797	29314.45
570.995	29351.32
571.193	29185.43
571.392	29638.03
571.59	29158.81
571.789	29017.5
571.987	28800.41
572.186	29138.33
572.384	28886.43
572.582	28999.07
572.781	28990.87
572.979	28685.73
573.177	28636.58
573.376	28931.48
573.574	28663.2
573.772	28333.48
573.971	28380.58
574.169	28433.83
574.367	28554.66
574.565	28706.21
574.763	28421.54
574.962	28366.24
575.16	28073.38
575.358	28161.45
575.556	27975.08
575.754	28394.92
575.952	27686.32
576.151	28315.05
576.349	27987.37
576.547	27835.82
576.745	27780.53
576.943	28157.35
577.141	27803.05
577.339	27588.02
577.537	27536.82
577.735	27854.25
577.933	27321.78
578.131	27749.81
578.329	27180.47
578.527	27100.6
578.725	27053.5
578.923	27399.6
579.121	27071.93
579.319	26836.41
579.516	27403.7
579.714	26969.53
579.912	27088.31
580.11	26772.92
580.308	26828.22
580.506	26688.96
580.704	26244.55
580.901	26834.36
581.099	26654.14
581.297	26369.47
581.495	26283.46
581.692	26512.83
581.89	26207.69
582.088	26318.28
582.285	26199.49
582.483	26244.55
582.681	26256.84
582.878	25873.87
583.076	25902.54
583.274	25826.76
583.471	25974.22
583.669	25847.24
583.866	25632.21
584.064	25785.8
584.262	25394.64
584.459	25918.92
584.657	25515.47
584.854	25660.88
585.052	25163.22
585.249	25458.13
585.447	25527.76
585.644	25071.06
585.841	25130.45
586.039	25040.34
586.236	24841.69
586.434	25066.97
586.631	24864.22
586.828	24862.17
587.026	24620.51
587.223	24561.12
587.42	24546.78
587.618	24460.77
587.815	24630.75
588.012	24341.99
588.21	24382.95
588.407	24436.19
588.604	24018.41
588.801	24016.36
588.999	23934.44
589.196	24184.29
589.393	24094.18
589.59	23924.2
589.787	23768.55
589.984	24282.59
590.182	23571.95
590.379	23821.8
590.576	23401.97
590.773	23707.12
590.97	23156.21
591.167	23469.55
591.364	23526.89
591.561	23569.9
591.758	23111.16
591.955	23522.8
592.152	23393.78
592.349	22902.26
592.546	22947.32
592.743	23397.87
592.94	22396.42
593.137	22828.54
593.334	22943.22
593.531	22719.99
593.727	22752.76
593.924	22660.6
594.121	22124.04
594.318	22560.25
594.515	22042.12
594.712	22447.61
594.908	22281.73
595.105	22437.37
595.302	22060.55
595.499	21958.15
595.696	21945.86
595.892	21863.94
596.089	21902.86
596.286	21919.24
596.482	21755.4
596.679	21564.94
596.876	21761.55
597.072	21497.36
597.269	21519.88
597.466	21349.9
597.662	21499.41
597.859	21343.76
598.055	21466.64
598.252	21202.45
598.448	21276.18
598.645	20983.32
598.841	20885.01
599.038	21145.11
599.234	20872.73
599.431	21028.37
599.627	20657.69
599.824	20942.36
600.02	20303.39
600.217	20672.03
600.413	20686.36
600.609	20575.77
600.806	20348.45
601.002	20852.25
601.198	20293.15
601.395	20354.59
601.591	20647.45
601.787	20411.93
601.984	20207.14
602.18	20413.98
602.376	20080.16
602.572	20139.55
602.769	19938.85
602.965	19500.59
603.161	19959.33
603.357	19707.43
603.553	19805.74
603.75	19578.41
603.946	19441.2
604.142	19715.62
604.338	19136.05
604.534	19361.33
604.73	19129.91
604.926	19185.2
605.122	19516.97
605.318	19179.06
605.514	19195.44
605.71	19105.33
605.906	19002.93
606.102	19138.1
606.298	19140.15
606.494	18908.72
606.69	19127.86
606.886	18912.82
607.082	18617.91
607.278	18873.91
607.474	18765.37
607.67	18810.42
607.866	18552.38
608.062	18820.66
608.257	18648.63
608.453	18579
608.649	18564.67
608.845	18452.03
609.041	18380.35
609.236	18273.85
609.432	18351.68
609.628	18294.33
609.824	18411.07
610.019	18159.17
610.215	18304.57
610.411	18327.1
610.606	18099.78
610.802	18007.62
610.998	18191.94
611.193	18202.18
611.389	17845.83
611.584	17878.6
611.78	17460.81
611.976	17980.99
612.171	18171.46
612.367	17815.11
612.562	17600.07
612.758	17581.64
612.953	17675.85
613.149	17708.62
613.344	17458.76
613.539	17858.12
613.735	17514.06
613.93	17755.72
614.126	17530.44
614.321	17563.21
614.517	17522.25
614.712	17774.15
614.907	17391.18
615.103	17720.9
615.298	17208.91
615.493	17309.26
615.688	17163.86
615.884	17555.02
616.079	17247.82
616.274	17303.12
616.47	17106.51
616.665	17317.45
616.86	17122.9
617.055	17135.18
617.25	16850.52
617.445	17528.39
617.641	16621.14
617.836	17190.48
618.031	16569.94
618.226	16791.13
618.421	16694.87
618.616	16725.59
618.811	16453.21
619.006	16688.73
619.201	16344.67
619.396	16471.64
619.591	16172.64
619.786	16502.36
619.981	15887.97
620.176	16281.18
620.371	16092.77
620.566	16455.26
620.761	16117.34
620.956	16238.17
621.151	15791.72
621.346	15767.14
621.541	15527.53
621.735	16066.14
621.93	15601.26
622.125	15640.17
622.32	15369.83
622.515	15527.53
622.709	15423.08
622.904	15287.92
623.099	15335.02
623.294	15404.65
623.488	15103.6
623.683	15101.55
623.878	14536.31
624.072	15005.3
624.267	14841.46
624.462	14579.32
624.656	14624.37
624.851	14673.53
625.046	14556.79
625.24	14423.67
625.435	14272.12
625.629	14253.69
625.824	14429.82
626.018	14227.07
626.213	13770.37
626.407	13932.16
626.602	13690.5
626.796	13731.46
626.991	13878.91
627.185	13747.84
627.38	13616.77
627.574	13672.07
627.768	13500.04
627.963	13360.78
628.157	13029.01
628.352	13139.6
628.546	12986
628.74	13029.01
628.935	12756.63
629.129	13096.59
629.323	12727.96
629.517	12842.64
629.712	12654.23
629.906	12844.69
630.1	12766.87
630.294	12801.68
630.489	12414.62
630.683	12588.69
630.877	12308.12
631.071	12297.88
631.265	12418.71
631.459	12334.75
631.653	12191.39
631.848	12041.89
632.042	12148.38
632.236	11894.43
632.43	12088.99
632.624	11792.03
632.818	11566.76
633.012	11544.23
633.206	11800.23
633.4	11607.72
633.594	11404.97
633.788	11484.84
633.982	11478.69
634.176	11486.89
634.369	11165.35
634.563	11257.51
634.757	11237.03
634.951	11208.36
635.145	11323.05
635.339	11071.15
635.533	10952.37
635.726	11034.28
635.92	10841.78
636.114	10886.83
636.308	10804.91
636.501	10858.16
636.695	10741.43
636.889	10512.05
637.083	10512.05
637.276	10665.65
637.47	10391.22
637.664	10354.36
637.857	10534.58
638.051	10335.93
638.244	10135.23
638.438	10153.66
638.632	10102.46
638.825	9895.61
639.019	10030.78
639.212	10051.26
639.406	9879.23
639.599	9723.58
639.793	10014.4
639.986	9656
640.18	9633.47
640.373	9692.87
640.567	9522.88
640.76	9723.58
640.954	9369.29
641.147	9635.52
641.34	9434.82
641.534	9445.06
641.727	9330.37
641.92	9365.19
642.114	9273.03
642.307	9266.89
642.5	9217.74
642.694	8969.93
642.887	8978.12
643.08	8920.78
643.273	8791.76
643.467	9037.52
643.66	8965.84
643.853	8904.4
644.046	8742.61
644.239	8742.61
644.432	8789.71
644.626	8500.95
644.819	8744.66
645.012	8695.5
645.205	8642.26
645.398	8406.74
645.591	8439.51
645.784	8457.94
645.977	8296.15
646.17	8345.3
646.363	8392.41
646.556	8140.51
646.749	8195.8
646.942	8183.51
647.135	7968.48
647.328	8156.89
647.521	8132.31
647.714	8044.25
647.907	7847.65
648.099	7847.65
648.292	8070.87
648.485	7806.69
648.678	7763.68
648.871	8023.77
649.064	7747.3
649.256	7878.37
649.449	7694.05
649.642	7692
649.835	7573.22
650.027	7538.4
650.22	7433.96
650.413	7368.42
650.605	7573.22
650.798	7450.34
650.991	7278.31
651.183	7218.92
651.376	7233.25
651.568	7175.91
651.761	7190.25
651.954	7206.63
652.146	7167.72
652.339	7065.32
652.531	7102.18
652.724	6921.96
652.916	6899.44
653.109	6776.56
653.301	6946.54
653.494	6897.39
653.686	6704.88
653.879	6971.11
654.071	6891.24
654.263	6799.09
654.456	6498.03
654.648	6850.28
654.84	6430.45
655.033	6559.47
655.225	6592.24
655.417	6455.03
655.61	6543.09
655.802	6426.36
655.994	6450.93
656.186	6452.98
656.379	6407.92
656.571	6381.3
656.763	6274.81
656.955	6283
657.148	6063.86
657.34	6184.69
657.532	6110.97
657.724	6092.54
657.916	6178.55
658.108	6076.15
658.3	6014.71
658.492	6117.11
658.684	5998.33
658.876	6053.62
659.068	5971.71
659.26	5834.49
659.452	5914.36
659.644	5834.49
659.836	5709.57
660.028	5670.65
660.22	5781.25
660.412	5588.74
660.604	5598.98
660.796	5660.41
660.988	5713.66
661.18	5609.22
661.372	5588.74
661.563	5623.55
661.755	5428.99
661.947	5390.08
662.139	5414.66
662.331	5603.07
662.522	5424.9
662.714	5377.8
662.906	5289.73
663.097	5158.66
663.289	5293.83
663.481	5291.78
663.673	5177.09
663.864	5342.98
664.056	5222.15
664.247	5146.37
664.439	5125.9
664.631	5203.72
664.822	5099.27
665.014	5093.13
665.205	5027.59
665.397	5068.55
665.588	5097.22
665.78	4894.47
665.971	4953.87
666.163	4833.04
666.354	4865.8
666.546	4923.15
666.737	4869.9
666.929	4894.47
667.12	4931.34
667.311	4783.88
667.503	4837.13
667.694	4749.07
667.885	4818.7
668.077	4769.55
668.268	4753.16
668.459	4699.92
668.651	4597.52
668.842	4634.38
669.033	4550.42
669.224	4669.2
669.416	4677.39
669.607	4531.98
669.798	4529.94
669.989	4429.59
670.18	4554.51
670.371	4519.7
670.563	4362
670.754	4441.87
670.945	4437.78
671.136	4370.19
671.327	4437.78
671.518	4359.95
671.709	4413.2
671.9	4362
672.091	4284.18
672.282	4294.42
672.473	4362
672.664	4493.07
672.855	4267.8
673.046	4362
673.237	4259.6
673.428	4157.21
673.619	4271.89
673.809	4146.97
674	4194.07
674.191	4239.12
674.382	4122.39
674.573	4273.94
674.764	3958.55
674.954	4220.69
675.145	4069.14
675.336	4075.29
675.527	4044.57
675.717	4063
675.908	3931.93
676.099	4171.54
676.289	4032.28
676.48	3954.46
676.671	3829.53
676.861	4091.67
677.052	3974.94
677.243	3880.73
677.433	4067.1
677.624	3899.16
677.814	3794.72
678.005	3960.6
678.195	3919.64
678.386	3784.48
678.576	3796.76
678.767	3864.35
678.957	3811.1
679.148	3649.31
679.338	3811.1
679.529	3698.46
679.719	3839.77
679.909	3845.91
680.1	3825.43
680.29	3802.91
680.481	3733.28
680.671	3696.41
680.861	3694.36
681.052	3761.95
681.242	3675.93
681.432	3774.24
681.622	3639.07
681.813	3784.48
682.003	3860.25
682.193	3723.04
682.383	3682.08
682.573	3622.69
682.764	3696.41
682.954	3616.54
683.144	3696.41
683.334	3571.49
683.524	3606.3
683.714	3653.41
683.904	3581.73
684.094	3720.99
684.284	3530.53
684.474	3669.79
684.664	3624.73
684.854	3659.55
685.044	3555.1
685.234	3350.31
685.424	3579.68
685.614	3483.42
685.804	3485.47
685.994	3526.43
686.184	3589.92
686.374	3544.86
686.564	3364.64
686.753	3295.01
686.943	3313.44
687.133	3342.11
687.323	3335.97
687.513	3424.03
687.702	3264.29
687.892	3245.86
688.082	3448.61
688.272	3344.16
688.461	3481.38
688.651	3424.03
688.841	3213.09
689.03	3290.92
689.22	3264.29
689.41	3178.28
689.599	3274.53
689.789	3182.37
689.979	3170.08
690.168	3194.66
690.358	3206.95
690.547	3082.02
690.737	3180.32
690.926	3022.63
691.116	3024.68
691.305	3213.09
691.495	3067.69
691.684	3088.17
691.874	2969.38
692.063	3045.16
692.252	2967.34
692.442	3088.17
692.631	2948.9
692.82	2930.47
693.01	2971.43
693.199	2963.24
693.388	2842.41
693.578	2914.09
693.767	2901.8
693.956	2901.8
694.146	2907.94
694.335	2793.26
694.524	2850.6
694.713	2891.56
694.902	2774.83
695.092	2715.44
695.281	2752.3
695.47	2764.59
695.659	2844.46
695.848	2703.15
696.037	2813.74
696.226	2756.4
696.415	2637.61
696.604	2832.17
696.793	2713.39
696.982	2682.67
697.171	2717.48
697.36	2649.9
697.549	2668.33
697.738	2647.85
697.927	2518.83
698.116	2703.15
698.305	2639.66
698.494	2516.78
698.683	2666.28
698.872	2715.44
699.061	2641.71
699.25	2504.5
699.438	2623.28
699.627	2598.7
699.816	2584.37
700.005	2602.8
700.193	2592.56
700.382	2527.02
700.571	2551.6
700.76	2533.17
700.948	2598.7
701.137	2535.21
701.326	2529.07
701.514	2567.98
701.703	2574.13
701.892	2449.2
702.08	2719.53
702.269	2578.22
702.457	2555.69
702.646	2531.12
702.834	2428.72
703.023	2512.69
703.212	2508.59
703.4	2430.77
703.589	2449.2
703.777	2529.07
703.965	2391.86
704.154	2486.06
704.342	2428.72
704.531	2416.43
704.719	2498.35
704.907	2516.78
705.096	2510.64
705.284	2479.92
705.472	2422.58
705.661	2422.58
705.849	2492.21
706.037	2420.53
706.226	2420.53
706.414	2484.02
706.602	2428.72
706.79	2408.24
706.979	2424.62
707.167	2494.26
707.355	2395.95
707.543	2381.62
707.731	2463.54
707.919	2443.06
708.107	2490.16
708.296	2441.01
708.484	2426.67
708.672	2408.24
708.86	2453.3
709.048	2432.82
709.236	2385.71
709.424	2422.58
709.612	2543.41
709.8	2434.86
709.988	2422.58
710.176	2469.68
710.364	2377.52
710.551	2391.86
710.739	2459.44
710.927	2422.58
711.115	2385.71
711.303	2469.68
711.491	2412.34
711.679	2346.8
711.866	2389.81
712.054	2428.72
712.242	2529.07
712.43	2449.2
712.617	2354.99
712.805	2426.67
712.993	2430.77
713.181	2424.62
713.368	2522.93
713.556	2492.21
713.744	2410.29
713.931	2422.58
714.119	2381.62
714.306	2359.09
714.494	2408.24
714.682	2277.17
714.869	2467.63
715.057	2490.16
715.244	2426.67
715.432	2504.5
715.619	2412.34
715.807	2559.79
715.994	2463.54
716.182	2393.9
716.369	2453.3
716.556	2381.62
716.744	2402.1
716.931	2553.65
717.119	2410.29
717.306	2410.29
717.493	2383.66
717.681	2479.92
717.868	2481.97
718.055	2416.43
718.242	2404.14
718.43	2459.44
718.617	2447.15
718.804	2561.84
718.991	2410.29
719.179	2365.23
719.366	2359.09
719.553	2346.8
719.74	2391.86
719.927	2395.95
720.114	2520.88
720.301	2373.43
720.488	2461.49
720.676	2367.28
720.863	2402.1
721.05	2436.91
721.237	2506.54
721.424	2354.99
721.611	2524.97
721.798	2473.78
721.985	2309.94
722.172	2420.53
722.358	2441.01
722.545	2350.9
722.732	2424.62
722.919	2375.47
723.106	2324.27
723.293	2371.38
723.48	2400.05
723.667	2400.05
723.853	2400.05
724.04	2424.62
724.227	2352.95
724.414	2400.05
724.6	2498.35
724.787	2465.58
724.974	2350.9
725.161	2324.27
725.347	2303.79
725.534	2510.64
725.72	2451.25
725.907	2430.77
726.094	2479.92
726.28	2420.53
726.467	2383.66
726.653	2371.38
726.84	2316.08
727.027	2363.19
727.213	2279.22
727.4	2400.05
727.586	2393.9
727.773	2481.97
727.959	2328.37
728.145	2426.67
728.332	2424.62
728.518	2357.04
728.705	2432.82
728.891	2344.75
729.077	2354.99
729.264	2449.2
729.45	2363.19
729.636	2389.81
729.823	2422.58
730.009	2426.67
730.195	2414.38
730.382	2490.16
730.568	2342.71
730.754	2316.08
730.94	2400.05
731.126	2402.1
731.313	2416.43
731.499	2434.86
731.685	2426.67
731.871	2402.1
732.057	2334.51
732.243	2438.96
732.429	2402.1
732.615	2465.58
732.801	2459.44
732.987	2324.27
733.173	2375.47
733.359	2453.3
733.545	2303.79
733.731	2346.8
733.917	2469.68
734.103	2451.25
734.289	2418.48
734.475	2406.19
734.661	2465.58
734.847	2332.47
735.033	2332.47
735.219	2410.29
735.404	2291.51
735.59	2410.29
735.776	2283.31
735.962	2502.45
736.148	2496.3
736.333	2365.23
736.519	2334.51
736.705	2426.67
736.89	2359.09
737.076	2414.38
737.262	2254.64
737.447	2395.95
737.633	2340.66
737.819	2336.56
738.004	2365.23
738.19	2350.9
738.375	2404.14
738.561	2344.75
738.747	2545.45
738.932	2291.51
739.118	2250.55
739.303	2330.42
739.489	2244.4
739.674	2391.86
739.859	2242.36
740.045	2340.66
740.23	2137.91
740.416	2199.35
740.601	2252.59
740.786	2195.25
740.972	2242.36
741.157	2230.07
741.342	2242.36
741.528	2273.07
741.713	2242.36
741.898	2234.16
742.084	2215.73
742.269	2299.7
742.454	2207.54
742.639	2193.2
742.824	2189.11
743.01	2217.78
743.195	2178.87
743.38	2084.66
743.565	2207.54
743.75	2182.96
743.935	2043.7
744.12	2189.11
744.305	2148.15
744.49	2146.1
744.675	2101.05
744.86	2115.38
745.045	2094.9
745.23	2031.41
745.415	2094.9
745.6	2142
745.785	2066.23
745.97	2078.52
746.155	2068.28
746.34	2047.8
746.525	1937.21
746.71	1908.54
746.895	1972.02
747.079	2006.84
747.264	1972.02
747.449	1916.73
747.634	1945.4
747.819	1953.59
748.003	1843
748.188	1990.45
748.373	1863.48
748.557	1802.04
748.742	1791.8
748.927	1845.05
749.111	1826.62
749.296	1775.42
749.481	1765.18
749.665	1765.18
749.85	1720.12
750.034	1818.43
750.219	1843
750.404	1726.27
750.588	1804.09
750.773	1728.31
750.957	1767.23
751.141	1691.45
751.326	1652.54
751.51	1699.64
751.695	1775.42
751.879	1595.2
752.064	1677.12
752.248	1675.07
752.432	1550.14
752.617	1736.51
752.801	1605.44
752.985	1683.26
753.17	1640.25
753.354	1513.28
753.538	1675.07
753.722	1601.34
753.907	1480.51
754.091	1591.1
754.275	1666.88
754.459	1417.02
754.643	1419.07
754.828	1484.61
755.012	1515.33
755.196	1417.02
755.38	1341.25
755.564	1423.17
755.748	1455.94
755.932	1468.22
756.116	1412.93
756.3	1390.4
756.484	1361.73
756.668	1318.72
756.852	1408.83
757.036	1322.82
757.22	1457.98
757.404	1353.54
757.588	1388.35
757.772	1312.58
757.956	1314.63
758.14	1355.58
758.323	1279.81
758.507	1247.04
758.691	1290.05
758.875	1345.34
759.059	1316.67
759.242	1306.43
759.426	1244.99
759.61	1306.43
759.794	1140.55
759.977	1220.42
760.161	1318.72
760.345	1308.48
760.528	1146.69
760.712	1247.04
760.895	1263.43
761.079	1218.37
761.263	1222.47
761.446	1085.25
761.63	1222.47
761.813	1122.12
761.997	1081.16
762.18	1249.09
762.364	1122.12
762.547	1103.68
762.731	1109.83
762.914	1130.31
763.098	1079.11
763.281	1105.73
763.464	1107.78
763.648	1068.87
763.831	1171.27
764.015	1070.92
764.198	1044.29
764.381	1171.27
764.564	1072.96
764.748	1023.81
764.931	1115.97
765.114	1056.58
765.297	1075.01
765.481	1079.11
765.664	1034.05
765.847	931.66
766.03	1068.87
766.213	960.33
766.397	980.81
766.58	1007.43
766.763	1029.96
766.946	1038.15
767.129	1029.96
767.312	1048.39
767.495	1005.38
767.678	960.33
767.861	1066.82
768.044	1027.91
768.227	982.85
768.41	941.89
768.593	980.81
768.776	948.04
768.959	948.04
769.142	857.93
769.324	1075.01
769.507	905.03
769.69	929.61
769.873	808.78
770.056	976.71
770.239	898.89
770.421	902.98
770.604	939.85
770.787	1001.29
770.97	896.84
771.152	882.5
771.335	874.31
771.518	816.97
771.7	888.65
771.883	886.6
772.066	810.82
772.248	855.88
772.431	743.24
772.613	851.78
772.796	917.32
772.978	816.97
773.161	862.02
773.343	868.17
773.526	859.98
773.708	851.78
773.891	722.76
774.073	751.43
774.256	757.58
774.438	831.3
774.621	773.96
774.803	737.1
774.985	780.11
775.168	665.42
775.35	802.63
775.532	765.77
775.715	722.76
775.897	767.82
776.079	745.29
776.261	796.49
776.444	642.89
776.626	814.92
776.808	739.15
776.99	681.8
777.173	767.82
777.355	722.76
777.537	720.71
777.719	702.28
777.901	618.32
778.083	671.56
778.265	589.64
778.447	714.57
778.629	673.61
778.811	698.19
778.993	599.88
779.175	585.55
779.357	634.7
779.539	671.56
779.721	661.32
779.903	618.32
780.085	653.13
780.267	640.84
780.449	685.9
780.631	542.54
780.812	501.58
780.994	587.6
781.176	517.97
781.358	612.17
781.54	630.6
781.721	589.64
781.903	554.83
782.085	567.12
782.267	659.28
782.448	483.15
782.63	513.87
782.812	567.12
782.993	579.4
783.175	591.69
783.357	563.02
783.538	546.64
783.72	573.26
783.901	544.59
784.083	597.84
784.264	556.88
784.446	528.21
784.627	528.21
784.809	479.05
784.99	608.08
785.172	526.16
785.353	460.62
785.535	546.64
785.716	458.57
785.897	427.85
786.079	481.1
786.26	501.58
786.441	458.57
786.623	440.14
786.804	540.49
786.985	446.29
787.167	511.82
787.348	440.14
787.529	362.32
787.71	470.86
787.891	427.85
788.073	421.71
788.254	427.85
788.435	405.33
788.616	421.71
788.797	388.94
788.978	417.61
789.159	415.57
789.34	395.09
789.522	327.5
789.703	429.9
789.884	370.51
790.065	386.9
790.246	413.52
790.427	329.55
790.607	388.94
790.788	417.61
790.969	315.22
791.15	335.7
791.331	345.94
791.512	321.36
791.693	360.27
791.874	327.5
792.054	380.75
792.235	288.59
792.416	339.79
792.597	354.13
792.778	347.98
792.958	454.48
793.139	352.08
793.32	321.36
793.5	229.2
793.681	395.09
793.862	276.31
794.042	276.31
794.223	274.26
794.404	255.83
794.584	329.55
794.765	317.26
794.945	284.5
795.126	325.46
795.306	304.98
795.487	352.08
795.667	339.79
795.848	286.54
796.028	286.54
796.209	374.61
796.389	311.12
796.57	395.09
796.75	284.5
796.93	307.02
797.111	294.74
797.291	284.5
797.471	272.21
797.652	319.31
797.832	354.13
798.012	290.64
798.192	282.45
798.373	257.87
798.553	259.92
798.733	253.78
798.913	294.74
799.093	276.31
799.274	343.89
799.454	278.35
799.634	315.22
799.814	264.02
799.994	241.49
800.174	304.98
800.354	225.11
800.534	235.35
800.714	210.77
800.894	274.26
801.074	229.2
801.254	284.5
801.434	282.45
801.614	251.73
801.794	251.73
801.974	569.16
802.154	237.39
802.334	157.52
802.514	245.59
802.693	268.11
802.873	206.67
803.053	268.11
803.233	227.15
803.413	171.86
803.592	188.24
803.772	272.21
803.952	229.2
804.131	204.63
804.311	210.77
804.491	214.87
804.67	137.04
804.85	178
805.03	288.59
805.209	202.58
805.389	141.14
805.568	221.01
805.748	169.81
805.928	214.87
806.107	163.67
806.287	157.52
806.466	157.52
806.646	223.06
806.825	188.24
807.004	235.35
807.184	190.29
807.363	264.02
807.543	151.38
807.722	243.54
807.901	206.67
808.081	245.59
808.26	141.14
808.439	272.21
808.619	184.15
808.798	186.19
808.977	237.39
809.156	212.82
809.336	186.19
809.515	214.87
809.694	173.91
809.873	198.48
810.052	157.52
810.231	194.39
810.411	251.73
810.59	210.77
810.769	112.47
810.948	255.83
811.127	67.41
811.306	130.9
811.485	221.01
811.664	171.86
811.843	235.35
812.022	163.67
812.201	194.39
812.38	96.08
812.559	186.19
812.737	251.73
812.916	159.57
813.095	165.71
813.274	155.47
813.453	83.8
813.632	126.8
813.811	206.67
813.989	124.76
814.168	155.47
814.347	147.28
814.526	98.13
814.704	188.24
814.883	216.91
815.062	198.48
815.24	85.84
815.419	116.56
815.598	120.66
815.776	96.08
815.955	124.76
816.133	147.28
816.312	108.37
816.49	163.67
816.669	75.6
816.847	178
817.026	124.76
817.204	104.28
817.383	153.43
817.561	104.28
817.74	153.43
817.918	87.89
818.097	149.33
818.275	85.84
818.453	124.76
818.632	167.76
818.81	204.63
818.988	139.09
819.167	137.04
819.345	178
819.523	151.38
819.701	196.43
819.879	141.14
820.058	157.52
820.236	151.38
820.414	165.71
820.592	132.95
820.77	155.47
820.948	139.09
821.127	108.37
821.305	161.62
821.483	79.7
821.661	167.76
821.839	16.21
822.017	75.6
822.195	132.95
822.373	173.91
822.551	175.95
822.729	173.91
822.907	12.12
823.085	194.39
823.262	161.62
823.44	171.86
823.618	81.75
823.796	91.99
823.974	114.52
824.152	139.09
824.329	141.14
824.507	132.95
824.685	96.08
824.863	98.13
825.04	34.64
825.218	104.28
825.396	94.04
825.574	143.19
825.751	91.99
825.929	98.13
826.107	96.08
826.284	175.95
826.462	141.14
826.639	73.56
826.817	104.28
826.994	145.24
827.172	145.24
827.349	128.85
827.527	139.09
827.704	73.56
827.882	98.13
828.059	100.18
828.237	124.76
828.414	85.84
828.591	83.8
828.769	83.8
828.946	126.8
829.124	79.7
829.301	67.41
829.478	81.75
829.655	65.36
829.833	100.18
830.01	149.33
830.187	71.51
830.364	81.75
830.542	163.67
830.719	69.46
830.896	169.81
831.073	165.71
831.25	116.56
831.427	59.22
831.604	104.28
831.782	89.94
831.959	163.67
832.136	71.51
832.313	114.52
832.49	81.75
832.667	77.65
832.844	16.21
833.021	67.41
833.198	120.66
833.374	163.67
833.551	108.37
833.728	112.47
833.905	57.17
834.082	46.93
834.259	42.84
834.436	46.93
834.612	-10.41
834.789	77.65
834.966	102.23
835.143	83.8
835.319	10.07
835.496	77.65
835.673	96.08
835.85	102.23
836.026	79.7
836.203	57.17
836.38	3.93
836.556	53.08
836.733	44.88
836.909	34.64
837.086	75.6
837.262	104.28
837.439	91.99
837.616	104.28
837.792	120.66
837.968	87.89
838.145	16.21
838.321	83.8
838.498	106.32
838.674	51.03
838.851	128.85
839.027	61.27
839.203	69.46
839.38	59.22
839.556	26.45
839.732	14.17
839.909	24.4
840.085	94.04
840.261	3.93
840.437	89.94
840.614	55.12
840.79	89.94
840.966	18.26
841.142	40.79
841.318	59.22
841.494	102.23
841.671	65.36
841.847	32.6
842.023	-43.18
842.199	141.14
842.375	96.08
842.551	44.88
842.727	-41.13
842.903	81.75
843.079	1.88
843.255	55.12
843.431	106.32
843.607	110.42
843.783	83.8
843.959	34.64
844.134	89.94
844.31	147.28
844.486	69.46
844.662	114.52
844.838	44.88
845.013	42.84
845.189	65.36
845.365	18.26
845.541	65.36
845.716	48.98
845.892	108.37
846.068	81.75
846.244	89.94
846.419	79.7
846.595	106.32
846.77	100.18
846.946	65.36
847.122	69.46
847.297	89.94
847.473	55.12
847.648	-10.41
847.824	40.79
847.999	-47.27
848.175	77.65
848.35	67.41
848.526	-2.22
848.701	120.66
848.876	-14.51
849.052	46.93
849.227	79.7
849.403	59.22
849.578	75.6
849.753	38.74
849.929	42.84
850.104	-8.36
850.279	44.88
850.454	69.46
850.63	116.56
850.805	16.21
850.98	59.22
851.155	40.79
851.33	8.02
851.505	65.36
851.681	57.17
851.856	5.97
852.031	12.12
852.206	91.99
852.381	34.64
852.556	63.32
852.731	44.88
852.906	30.55
853.081	98.13
853.256	46.93
853.431	63.32
853.606	75.6
853.781	26.45
853.956	26.45
854.131	65.36
854.305	34.64
854.48	53.08
854.655	48.98
854.83	38.74
855.005	-2.22
855.18	-12.46
855.354	5.97
855.529	48.98
855.704	22.36
855.879	102.23
856.053	-18.6
856.228	30.55
856.403	-16.55
856.577	51.03
856.752	16.21
856.926	-2.22
857.101	79.7
857.276	8.02
857.45	75.6
857.625	40.79
857.799	1.88
857.974	89.94
858.148	12.12
858.323	8.02
858.497	16.21
858.672	3.93
858.846	22.36
859.02	3.93
859.195	38.74
859.369	81.75
859.543	16.21
859.718	118.61
859.892	-22.7
860.066	69.46
860.241	22.36
860.415	-20.65
860.589	-0.17
860.763	40.79
860.938	53.08
861.112	28.5
861.286	40.79
861.46	51.03
861.634	96.08
861.808	20.31
861.982	-30.89
862.157	46.93
862.331	94.04
862.505	26.45
862.679	5.97
862.853	59.22
863.027	3.93
863.201	-8.36
863.375	44.88
863.549	98.13
863.722	94.04
863.896	26.45
864.07	-12.46
864.244	53.08
864.418	-18.6
864.592	36.69
864.766	-39.08
864.939	24.4
865.113	-45.23
865.287	77.65
865.461	30.55
865.634	-8.36
865.808	18.26
865.982	102.23
866.156	34.64
866.329	46.93
866.503	36.69
866.676	14.17
866.85	-14.51
867.024	-20.65
867.197	87.89
867.371	32.6
867.544	-32.94
867.718	22.36
867.891	20.31
868.065	12.12
868.238	53.08
868.412	8.02
868.585	32.6
868.759	26.45
868.932	59.22
869.105	5.97
869.279	-18.6
869.452	-4.27
869.625	28.5
869.799	30.55
869.972	16.21
870.145	3.93
870.319	26.45
870.492	71.51
870.665	12.12
870.838	-10.41
871.011	16.21
871.185	8.02
871.358	75.6
871.531	55.12
871.704	16.21
871.877	73.56
872.05	-0.17
872.223	-51.37
872.396	18.26
872.569	-32.94
872.742	26.45
872.915	44.88
873.088	26.45
873.261	46.93
873.434	48.98
873.607	10.07
873.78	16.21
873.953	-63.66
874.126	38.74
874.299	-8.36
874.471	-0.17
874.644	-14.51
874.817	-6.31
874.99	42.84
875.163	42.84
875.335	10.07
875.508	-37.03
875.681	12.12
875.853	-10.41
876.026	16.21
876.199	59.22
876.371	14.17
876.544	20.31
876.717	38.74
876.889	-12.46
877.062	-8.36
877.234	-12.46
877.407	-2.22
877.579	69.46
877.752	67.41
877.924	-55.47
878.097	5.97
878.269	-0.17
878.442	75.6
878.614	-2.22
878.786	122.71
878.959	-8.36
879.131	5.97
879.303	-96.43
879.476	51.03
879.648	30.55
879.82	-4.27
879.993	3.93
880.165	-26.79
880.337	57.17
880.509	77.65
880.681	-14.51
880.854	10.07
881.026	61.27
881.198	18.26
881.37	42.84
881.542	12.12
881.714	8.02
881.886	1.88
882.058	8.02
882.23	26.45
882.402	1.88
882.574	67.41
882.746	8.02
882.918	67.41
883.09	-32.94
883.262	36.69
883.434	-14.51
883.606	34.64
883.778	61.27
883.95	40.79
884.122	59.22
884.293	16.21
884.465	26.45
884.637	44.88
884.809	-12.46
884.98	77.65
885.152	89.94
885.324	28.5
885.496	34.64
885.667	75.6
885.839	30.55
886.011	67.41
886.182	-20.65
886.354	69.46
886.525	26.45
886.697	-24.75
886.869	5.97
887.04	63.32
887.212	75.6
887.383	-8.36
887.555	34.64
887.726	-2.22
887.897	59.22
888.069	-34.99
888.24	12.12
888.412	89.94
888.583	-61.61
888.754	26.45
888.926	12.12
889.097	-14.51
889.268	-0.17
889.44	-6.31
889.611	5.97
889.782	83.8
889.953	-92.33
890.125	-4.27
890.296	-18.6
890.467	-0.17
890.638	-18.6
890.809	42.84
890.98	-26.79
891.151	120.66
891.323	24.4
891.494	24.4
891.665	-53.42
891.836	16.21
892.007	10.07
892.178	3.93
892.349	8.02
892.52	-2.22
892.691	-32.94
892.862	14.17
893.032	-6.31
893.203	-71.85
893.374	-57.51
893.545	20.31
893.716	5.97
893.887	30.55
894.057	-12.46
894.228	73.56
894.399	-6.31
894.57	12.12
894.74	10.07
894.911	20.31
895.082	3.93
895.253	1.88
895.423	-2.22
895.594	-10.41
895.764	-10.41
895.935	20.31
896.106	-63.66
896.276	14.17
896.447	48.98
896.617	32.6
896.788	10.07
896.958	20.31
897.129	-51.37
897.299	51.03
897.47	-20.65
897.64	34.64
897.81	-4.27
897.981	-4.27
898.151	-51.37
898.322	3.93
898.492	18.26
898.662	-43.18
898.832	28.5
899.003	28.5
899.173	53.08
899.343	20.31
899.513	75.6
