Data from USB4F104151__86__12-27-57-290.txt Node

Date: Fri Mar 14 12:27:57 EDT 2025
User: louis
Spectrometer: USB4F10415
Trigger mode: 4
Integration Time (sec): 2.000000E-2
Scans to average: 1
Electric dark correction enabled: true
Nonlinearity correction enabled: false
Boxcar width: 0
XAxis mode: Wavelengths
Number of Pixels in Spectrum: 3648
>>>>>Begin Spectral Data<<<<<
178.204	-68.27
178.424	-68.27
178.644	-68.27
178.864	-33.45
179.084	-47.79
179.304	-15.02
179.524	34.13
179.744	-10.92
179.964	3.41
180.184	-15.02
180.404	-45.74
180.624	32.08
180.844	-8.87
181.064	-35.5
181.283	-15.02
181.503	-2.73
181.723	79.19
181.943	-19.11
182.163	27.99
182.383	21.84
182.602	136.53
182.822	19.8
183.042	15.7
183.262	64.85
183.482	54.61
183.701	-49.83
183.921	56.66
184.141	-51.88
184.361	42.32
184.58	-2.73
184.8	48.47
185.02	-58.03
185.239	38.23
185.459	17.75
185.679	85.33
185.898	62.8
186.118	79.19
186.338	-10.92
186.557	62.8
186.777	79.19
186.997	-15.02
187.216	-19.11
187.436	52.56
187.655	27.99
187.875	13.65
188.095	62.8
188.314	105.81
188.534	27.99
188.753	32.08
188.973	34.13
189.192	15.7
189.412	56.66
189.631	-17.07
189.851	-0.68
190.07	36.18
190.29	40.28
190.509	71
190.729	48.47
190.948	21.84
191.168	89.43
191.387	99.67
191.607	3.41
191.826	89.43
192.045	13.65
192.265	-68.27
192.484	-41.64
192.704	-10.92
192.923	-6.83
193.142	71
193.362	89.43
193.581	52.56
193.8	40.28
194.02	19.8
194.239	-6.83
194.458	60.76
194.678	52.56
194.897	30.04
195.116	48.47
195.335	19.8
195.555	42.32
195.774	11.61
195.993	71
196.212	44.37
196.432	9.56
196.651	30.04
196.87	3.41
197.089	109.91
197.308	34.13
197.528	46.42
197.747	9.56
197.966	42.32
198.185	87.38
198.404	38.23
198.623	62.8
198.842	-4.78
199.062	-17.07
199.281	-2.73
199.5	9.56
199.719	-33.45
199.938	89.43
200.157	60.76
200.376	-23.21
200.595	27.99
200.814	-6.83
201.033	30.04
201.252	54.61
201.471	-17.07
201.69	62.8
201.909	52.56
202.128	79.19
202.347	-6.83
202.566	-12.97
202.785	19.8
203.004	-6.83
203.223	126.29
203.442	-29.35
203.661	48.47
203.879	50.52
204.098	54.61
204.317	-49.83
204.536	91.48
204.755	81.24
204.974	-21.16
205.193	19.8
205.411	48.47
205.63	19.8
205.849	-23.21
206.068	34.13
206.287	103.76
206.505	66.9
206.724	-8.87
206.943	32.08
207.162	38.23
207.381	60.76
207.599	50.52
207.818	27.99
208.037	19.8
208.255	107.86
208.474	3.41
208.693	73.04
208.911	25.94
209.13	-6.83
209.349	19.8
209.567	142.68
209.786	44.37
210.005	73.04
210.223	-25.26
210.442	3.41
210.661	25.94
210.879	27.99
211.098	40.28
211.316	-19.11
211.535	9.56
211.753	75.09
211.972	-6.83
212.191	17.75
212.409	52.56
212.628	1.37
212.846	-0.68
213.065	-33.45
213.283	36.18
213.502	34.13
213.72	120.15
213.938	27.99
214.157	58.71
214.375	-8.87
214.594	71
214.812	38.23
215.031	30.04
215.249	-21.16
215.467	48.47
215.686	66.9
215.904	73.04
216.122	23.89
216.341	5.46
216.559	54.61
216.778	66.9
216.996	58.71
217.214	30.04
217.432	-31.4
217.651	19.8
217.869	19.8
218.087	13.65
218.306	19.8
218.524	81.24
218.742	11.61
218.96	-2.73
219.179	-25.26
219.397	25.94
219.615	46.42
219.833	97.62
220.051	-4.78
220.27	15.7
220.488	48.47
220.706	3.41
220.924	25.94
221.142	30.04
221.36	7.51
221.578	-23.21
221.796	36.18
222.015	38.23
222.233	9.56
222.451	99.67
222.669	-15.02
222.887	9.56
223.105	-29.35
223.323	9.56
223.541	25.94
223.759	46.42
223.977	36.18
224.195	68.95
224.413	52.56
224.631	15.7
224.849	56.66
225.067	40.28
225.285	-21.16
225.503	7.51
225.721	-2.73
225.939	85.33
226.157	73.04
226.375	-0.68
226.592	44.37
226.81	25.94
227.028	44.37
227.246	89.43
227.464	44.37
227.682	-8.87
227.9	-15.02
228.117	42.32
228.335	-4.78
228.553	50.52
228.771	36.18
228.989	71
229.206	-25.26
229.424	52.56
229.642	32.08
229.86	81.24
230.077	58.71
230.295	118.1
230.513	44.37
230.731	103.76
230.948	48.47
231.166	-43.69
231.384	77.14
231.601	5.46
231.819	62.8
232.037	32.08
232.254	-31.4
232.472	11.61
232.689	36.18
232.907	3.41
233.125	77.14
233.342	-45.74
233.56	-55.98
233.777	-23.21
233.995	60.76
234.213	54.61
234.43	56.66
234.648	36.18
234.865	7.51
235.083	40.28
235.3	9.56
235.518	89.43
235.735	50.52
235.953	85.33
236.17	27.99
236.388	58.71
236.605	66.9
236.822	48.47
237.04	5.46
237.257	38.23
237.475	23.89
237.692	-25.26
237.909	-8.87
238.127	60.76
238.344	89.43
238.562	3.41
238.779	-8.87
238.996	5.46
239.214	-33.45
239.431	5.46
239.648	17.75
239.865	21.84
240.083	64.85
240.3	38.23
240.517	-8.87
240.735	97.62
240.952	50.52
241.169	21.84
241.386	25.94
241.603	3.41
241.821	52.56
242.038	38.23
242.255	140.63
242.472	32.08
242.689	52.56
242.907	95.57
243.124	-10.92
243.341	101.72
243.558	62.8
243.775	46.42
243.992	-2.73
244.209	25.94
244.426	56.66
244.643	32.08
244.86	15.7
245.078	81.24
245.295	79.19
245.512	42.32
245.729	-31.4
245.946	44.37
246.163	25.94
246.38	-33.45
246.597	97.62
246.814	21.84
247.031	5.46
247.248	9.56
247.464	19.8
247.681	19.8
247.898	-0.68
248.115	99.67
248.332	11.61
248.549	64.85
248.766	107.86
248.983	-10.92
249.2	38.23
249.417	89.43
249.633	66.9
249.85	140.63
250.067	-4.78
250.284	-8.87
250.501	87.38
250.717	11.61
250.934	17.75
251.151	-78.51
251.368	40.28
251.585	25.94
251.801	32.08
252.018	46.42
252.235	52.56
252.451	3.41
252.668	71
252.885	15.7
253.102	-21.16
253.318	11.61
253.535	27.99
253.752	23.89
253.968	79.19
254.185	42.32
254.401	23.89
254.618	34.13
254.835	36.18
255.051	50.52
255.268	21.84
255.484	52.56
255.701	13.65
255.917	38.23
256.134	-4.78
256.351	-6.83
256.567	23.89
256.784	54.61
257	-27.31
257.217	50.52
257.433	32.08
257.65	83.28
257.866	99.67
258.082	23.89
258.299	-6.83
258.515	3.41
258.732	13.65
258.948	75.09
259.165	13.65
259.381	-0.68
259.597	23.89
259.814	1.37
260.03	56.66
260.246	38.23
260.463	46.42
260.679	48.47
260.895	46.42
261.112	23.89
261.328	30.04
261.544	64.85
261.761	95.57
261.977	11.61
262.193	-84.65
262.409	103.76
262.626	-39.59
262.842	71
263.058	-15.02
263.274	64.85
263.49	44.37
263.707	36.18
263.923	42.32
264.139	36.18
264.355	36.18
264.571	114
264.787	-29.35
265.004	34.13
265.22	68.95
265.436	56.66
265.652	15.7
265.868	54.61
266.084	-6.83
266.3	34.13
266.516	38.23
266.732	19.8
266.948	93.52
267.164	-17.07
267.38	-8.87
267.596	38.23
267.812	77.14
268.028	58.71
268.244	40.28
268.46	30.04
268.676	-8.87
268.892	3.41
269.108	-66.22
269.324	-64.17
269.54	50.52
269.756	19.8
269.972	-8.87
270.188	-29.35
270.403	30.04
270.619	56.66
270.835	68.95
271.051	42.32
271.267	15.7
271.483	23.89
271.698	56.66
271.914	85.33
272.13	50.52
272.346	1.37
272.562	81.24
272.777	44.37
272.993	36.18
273.209	-29.35
273.425	58.71
273.64	-31.4
273.856	44.37
274.072	7.51
274.287	95.57
274.503	-17.07
274.719	93.52
274.934	27.99
275.15	34.13
275.366	-27.31
275.581	9.56
275.797	46.42
276.012	58.71
276.228	19.8
276.444	34.13
276.659	48.47
276.875	58.71
277.09	34.13
277.306	25.94
277.521	111.96
277.737	7.51
277.952	54.61
278.168	91.48
278.383	52.56
278.599	73.04
278.814	58.71
279.03	40.28
279.245	27.99
279.461	73.04
279.676	68.95
279.892	3.41
280.107	-23.21
280.322	5.46
280.538	19.8
280.753	52.56
280.969	46.42
281.184	36.18
281.399	87.38
281.615	-10.92
281.83	38.23
282.045	-6.83
282.26	21.84
282.476	-21.16
282.691	25.94
282.906	32.08
283.122	111.96
283.337	-6.83
283.552	27.99
283.767	-49.83
283.983	38.23
284.198	103.76
284.413	25.94
284.628	-88.75
284.843	73.04
285.058	58.71
285.274	71
285.489	-41.64
285.704	58.71
285.919	19.8
286.134	52.56
286.349	62.8
286.564	9.56
286.779	9.56
286.995	7.51
287.21	46.42
287.425	58.71
287.64	34.13
287.855	1.37
288.07	-37.55
288.285	42.32
288.5	71
288.715	-23.21
288.93	7.51
289.145	27.99
289.36	21.84
289.575	44.37
289.79	30.04
290.004	32.08
290.219	21.84
290.434	44.37
290.649	58.71
290.864	13.65
291.079	87.38
291.294	17.75
291.509	3.41
291.724	19.8
291.938	54.61
292.153	60.76
292.368	30.04
292.583	81.24
292.798	38.23
293.012	64.85
293.227	19.8
293.442	83.28
293.657	81.24
293.871	13.65
294.086	91.48
294.301	163.15
294.516	21.84
294.73	50.52
294.945	42.32
295.16	38.23
295.374	21.84
295.589	64.85
295.804	13.65
296.018	25.94
296.233	-4.78
296.447	23.89
296.662	71
296.877	-0.68
297.091	62.8
297.306	54.61
297.52	-12.97
297.735	15.7
297.949	-12.97
298.164	66.9
298.378	44.37
298.593	48.47
298.807	-27.31
299.022	15.7
299.236	27.99
299.451	-19.11
299.665	62.8
299.88	1.37
300.094	75.09
300.309	118.1
300.523	38.23
300.737	71
300.952	13.65
301.166	71
301.381	-15.02
301.595	56.66
301.809	30.04
302.024	-0.68
302.238	42.32
302.452	27.99
302.667	79.19
302.881	105.81
303.095	52.56
303.309	7.51
303.524	-47.79
303.738	13.65
303.952	-15.02
304.166	11.61
304.381	9.56
304.595	-12.97
304.809	7.51
305.023	-15.02
305.237	62.8
305.452	42.32
305.666	42.32
305.88	77.14
306.094	91.48
306.308	32.08
306.522	-31.4
306.736	5.46
306.95	15.7
307.164	17.75
307.379	5.46
307.593	27.99
307.807	42.32
308.021	11.61
308.235	66.9
308.449	109.91
308.663	-19.11
308.877	40.28
309.091	7.51
309.305	38.23
309.519	-86.7
309.733	50.52
309.947	5.46
310.161	21.84
310.374	60.76
310.588	71
310.802	-6.83
311.016	-51.88
311.23	38.23
311.444	79.19
311.658	58.71
311.872	9.56
312.085	99.67
312.299	66.9
312.513	56.66
312.727	60.76
312.941	19.8
313.154	34.13
313.368	-19.11
313.582	-19.11
313.796	73.04
314.009	-17.07
314.223	56.66
314.437	46.42
314.651	21.84
314.864	11.61
315.078	36.18
315.292	9.56
315.505	64.85
315.719	40.28
315.933	19.8
316.146	66.9
316.36	75.09
316.573	91.48
316.787	93.52
317.001	73.04
317.214	13.65
317.428	15.7
317.641	-15.02
317.855	15.7
318.068	5.46
318.282	-53.93
318.495	-12.97
318.709	60.76
318.922	34.13
319.136	75.09
319.349	62.8
319.563	64.85
319.776	40.28
319.99	-23.21
320.203	87.38
320.417	32.08
320.63	-2.73
320.843	122.2
321.057	50.52
321.27	68.95
321.483	-10.92
321.697	85.33
321.91	3.41
322.124	64.85
322.337	34.13
322.55	87.38
322.763	126.29
322.977	11.61
323.19	17.75
323.403	13.65
323.617	19.8
323.83	62.8
324.043	30.04
324.256	73.04
324.469	21.84
324.683	75.09
324.896	17.75
325.109	-31.4
325.322	-6.83
325.535	71
325.748	79.19
325.962	38.23
326.175	1.37
326.388	60.76
326.601	77.14
326.814	42.32
327.027	40.28
327.24	42.32
327.453	-90.79
327.666	21.84
327.879	7.51
328.092	77.14
328.305	54.61
328.518	15.7
328.731	9.56
328.944	32.08
329.157	1.37
329.37	56.66
329.583	27.99
329.796	122.2
330.009	1.37
330.222	48.47
330.435	81.24
330.648	-19.11
330.861	21.84
331.073	30.04
331.286	64.85
331.499	87.38
331.712	52.56
331.925	32.08
332.138	-2.73
332.35	38.23
332.563	5.46
332.776	62.8
332.989	40.28
333.202	9.56
333.414	66.9
333.627	52.56
333.84	64.85
334.053	5.46
334.265	-0.68
334.478	58.71
334.691	40.28
334.903	83.28
335.116	-4.78
335.329	52.56
335.541	17.75
335.754	107.86
335.966	73.04
336.179	-15.02
336.392	32.08
336.604	32.08
336.817	-25.26
337.029	7.51
337.242	32.08
337.454	-12.97
337.667	-17.07
337.88	-39.59
338.092	116.05
338.305	52.56
338.517	-6.83
338.729	91.48
338.942	30.04
339.154	66.9
339.367	77.14
339.579	85.33
339.792	50.52
340.004	109.91
340.217	111.96
340.429	27.99
340.641	83.28
340.854	73.04
341.066	48.47
341.278	21.84
341.491	93.52
341.703	42.32
341.915	38.23
342.128	114
342.34	62.8
342.552	75.09
342.764	36.18
342.977	71
343.189	52.56
343.401	71
343.613	38.23
343.826	62.8
344.038	81.24
344.25	9.56
344.462	40.28
344.674	71
344.886	40.28
345.099	87.38
345.311	-0.68
345.523	79.19
345.735	13.65
345.947	75.09
346.159	-23.21
346.371	-10.92
346.583	-49.83
346.795	87.38
347.007	32.08
347.219	38.23
347.431	21.84
347.643	111.96
347.855	32.08
348.067	99.67
348.279	-68.27
348.491	40.28
348.703	101.72
348.915	79.19
349.127	-55.98
349.339	75.09
349.551	30.04
349.763	71
349.975	23.89
350.187	-25.26
350.399	42.32
350.61	105.81
350.822	30.04
351.034	32.08
351.246	101.72
351.458	46.42
351.669	23.89
351.881	97.62
352.093	142.68
352.305	-0.68
352.517	44.37
352.728	58.71
352.94	34.13
353.152	109.91
353.363	-31.4
353.575	17.75
353.787	77.14
353.999	-4.78
354.21	11.61
354.422	75.09
354.633	103.76
354.845	21.84
355.057	32.08
355.268	93.52
355.48	73.04
355.692	60.76
355.903	-0.68
356.115	17.75
356.326	-27.31
356.538	79.19
356.749	140.63
356.961	50.52
357.172	3.41
357.384	58.71
357.595	91.48
357.807	50.52
358.018	34.13
358.23	-45.74
358.441	73.04
358.653	25.94
358.864	17.75
359.075	60.76
359.287	68.95
359.498	34.13
359.709	23.89
359.921	-2.73
360.132	150.87
360.344	105.81
360.555	128.34
360.766	62.8
360.977	-47.79
361.189	93.52
361.4	25.94
361.611	-29.35
361.823	85.33
362.034	58.71
362.245	23.89
362.456	21.84
362.667	48.47
362.879	60.76
363.09	-6.83
363.301	144.72
363.512	154.96
363.723	3.41
363.935	-0.68
364.146	42.32
364.357	44.37
364.568	50.52
364.779	56.66
364.99	46.42
365.201	1.37
365.412	83.28
365.623	23.89
365.834	50.52
366.045	109.91
366.256	38.23
366.467	66.9
366.678	87.38
366.889	95.57
367.1	40.28
367.311	114
367.522	79.19
367.733	66.9
367.944	93.52
368.155	54.61
368.366	32.08
368.577	1.37
368.788	60.76
368.999	-0.68
369.209	87.38
369.42	42.32
369.631	7.51
369.842	27.99
370.053	15.7
370.264	1.37
370.474	36.18
370.685	116.05
370.896	-8.87
371.107	9.56
371.317	34.13
371.528	17.75
371.739	64.85
371.95	85.33
372.16	165.2
372.371	-23.21
372.582	3.41
372.792	34.13
373.003	75.09
373.214	-10.92
373.424	75.09
373.635	73.04
373.846	48.47
374.056	54.61
374.267	79.19
374.477	36.18
374.688	81.24
374.898	62.8
375.109	101.72
375.319	21.84
375.53	58.71
375.74	83.28
375.951	71
376.161	87.38
376.372	9.56
376.582	-25.26
376.793	97.62
377.003	56.66
377.214	30.04
377.424	79.19
377.635	79.19
377.845	38.23
378.055	95.57
378.266	11.61
378.476	66.9
378.686	3.41
378.897	-2.73
379.107	62.8
379.317	111.96
379.528	114
379.738	60.76
379.948	97.62
380.158	75.09
380.369	52.56
380.579	48.47
380.789	118.1
380.999	73.04
381.21	34.13
381.42	81.24
381.63	27.99
381.84	77.14
382.05	120.15
382.261	71
382.471	17.75
382.681	38.23
382.891	173.39
383.101	42.32
383.311	38.23
383.521	48.47
383.731	32.08
383.941	87.38
384.151	111.96
384.361	130.39
384.571	81.24
384.781	101.72
384.991	107.86
385.201	89.43
385.411	83.28
385.621	81.24
385.831	13.65
386.041	1.37
386.251	5.46
386.461	66.9
386.671	73.04
386.881	75.09
387.091	73.04
387.301	77.14
387.511	73.04
387.72	75.09
387.93	77.14
388.14	60.76
388.35	71
388.56	138.58
388.769	87.38
388.979	142.68
389.189	85.33
389.399	89.43
389.609	120.15
389.818	89.43
390.028	54.61
390.238	40.28
390.447	15.7
390.657	97.62
390.867	62.8
391.076	93.52
391.286	54.61
391.496	-8.87
391.705	52.56
391.915	75.09
392.125	60.76
392.334	48.47
392.544	95.57
392.753	81.24
392.963	83.28
393.172	105.81
393.382	19.8
393.591	130.39
393.801	46.42
394.01	132.44
394.22	19.8
394.429	23.89
394.639	23.89
394.848	71
395.058	81.24
395.267	71
395.477	165.2
395.686	114
395.895	140.63
396.105	85.33
396.314	38.23
396.524	87.38
396.733	64.85
396.942	144.72
397.152	148.82
397.361	134.48
397.57	138.58
397.78	89.43
397.989	85.33
398.198	120.15
398.407	85.33
398.617	52.56
398.826	157.01
399.035	68.95
399.244	75.09
399.453	91.48
399.663	83.28
399.872	97.62
400.081	79.19
400.29	52.56
400.499	159.06
400.708	107.86
400.917	85.33
401.127	52.56
401.336	114
401.545	109.91
401.754	130.39
401.963	189.78
402.172	116.05
402.381	83.28
402.59	107.86
402.799	167.25
403.008	87.38
403.217	214.35
403.426	136.53
403.635	130.39
403.844	109.91
404.053	140.63
404.262	91.48
404.471	120.15
404.68	210.26
404.888	132.44
405.097	107.86
405.306	177.49
405.515	179.54
405.724	175.44
405.933	183.63
406.142	236.88
406.35	148.82
406.559	197.97
406.768	208.21
406.977	189.78
407.185	224.59
407.394	171.35
407.603	181.59
407.812	261.46
408.02	191.83
408.229	224.59
408.438	218.45
408.646	189.78
408.855	204.11
409.064	212.31
409.272	236.88
409.481	265.55
409.69	220.5
409.898	214.35
410.107	353.62
410.315	417.1
410.524	249.17
410.733	339.28
410.941	257.36
411.15	380.24
411.358	370
411.567	460.11
411.775	372.05
411.984	410.96
412.192	453.97
412.401	415.05
412.609	468.3
412.818	517.45
413.026	472.4
413.234	572.75
413.443	531.79
413.651	472.4
413.86	564.56
414.068	605.52
414.276	648.52
414.485	660.81
414.693	556.36
414.901	652.62
415.11	632.14
415.318	685.39
415.526	714.06
415.734	732.49
415.943	793.93
416.151	890.18
416.359	755.02
416.567	800.07
416.776	853.32
416.984	980.29
417.192	1043.78
417.4	955.72
417.608	1043.78
417.817	1031.49
418.025	1129.8
418.233	1176.9
418.441	1135.94
418.649	1291.59
418.857	1318.21
419.065	1299.78
419.273	1240.39
419.481	1410.37
419.689	1381.7
419.897	1729.85
420.105	1559.87
420.313	1525.05
420.521	1643.84
420.729	1703.23
420.937	1647.93
421.145	1789.24
421.353	1848.63
421.561	1891.64
421.769	1879.35
421.977	2114.87
422.185	2035
422.393	2096.44
422.601	2290.99
422.809	2293.04
423.017	2358.58
423.224	2452.78
423.432	2508.08
423.64	2358.58
423.848	2837.8
424.056	2792.75
424.263	2858.28
424.471	2917.67
424.679	2956.58
424.887	2989.35
425.094	3282.21
425.302	3177.76
425.51	3278.12
425.718	3482.91
425.925	3583.26
426.133	3636.51
426.341	3732.76
426.548	4017.43
426.756	4025.62
426.964	4035.86
427.171	4234.52
427.379	4422.93
427.586	4470.03
427.794	4607.25
428.001	4769.04
428.209	4971.79
428.417	4943.11
428.624	5211.4
428.832	5278.98
429.039	5139.72
429.247	5231.88
429.454	5784.83
429.662	6100.22
429.869	5747.97
430.076	6022.39
430.284	6024.44
430.491	6323.44
430.699	6608.11
430.906	6472.95
431.114	6774
431.321	6925.55
431.528	7130.34
431.736	7455.97
431.943	7863.52
432.15	7580.9
432.358	7797.98
432.565	8000.73
432.772	7949.53
432.979	8547.54
433.187	8725.71
433.394	8860.88
433.601	9376.97
433.808	9307.34
434.016	9098.44
434.223	9592
434.43	10126.52
434.637	10276.02
434.844	10720.43
435.052	10939.57
435.259	10861.74
435.466	10902.7
435.673	10788.02
435.88	11386.02
436.087	12100.76
436.294	12270.75
436.501	11953.31
436.708	12237.98
436.915	12428.44
437.122	12909.71
437.329	13243.53
437.537	13560.97
437.743	13601.93
437.95	13663.36
438.157	14249.08
438.364	14814.32
438.571	14529.66
438.778	14765.17
438.985	16090.21
439.192	15778.92
439.399	16012.39
439.606	15707.24
439.813	16712.79
440.02	17585.22
440.227	17652.81
440.433	17390.67
440.64	17851.46
440.847	17650.76
441.054	18312.25
441.261	19418.16
441.467	19086.39
441.674	19833.89
441.881	20407.33
442.088	20124.71
442.294	20098.08
442.501	20493.34
442.708	21050.39
442.914	21916.68
443.121	22680.57
443.328	21980.17
443.534	23819.24
443.741	22981.62
443.948	22500.35
444.154	24339.43
444.361	24103.91
444.568	24466.4
444.774	24347.62
444.981	24460.26
445.187	25412.56
445.394	26416.07
445.6	26203.08
445.807	28535.71
446.013	27638.7
446.22	27993
446.426	29268.89
446.633	29315.99
446.839	30323.59
447.046	29059.99
447.252	30747.52
447.459	31067
447.665	30665.6
447.871	31925.1
448.078	33747.79
448.284	31748.98
448.491	32617.32
448.697	34034.51
448.903	34591.56
449.11	34468.68
449.316	34020.17
449.522	34919.23
449.728	35670.84
449.935	36025.14
450.141	36111.15
450.347	36604.71
450.553	35756.85
450.76	36252.46
450.966	37413.66
451.172	36889.38
451.378	37819.16
451.584	37278.49
451.791	37780.24
451.997	37694.23
452.203	38609.67
452.409	38603.53
452.615	38394.64
452.821	36891.43
453.027	36479.78
453.233	38517.51
453.44	36983.58
453.646	37376.79
453.852	37378.84
454.058	37972.75
454.264	37051.17
454.47	38091.54
454.676	37030.69
454.882	38216.46
455.088	34933.57
455.294	35455.8
455.5	36299.56
455.705	36805.41
455.911	35124.03
456.117	34069.33
456.323	33964.88
456.529	32383.85
456.735	33405.78
456.941	32783.2
457.147	32342.89
457.352	31112.06
457.558	31114.11
457.764	30884.73
457.97	30159.75
458.176	29784.97
458.381	29576.08
458.587	28384.16
458.793	28033.96
458.999	26840
459.204	28605.34
459.41	27820.97
459.616	26264.52
459.821	26033.1
460.027	26026.95
460.233	25643.98
460.438	24421.34
460.644	24749.02
460.85	23569.39
461.055	22942.71
461.261	23020.53
461.466	21576.72
461.672	20671.51
461.878	21875.72
462.083	20974.61
462.289	20415.52
462.494	19909.67
462.7	19039.28
462.905	18859.06
463.111	19201.07
463.316	19389.49
463.522	18875.45
463.727	19026.99
463.932	18971.7
464.138	18609.21
464.343	18787.38
464.549	18316.35
464.754	18926.64
464.959	18668.6
465.165	18598.97
465.37	17661
465.575	17448.01
465.781	18156.61
465.986	18000.96
466.191	17458.25
466.397	17095.76
466.602	16110.69
466.807	16749.65
467.012	17196.11
467.218	17093.71
467.423	16553.05
467.628	16780.37
467.833	17441.87
468.038	16823.38
468.244	16223.33
468.449	16847.96
468.654	16503.9
468.859	16403.55
469.064	16354.4
469.269	15731.81
469.474	15686.76
469.679	15807.59
469.885	15539.3
470.09	15879.27
470.295	15645.8
470.5	15053.94
470.705	15281.26
470.91	14957.68
471.115	15023.22
471.32	15254.64
471.525	15031.41
471.73	14828.66
471.935	14759.03
472.139	14292.09
472.344	14312.57
472.549	14048.38
472.754	13968.51
472.959	13911.17
473.164	13597.83
473.369	13470.86
473.574	13905.03
473.778	13665.41
473.983	13454.47
474.188	13595.78
474.393	13003.92
474.598	13001.87
474.802	12813.46
475.007	12838.03
475.212	12932.24
475.417	12364.95
475.621	12264.6
475.826	12278.94
476.031	12164.25
476.235	11668.64
476.44	12113.05
476.645	11891.87
476.849	11789.47
477.054	11646.12
477.259	11463.85
477.463	11318.44
477.668	11093.16
477.872	11238.57
478.077	11160.75
478.282	10826.93
478.486	10857.65
478.691	10681.52
478.895	10658.99
479.1	10642.61
479.304	10704.05
479.509	10337.46
479.713	10665.14
479.918	10319.03
480.122	9991.36
480.326	10491.06
480.531	10321.08
480.735	10321.08
480.94	10063.04
481.144	10411.19
481.348	10042.56
481.553	10026.17
481.757	9790.66
481.961	10067.13
482.166	10190.01
482.37	9966.78
482.574	9708.74
482.778	9784.51
482.983	10048.7
483.187	9723.07
483.391	10091.71
483.595	9927.87
483.8	9690.31
484.004	9878.72
484.208	9936.06
484.412	9716.93
484.616	9927.87
484.821	9845.95
485.025	9917.63
485.229	9831.62
485.433	9864.38
485.637	9913.53
485.841	9700.55
486.045	9821.38
486.249	9899.2
486.453	9833.66
486.657	9796.8
486.861	9979.07
487.065	9811.14
487.269	9954.49
487.473	9829.57
487.677	10065.08
487.881	10124.47
488.085	9837.76
488.289	9823.42
488.493	9778.37
488.697	9864.38
488.901	9954.49
489.105	9934.01
489.309	9845.95
489.512	9772.22
489.716	10104
489.92	9981.12
490.124	10087.61
490.328	10241.21
490.531	10077.37
490.735	10116.28
490.939	10269.88
491.143	10069.18
491.346	10276.02
491.55	10312.89
491.754	10204.35
491.958	10415.29
492.161	10255.54
492.365	10368.18
492.569	10429.62
492.772	10515.64
492.976	10689.71
493.18	10818.74
493.383	10601.65
493.587	10763.44
493.79	10906.8
493.994	10491.06
494.197	11013.29
494.401	10849.46
494.605	10960.05
494.808	11257
495.012	11164.84
495.215	11322.54
495.419	11504.81
495.622	11404.46
495.825	11328.68
496.029	11365.54
496.232	11754.66
496.436	11730.08
496.639	11988.13
496.843	11922.59
497.046	12096.67
497.249	12262.55
497.453	12137.63
497.656	12293.27
497.859	12317.85
498.063	12520.6
498.266	12862.61
498.469	12893.33
498.673	12731.54
498.876	12989.58
499.079	13251.72
499.282	13345.93
499.485	13567.11
499.689	13978.75
499.892	13634.69
500.095	13765.76
500.298	13958.27
500.501	13837.44
500.705	14433.4
500.908	14527.61
501.111	14842.99
501.314	14888.05
501.517	14892.15
501.72	14926.96
501.923	15092.85
502.126	15432.81
502.329	15668.33
502.532	15899.75
502.735	15641.7
502.938	16346.2
503.141	16198.75
503.344	16794.71
503.547	16553.05
503.75	16839.76
503.953	16872.53
504.156	17011.79
504.359	17128.53
504.562	17497.16
504.765	17673.29
504.968	18265.15
505.17	18043.97
505.373	18099.27
505.576	18617.4
505.779	18672.7
505.982	18652.22
506.185	19317.81
506.387	19139.63
506.59	19457.07
506.793	19395.63
506.996	19549.23
507.198	20114.47
507.401	19831.85
507.604	20462.62
507.807	20630.55
508.009	20726.81
508.212	21097.49
508.415	20841.5
508.617	21335.06
508.82	21640.2
509.022	21496.85
509.225	22086.66
509.428	22182.91
509.63	22471.68
509.833	22909.94
510.035	22678.52
510.238	23167.99
510.44	23311.35
510.643	23567.34
510.845	23958.5
511.048	23737.32
511.25	23950.31
511.453	24136.68
511.655	25031.64
511.858	24732.64
512.06	25005.02
512.262	25185.24
512.465	25060.31
512.667	25639.89
512.87	26059.72
513.072	26170.31
513.274	26610.62
513.477	26627.01
513.679	27005.88
513.881	27145.14
514.084	27382.71
514.286	27392.95
514.488	27659.18
514.69	28330.92
514.893	28478.37
515.095	28650.4
515.297	28793.76
515.499	28965.79
515.701	29373.33
515.904	29637.52
516.106	29914
516.308	30114.7
516.51	30147.47
516.712	30444.42
516.914	30813.06
517.116	30980.99
517.318	31132.54
517.52	31435.64
517.722	31507.32
517.925	31986.54
518.127	32244.59
518.329	32168.81
518.531	32619.36
518.733	33110.88
518.935	33250.14
519.136	33465.17
519.338	33678.16
519.54	33882.96
519.742	34106.19
519.944	34409.29
520.146	34700.1
520.348	34968.38
520.55	35035.97
520.752	35353.4
520.954	35879.73
521.155	35631.93
521.357	36285.23
521.559	36571.94
521.761	37018.4
521.963	37100.32
522.164	37288.73
522.366	37094.18
522.568	37294.88
522.77	37702.42
522.971	38363.92
523.173	38026
523.375	38370.06
523.576	38460.17
523.778	38320.91
523.98	38906.63
524.181	38931.2
524.383	38990.59
524.584	39469.82
524.786	39676.66
524.988	39252.73
525.189	40151.79
525.391	40116.98
525.592	40102.64
525.794	40422.12
525.995	40663.78
526.197	40667.88
526.398	41151.2
526.6	41155.3
526.801	41360.09
527.003	41544.41
527.204	41145.06
527.406	41947.86
527.607	41808.6
527.808	42035.92
528.01	41485.02
528.211	42222.29
528.412	42527.44
528.614	42402.51
528.815	42568.4
529.016	42808.01
529.218	42420.94
529.419	42386.13
529.62	43180.74
529.822	42836.68
530.023	42857.16
530.224	42996.42
530.425	43004.61
530.626	42719.95
530.828	42740.43
531.029	43893.43
531.23	43064
531.431	43526.85
531.632	43061.96
531.833	43619
532.035	43424.45
532.236	43647.68
532.437	43428.54
532.638	43209.41
532.839	43979.45
533.04	43711.16
533.241	43367.1
533.442	44352.18
533.643	44423.86
533.844	43875
534.045	43743.93
534.246	43766.46
534.447	44614.32
534.648	43733.69
534.849	43981.49
535.05	43539.13
535.251	44589.74
535.451	43934.39
535.652	44577.45
535.853	43987.64
536.054	43866.81
536.255	44063.41
536.456	43819.7
536.657	44585.64
536.857	44079.8
537.058	44151.48
537.259	43926.2
537.46	44198.58
537.66	44206.77
537.861	44403.38
538.062	43875
538.263	44337.84
538.463	43725.5
538.664	44034.74
538.865	44067.51
539.065	44274.35
539.266	43825.85
539.466	44196.53
539.667	43610.81
539.868	44286.64
540.068	43954.87
540.269	43741.88
540.469	44016.31
540.67	44026.55
540.87	43719.35
541.071	43844.28
541.271	44679.85
541.472	44133.04
541.672	43580.09
541.873	43862.71
542.073	43076.29
542.274	44167.86
542.474	43659.96
542.675	43287.23
542.875	44163.76
543.075	43825.85
543.276	43203.27
543.476	44135.09
543.676	43500.22
543.877	44171.96
544.077	43745.98
544.277	43645.63
544.478	43856.57
544.678	44442.29
544.878	43868.86
545.078	43532.99
545.279	43664.06
545.479	43391.68
545.679	43922.1
545.879	44065.46
546.079	43809.46
546.28	43631.29
546.48	43627.2
546.68	44075.7
546.88	43918.01
547.08	44075.7
547.28	43813.56
547.48	43588.28
547.68	43754.17
547.88	43543.23
548.081	43539.13
548.281	43754.17
548.481	43451.07
548.681	43930.29
548.881	43743.93
549.081	43539.13
549.28	43670.2
549.48	44073.65
549.68	43299.52
549.88	44247.73
550.08	43176.64
550.28	43590.33
550.48	43627.2
550.68	43948.73
550.88	43418.3
551.08	43358.91
551.279	43825.85
551.479	43270.85
551.679	43444.93
551.879	43772.6
552.079	43600.57
552.278	43537.08
552.478	43729.59
552.678	43623.1
552.878	43594.43
553.077	43698.87
553.277	43066.05
553.477	43829.94
553.676	43446.97
553.876	43596.48
554.076	42910.41
554.275	43469.5
554.475	42402.51
554.674	43408.06
554.874	43578.04
555.074	42965.7
555.273	43092.68
555.473	43391.68
555.672	42879.69
555.872	43029.19
556.071	43307.71
556.271	43272.9
556.47	42992.33
556.67	42414.8
556.869	42773.19
557.068	43119.3
557.268	42681.03
557.467	42977.99
557.667	42900.17
557.866	43096.77
558.065	42752.71
558.265	42347.22
558.464	42615.5
558.663	42779.34
558.863	42502.86
559.062	43094.72
559.261	41677.53
559.461	42920.65
559.66	42171.09
559.859	42619.59
560.058	42113.75
560.258	42590.92
560.457	42214.1
560.656	42580.68
560.855	41927.38
561.054	42267.34
561.253	41763.54
561.453	42166.99
561.652	42037.97
561.851	41884.37
562.05	41927.38
562.249	41679.58
562.448	42304.21
562.647	41800.41
562.846	41833.17
563.045	41767.64
563.244	41593.56
563.443	41698.01
563.642	41329.37
563.841	41233.12
564.04	41132.77
564.239	41556.7
564.438	41095.91
564.637	41243.36
564.836	41444.06
565.035	41124.58
565.234	41233.12
565.432	40964.84
565.631	40954.6
565.83	40870.63
566.029	40487.66
566.228	40891.11
566.427	40741.61
566.625	40461.04
566.824	40100.59
567.023	40819.43
567.222	40010.48
567.42	40596.2
567.619	40647.4
567.818	40250.1
568.016	40428.27
568.215	40172.27
568.414	39926.52
568.612	39973.62
568.811	39987.96
569.01	39682.81
569.208	39555.83
569.407	39834.36
569.605	39021.31
569.804	39817.97
570.002	39181.06
570.201	39465.72
570.4	39586.55
570.598	39011.07
570.797	39279.36
570.995	39230.21
571.193	38707.97
571.392	39187.2
571.59	38679.3
571.789	38857.48
571.987	38753.03
572.186	38587.14
572.384	38660.87
572.582	38853.38
572.781	38853.38
572.979	38155.02
573.177	38597.38
573.376	38492.94
573.574	38208.27
573.772	38007.57
573.971	38015.76
574.169	37892.88
574.367	37835.54
574.565	37741.33
574.763	37868.31
574.962	37581.59
575.16	37286.68
575.358	37663.51
575.556	37198.62
575.754	37669.65
575.952	37090.08
576.151	37350.17
576.349	37149.47
576.547	37241.63
576.745	37192.48
576.943	36903.71
577.141	36754.21
577.339	36936.48
577.537	36623.14
577.735	36721.44
577.933	36246.32
578.131	36506.41
578.329	36424.49
578.527	36139.82
578.725	36385.58
578.923	36584.23
579.121	36062
579.319	35797.81
579.516	36221.74
579.714	36012.85
579.912	35384.12
580.11	35763
580.308	35849.01
580.506	35849.01
580.704	35271.48
580.901	35203.9
581.099	35623.73
581.297	35365.69
581.495	35189.56
581.692	35343.16
581.89	35259.2
582.088	35353.4
582.285	34863.94
582.483	35033.92
582.681	34741.06
582.878	34773.83
583.076	34429.77
583.274	34822.98
583.471	34110.28
583.669	34884.42
583.866	34401.1
584.064	34368.33
584.262	34208.59
584.459	33921.87
584.657	34057.04
584.854	34224.97
585.052	33682.26
585.249	34102.09
585.447	33477.46
585.644	33641.3
585.841	33559.38
586.039	33678.16
586.236	32824.16
586.434	33223.51
586.631	33160.03
586.828	33463.13
587.026	33256.28
587.223	32754.53
587.42	32842.59
587.618	32928.61
587.815	32506.73
588.012	32435.05
588.21	32580.45
588.407	32822.11
588.604	32365.42
588.801	32324.46
588.999	32150.38
589.196	31896.43
589.393	32203.63
589.59	32025.45
589.787	31734.64
589.984	31775.6
590.182	31648.63
590.379	31912.81
590.576	31355.77
590.773	31519.6
590.97	31572.85
591.167	31511.41
591.364	31153.02
591.561	31247.22
591.758	30905.21
591.955	31169.4
592.152	31292.28
592.349	31193.98
592.546	30966.65
592.743	31001.47
592.94	30307.21
593.137	30489.48
593.334	31054.72
593.531	29737.87
593.727	30206.86
593.924	30264.2
594.121	30176.14
594.318	30292.87
594.515	29981.58
594.712	30268.3
594.908	29670.29
595.105	30012.3
595.302	29504.4
595.499	29586.32
595.696	29782.93
595.892	29463.44
596.089	29469.59
596.286	29434.77
596.482	29258.65
596.679	29074.33
596.876	29260.69
597.072	28935.07
597.269	29141.91
597.466	28558.24
597.662	28801.95
597.859	28504.99
598.055	28775.33
598.252	28351.4
598.448	28574.63
598.645	28255.14
598.841	28277.67
599.038	28406.69
599.234	28216.23
599.431	27763.63
599.627	27872.17
599.824	28165.03
600.02	27636.66
600.217	27868.08
600.413	27415.47
600.609	27425.71
600.806	27540.4
601.002	27466.67
601.198	27403.19
601.395	27038.65
601.591	27077.56
601.787	27294.64
601.984	26872.76
602.18	27536.31
602.376	26901.43
602.572	26399.68
602.769	26796.99
602.965	26710.97
603.161	26833.85
603.357	26645.44
603.553	26516.42
603.75	26559.42
603.946	26102.73
604.142	26479.55
604.338	25973.7
604.534	26454.98
604.73	26252.23
604.926	26090.44
605.122	25924.55
605.318	25936.84
605.514	25695.18
605.71	25654.22
605.906	25441.23
606.102	25551.82
606.298	25566.16
606.494	25474
606.69	25435.09
606.886	25277.4
607.082	25144.28
607.278	25457.62
607.474	24890.33
607.67	24953.82
607.866	25048.02
608.062	25131.99
608.257	24837.08
608.453	24929.24
608.649	24996.82
608.845	24894.43
609.041	24462.3
609.236	24470.5
609.432	24544.22
609.628	24591.33
609.824	24427.49
610.019	24318.95
610.215	24388.58
610.411	24726.49
610.606	24396.77
610.802	24312.8
610.998	24724.44
611.193	24257.51
611.389	24323.04
611.584	23931.88
611.78	24075.24
611.976	24097.77
612.171	24282.08
612.367	23897.06
612.562	24216.55
612.758	23487.47
612.953	23690.22
613.149	24038.37
613.344	23815.15
613.539	24105.96
613.735	23555.05
613.93	23792.62
614.126	23452.66
614.321	23743.47
614.517	23510
614.712	23370.74
614.907	23536.62
615.103	23550.96
615.298	23325.68
615.493	23589.87
615.688	23186.42
615.884	23448.56
616.079	23018.49
616.274	23440.37
616.47	23155.7
616.665	23221.23
616.86	23024.63
617.055	23045.11
617.25	23020.53
617.445	23215.09
617.641	22795.26
617.836	23157.75
618.031	22905.85
618.226	23028.73
618.421	22725.63
618.616	22909.94
618.811	22205.44
619.006	22617.08
619.201	22199.3
619.396	22336.51
619.591	21945.35
619.786	22066.18
619.981	21744.65
620.176	21996.55
620.371	21804.04
620.566	21781.51
620.761	21650.44
620.956	21765.13
621.151	21580.81
621.346	21462.03
621.541	21191.7
621.735	21652.49
621.93	21019.67
622.125	20988.95
622.32	20646.94
622.515	21099.54
622.709	21009.43
622.904	20808.73
623.099	20595.74
623.294	20640.79
623.488	20462.62
623.683	20415.52
623.878	19971.11
624.072	20251.68
624.267	19823.65
624.462	19954.72
624.656	19919.91
624.851	19526.7
625.046	19766.31
625.24	19850.28
625.435	19446.83
625.629	19209.26
625.824	19270.7
626.018	19215.41
626.213	18789.43
626.407	19047.47
626.602	18592.83
626.796	18666.55
626.991	18676.79
627.185	18797.62
627.38	18345.02
627.574	18236.48
627.768	18056.26
627.963	18195.52
628.157	18037.83
628.352	18078.79
628.546	17656.9
628.74	17873.99
628.935	17617.99
629.129	17491.02
629.323	17335.37
629.517	17110.1
629.712	17052.75
629.906	17392.72
630.1	17134.67
630.294	17161.3
630.489	17042.51
630.683	17224.78
630.877	16768.09
631.071	16813.14
631.265	16958.55
631.459	16555.1
631.653	16563.29
631.848	16471.13
632.042	16221.28
632.236	16403.55
632.43	16032.86
632.624	16098.4
632.818	15912.03
633.012	15815.78
633.206	15656.04
633.4	15950.95
633.594	15512.68
633.788	15561.83
633.982	15563.88
634.176	15604.84
634.369	15178.86
634.563	15395.95
634.757	15197.29
634.951	15076.46
635.145	15045.74
635.339	14879.86
635.533	14873.71
635.726	15053.94
635.92	14670.97
636.114	14937.2
636.308	14607.48
636.501	14402.68
636.695	14457.98
636.889	14322.81
637.083	14589.05
637.276	14154.88
637.47	14249.08
637.664	13968.51
637.857	14173.31
638.051	14017.66
638.244	13757.57
638.438	13726.85
638.632	13796.48
638.825	13761.67
639.019	13673.6
639.212	13520.01
639.406	13286.54
639.599	13487.24
639.793	13429.9
639.986	12969.1
640.18	13218.96
640.373	13048.97
640.567	13008.01
640.76	12911.76
640.954	13173.9
641.147	12561.56
641.34	12727.44
641.534	12874.9
641.727	12594.33
641.92	12709.01
642.114	12469.4
642.307	12455.06
642.5	12432.54
642.694	12338.33
642.887	12418.2
643.08	12477.59
643.273	12430.49
643.467	12184.73
643.66	11986.08
643.853	12192.92
644.046	11971.74
644.239	11906.21
644.432	11762.85
644.626	11642.02
644.819	11623.59
645.012	11644.07
645.205	11588.77
645.398	11537.57
645.591	11408.55
645.784	11560.1
645.977	11375.78
646.17	11289.77
646.363	11193.51
646.556	11228.33
646.749	11093.16
646.942	11013.29
647.135	10867.89
647.328	10925.23
647.521	10933.42
647.714	10523.83
647.907	10892.46
648.099	10736.82
648.292	10675.38
648.485	10677.43
648.678	10448.05
648.871	10552.5
649.064	10521.78
649.256	10560.69
649.449	10654.9
649.642	10493.11
649.835	10112.19
650.027	10224.83
650.22	10364.09
650.413	10093.76
650.605	10015.93
650.798	10169.53
650.991	10007.74
651.183	10026.17
651.376	9968.83
651.568	9786.56
651.761	9964.73
651.954	9784.51
652.146	9815.23
652.339	9739.46
652.531	9583.81
652.724	9460.93
652.916	9360.58
653.109	9489.6
653.301	9518.28
653.494	9293
653.686	9333.96
653.879	9327.82
654.071	9217.22
654.263	9055.44
654.456	9125.07
654.648	9231.56
654.84	9057.48
655.033	8924.37
655.225	8774.86
655.417	8926.41
655.61	8815.82
655.802	8805.58
655.994	8762.58
656.186	8574.16
656.379	8625.36
656.571	8568.02
656.763	8608.98
656.955	8549.59
657.148	8565.97
657.34	8449.24
657.532	8307.93
657.724	8377.56
657.916	8369.37
658.108	8318.17
658.3	8217.82
658.492	8361.17
658.684	8142.04
658.876	8066.27
659.068	8326.36
659.26	7800.03
659.452	8129.75
659.644	8035.55
659.836	7808.22
660.028	7980.25
660.22	7603.43
660.412	7877.85
660.604	7675.1
660.796	7949.53
660.988	7656.67
661.18	7736.54
661.372	7732.45
661.563	7646.43
661.755	7533.79
661.947	7322.85
662.139	7367.91
662.331	7572.71
662.522	7408.87
662.714	7273.7
662.906	7324.9
663.097	7234.79
663.289	7322.85
663.481	7218.41
663.673	7363.81
663.864	7111.91
664.056	7169.26
664.247	7181.54
664.439	7017.71
664.631	7025.9
664.822	7066.86
665.014	6778.09
665.205	6966.51
665.397	6874.35
665.588	6935.79
665.78	6712.56
665.971	6692.08
666.163	6829.29
666.354	6638.83
666.546	6595.82
666.737	6618.35
666.929	6659.31
667.12	6530.29
667.311	6565.11
667.503	6481.14
667.694	6341.88
667.885	6339.83
668.077	6423.8
668.268	6325.49
668.459	6257.91
668.651	6470.9
668.842	6380.79
669.033	6329.59
669.224	6434.04
669.416	6382.84
669.607	6241.53
669.798	6219
669.989	6241.53
670.18	6126.84
670.371	6175.99
670.563	6034.68
670.754	6251.77
670.945	6073.59
671.136	6192.37
671.327	6069.5
671.518	6075.64
671.709	6051.06
671.9	5913.85
672.091	5913.85
672.282	5833.98
672.473	5786.88
672.664	5891.32
672.855	5764.35
673.046	5856.51
673.237	5840.12
673.428	5815.55
673.619	5758.21
673.809	5887.23
674	5760.25
674.191	5682.43
674.382	5704.96
674.573	5713.15
674.764	5588.22
674.954	5487.87
675.145	5483.78
675.336	5616.9
675.527	5485.83
675.717	5608.7
675.908	5373.19
676.099	5418.24
676.289	5537.02
676.48	5285.12
676.671	5373.19
676.861	5524.74
677.052	5283.08
677.243	5338.37
677.433	5283.08
677.624	5295.36
677.814	5229.83
678.005	5274.88
678.195	5205.25
678.386	5246.21
678.576	5340.42
678.767	5385.48
678.957	5168.39
679.148	5428.48
679.338	5180.68
679.529	5203.21
679.719	5199.11
679.909	5262.6
680.1	5201.16
680.29	5225.73
680.481	5168.39
680.671	5180.68
680.861	5223.69
681.052	5184.77
681.242	5000.46
681.432	5295.36
681.622	5051.66
681.813	4986.12
682.003	4979.98
682.193	5000.46
682.383	4916.49
682.573	4945.16
682.764	5049.61
682.954	4838.67
683.144	4814.09
683.334	4803.85
683.524	4885.77
683.714	4871.43
683.904	4832.52
684.094	4990.22
684.284	4879.63
684.474	4949.26
684.664	4789.52
684.854	4816.14
685.044	4658.45
685.234	4619.53
685.424	4629.77
685.614	4660.49
685.804	4615.44
685.994	4652.3
686.184	4660.49
686.374	4633.87
686.564	4672.78
686.753	4625.68
686.943	4621.58
687.133	4486.42
687.323	4623.63
687.513	4451.6
687.702	4687.12
687.892	4529.42
688.082	4443.41
688.272	4531.47
688.461	4420.88
688.651	4437.27
688.841	4429.07
689.03	4406.55
689.22	4347.15
689.41	4414.74
689.599	4246.8
689.789	4375.83
689.979	4232.47
690.168	4220.18
690.358	4205.85
690.547	4117.78
690.737	4300.05
690.926	4240.66
691.116	4154.65
691.305	4117.78
691.495	3992.86
691.684	4011.29
691.874	3978.52
692.063	4062.49
692.252	4134.17
692.442	4001.05
692.631	3941.66
692.82	4023.58
693.01	3847.45
693.199	3986.71
693.388	3880.22
693.578	3929.37
693.767	3947.8
693.956	4013.34
694.146	3947.8
694.335	3884.31
694.524	3874.07
694.713	3808.54
694.902	3814.68
695.092	3730.72
695.281	3693.85
695.47	3880.22
695.659	3740.96
695.848	3560.73
696.037	3796.25
696.226	3583.26
696.415	3548.45
696.604	3708.19
696.793	3652.89
696.982	3679.52
697.171	3622.17
697.36	3726.62
697.549	3685.66
697.738	3534.11
697.927	3599.65
698.116	3648.8
698.305	3503.39
698.494	3570.97
698.683	3579.17
698.872	3532.06
699.061	3603.74
699.25	3511.58
699.438	3618.08
699.627	3544.35
699.816	3644.7
700.005	3441.95
700.193	3392.8
700.382	3550.5
700.571	3437.86
700.76	3503.39
700.948	3491.1
701.137	3511.58
701.326	3466.53
701.514	3466.53
701.703	3417.38
701.892	3370.27
702.08	3413.28
702.269	3507.49
702.457	3476.77
702.646	3444
702.834	3351.84
703.023	3349.79
703.212	3400.99
703.4	3357.99
703.589	3403.04
703.777	3421.47
703.965	3329.31
704.154	3423.52
704.342	3343.65
704.531	3370.27
704.719	3493.15
704.907	3300.64
705.096	3329.31
705.284	3292.45
705.472	3351.84
705.661	3357.99
705.849	3257.64
706.037	3296.55
706.226	3345.7
706.414	3325.22
706.602	3261.73
706.79	3171.62
706.979	3296.55
707.167	3317.03
707.355	3196.2
707.543	3374.37
707.731	3312.93
707.919	3302.69
708.107	3362.08
708.296	3216.68
708.484	3239.2
708.672	3251.49
708.86	3210.53
709.048	3325.22
709.236	3298.59
709.424	3169.57
709.612	3276.07
709.8	3296.55
709.988	3104.04
710.176	3298.59
710.364	3261.73
710.551	3362.08
710.739	3245.35
710.927	3249.44
711.115	3224.87
711.303	3327.27
711.491	3341.6
711.679	3093.8
711.866	3067.17
712.054	3257.64
712.242	3181.86
712.43	3220.77
712.617	3140.9
712.805	3360.03
712.993	3245.35
713.181	3276.07
713.368	3083.56
713.556	3231.01
713.744	3274.02
713.931	3161.38
714.119	3179.81
714.306	3235.11
714.494	3099.94
714.682	3249.44
714.869	3210.53
715.057	3245.35
715.244	3075.37
715.432	3282.21
715.619	3183.91
715.807	3216.68
715.994	3159.33
716.182	3159.33
716.369	3097.89
716.556	3271.97
716.744	3050.79
716.931	2995.5
717.119	3269.92
717.306	3269.92
717.493	3138.85
717.681	3153.19
717.868	3134.76
718.055	3251.49
718.242	3126.57
718.43	3175.72
718.617	3202.34
718.804	3136.81
718.991	3130.66
719.179	2979.11
719.366	3114.28
719.553	3038.5
719.74	3083.56
719.927	3099.94
720.114	3173.67
720.301	3130.66
720.488	3116.33
720.676	3007.78
720.863	3001.64
721.05	3120.42
721.237	3161.38
721.424	3179.81
721.611	3091.75
721.798	3173.67
721.985	2929.96
722.172	3149.09
722.358	3218.72
722.545	2964.78
722.732	3110.18
722.919	3097.89
723.106	3077.41
723.293	3157.29
723.48	3079.46
723.667	3071.27
723.853	3034.41
724.04	3145
724.227	2995.5
724.414	3013.93
724.6	3056.93
724.787	3128.61
724.974	2975.02
725.161	3058.98
725.347	3018.02
725.534	3038.5
725.72	3024.17
725.907	3145
726.094	2977.06
726.28	3044.65
726.467	3030.31
726.653	3040.55
726.84	3040.55
727.027	3077.41
727.213	2977.06
727.4	3073.32
727.586	3097.89
727.773	3116.33
727.959	3202.34
728.145	3079.46
728.332	3005.74
728.518	2979.11
728.705	3056.93
728.891	3050.79
729.077	3003.69
729.264	2940.2
729.45	3058.98
729.636	2934.06
729.823	2985.26
730.009	2948.39
730.195	3083.56
730.382	3024.17
730.568	3116.33
730.754	3028.26
730.94	2862.38
731.126	3034.41
731.313	3101.99
731.499	2921.77
731.685	3050.79
731.871	3003.69
732.057	2993.45
732.243	3071.27
732.429	2966.82
732.615	3015.98
732.801	2960.68
732.987	2956.58
733.173	3085.61
733.359	2995.5
733.545	3097.89
733.731	2932.01
733.917	3065.13
734.103	3015.98
734.289	2950.44
734.475	2956.58
734.661	2952.49
734.847	2962.73
735.033	3001.64
735.219	2942.25
735.404	3022.12
735.59	3048.74
735.776	2866.47
735.962	3040.55
736.148	2940.2
736.333	2866.47
736.519	3028.26
736.705	3106.09
736.89	3030.31
737.076	2889
737.262	2934.06
737.447	3046.69
737.633	2925.86
737.819	2807.08
738.004	2948.39
738.19	2972.97
738.375	2692.4
738.561	2811.18
738.747	2964.78
738.932	2899.24
739.118	2889
739.303	2833.71
739.489	2776.36
739.674	2868.52
739.859	2866.47
740.045	2786.6
740.23	2762.03
740.416	2645.29
740.601	2856.23
740.786	2725.16
740.972	2790.7
741.157	2706.73
741.342	2782.51
741.528	2688.3
741.713	2731.31
741.898	2782.51
742.084	2751.79
742.269	2782.51
742.454	2889
742.639	2716.97
742.824	2559.28
743.01	2710.83
743.195	2725.16
743.38	2688.3
743.565	2659.63
743.75	2696.49
743.935	2633.01
744.12	2708.78
744.305	2590
744.49	2661.68
744.675	2577.71
744.86	2528.56
745.045	2516.27
745.23	2600.24
745.415	2495.79
745.6	2512.18
745.785	2508.08
745.97	2499.89
746.155	2499.89
746.34	2458.93
746.525	2448.69
746.71	2503.98
746.895	2508.08
747.079	2463.02
747.264	2426.16
747.449	2358.58
747.634	2440.5
747.819	2305.33
748.003	2372.91
748.188	2342.19
748.373	2370.87
748.557	2278.71
748.742	2379.06
748.927	2276.66
749.111	2207.03
749.296	2295.09
749.481	2377.01
749.665	2276.66
749.85	2239.8
750.034	2225.46
750.219	2080.05
750.404	2116.92
750.588	2168.12
750.773	2110.77
750.957	2151.73
751.141	2123.06
751.326	2000.18
751.51	2078.01
751.695	2239.8
751.879	2129.2
752.064	2221.36
752.248	1910.07
752.432	2006.33
752.617	2014.52
752.801	1959.22
752.985	1918.26
753.17	1985.85
753.354	1987.89
753.538	2016.57
753.722	1883.45
753.907	1867.06
754.091	1971.51
754.275	1922.36
754.459	1955.13
754.643	1873.21
754.828	1822.01
755.012	1830.2
755.196	1768.76
755.38	1805.63
755.564	1719.61
755.748	1723.71
755.932	1822.01
756.116	1742.14
756.3	1735.99
756.484	1762.62
756.668	1742.14
756.852	1584.45
757.036	1606.97
757.22	1746.23
757.404	1701.18
757.588	1645.88
757.772	1813.82
757.956	1713.47
758.14	1770.81
758.323	1586.49
758.507	1594.68
758.691	1598.78
758.875	1498.43
759.059	1639.74
759.242	1527.1
759.426	1488.19
759.61	1506.62
759.794	1523.01
759.977	1494.33
760.161	1549.63
760.345	1510.72
760.528	1434.94
760.712	1426.75
760.895	1471.81
761.079	1496.38
761.263	1459.52
761.446	1398.08
761.63	1445.18
761.813	1447.23
761.997	1494.33
762.18	1570.11
762.364	1465.66
762.547	1355.07
762.731	1402.18
762.914	1373.5
763.098	1389.89
763.281	1383.74
763.464	1299.78
763.648	1361.22
763.831	1441.09
764.015	1328.45
764.198	1318.21
764.381	1334.59
764.564	1371.46
764.748	1291.59
764.931	1338.69
765.114	1312.07
765.297	1199.43
765.481	1211.71
765.664	1275.2
765.847	1283.39
766.03	1258.82
766.213	1428.8
766.397	1277.25
766.58	1242.43
766.763	1176.9
766.946	1203.52
767.129	1201.47
767.312	1144.13
767.495	1224
767.678	1183.04
767.861	1269.06
768.044	1205.57
768.227	1170.76
768.41	1158.47
768.593	1113.41
768.776	1226.05
768.959	1119.56
769.142	1152.32
769.324	1215.81
769.507	1142.08
769.69	1252.67
769.873	1123.65
770.056	1135.94
770.239	1111.36
770.421	1238.34
770.604	1135.94
770.787	1031.49
770.97	1142.08
771.152	1129.8
771.335	1097.03
771.518	1154.37
771.7	1140.04
771.883	1109.32
772.066	984.39
772.248	1117.51
772.431	1047.88
772.613	1078.6
772.796	1033.54
772.978	1023.3
773.161	1074.5
773.343	1068.36
773.526	953.67
773.708	1068.36
773.891	955.72
774.073	963.91
774.256	986.44
774.438	1031.49
774.621	1047.88
774.803	918.86
774.985	951.62
775.168	906.57
775.35	982.34
775.532	986.44
775.715	945.48
775.897	886.09
776.079	931.14
776.261	972.1
776.444	982.34
776.626	853.32
776.808	869.7
776.99	865.61
777.173	834.89
777.355	867.66
777.537	857.42
777.719	898.38
777.901	828.74
778.083	812.36
778.265	800.07
778.447	927.05
778.629	773.45
778.811	914.76
778.993	732.49
779.175	795.98
779.357	798.03
779.539	826.7
779.721	804.17
779.903	828.74
780.085	697.67
780.267	800.07
780.449	787.79
780.631	687.43
780.812	851.27
780.994	726.35
781.176	795.98
781.358	785.74
781.54	783.69
781.721	712.01
781.903	722.25
782.085	712.01
782.267	666.96
782.448	675.15
782.63	718.15
782.812	615.76
782.993	654.67
783.175	634.19
783.357	638.28
783.538	720.2
783.72	683.34
783.901	687.43
784.083	716.11
784.264	597.32
784.446	544.08
784.627	486.73
784.809	656.72
784.99	572.75
785.172	626
785.353	574.8
785.535	589.13
785.716	626
785.897	474.45
786.079	603.47
786.26	554.32
786.441	572.75
786.623	546.12
786.804	470.35
786.985	566.6
787.167	542.03
787.348	613.71
787.529	632.14
787.71	550.22
787.891	523.6
788.073	556.36
788.254	519.5
788.435	568.65
788.616	535.89
788.797	535.89
788.978	511.31
789.159	476.49
789.34	544.08
789.522	517.45
789.703	458.06
789.884	531.79
790.065	496.97
790.246	501.07
790.427	413.01
790.607	453.97
790.788	492.88
790.969	421.2
791.15	460.11
791.331	427.34
791.512	423.25
791.693	449.87
791.874	431.44
792.054	480.59
792.235	441.68
792.416	394.58
792.597	386.38
792.778	408.91
792.958	394.58
793.139	361.81
793.32	427.34
793.5	370
793.681	400.72
793.862	390.48
794.042	410.96
794.223	390.48
794.404	476.49
794.584	396.62
794.765	431.44
794.945	380.24
795.126	378.19
795.306	384.34
795.487	365.9
795.667	402.77
795.848	363.86
796.028	398.67
796.209	300.37
796.389	433.49
796.57	382.29
796.75	380.24
796.93	370
797.111	339.28
797.291	353.62
797.471	300.37
797.652	351.57
797.832	310.61
798.012	255.31
798.192	339.28
798.373	296.27
798.553	357.71
798.733	404.82
798.913	341.33
799.093	329.04
799.274	296.27
799.454	433.49
799.634	378.19
799.814	365.9
799.994	390.48
800.174	374.1
800.354	415.05
800.534	245.07
800.714	281.94
800.894	329.04
801.074	281.94
801.254	249.17
801.434	271.7
801.614	228.69
801.794	200.02
801.974	701.77
802.154	294.22
802.334	279.89
802.514	261.46
802.693	277.84
802.873	324.94
803.053	349.52
803.233	204.11
803.413	333.14
803.592	290.13
803.772	265.55
803.952	335.18
804.131	187.73
804.311	288.08
804.491	269.65
804.67	273.75
804.85	267.6
805.03	253.27
805.209	283.98
805.389	320.85
805.568	238.93
805.748	283.98
805.928	255.31
806.107	347.47
806.287	331.09
806.466	269.65
806.646	243.03
806.825	247.12
807.004	245.07
807.184	245.07
807.363	247.12
807.543	281.94
807.722	238.93
807.901	283.98
808.081	267.6
808.26	245.07
808.439	251.22
808.619	333.14
808.798	251.22
808.977	253.27
809.156	220.5
809.336	202.07
809.515	212.31
809.694	228.69
809.873	206.16
810.052	228.69
810.231	206.16
810.411	277.84
810.59	179.54
810.769	228.69
810.948	177.49
811.127	109.91
811.306	226.64
811.485	204.11
811.664	275.79
811.843	177.49
812.022	185.68
812.201	191.83
812.38	189.78
812.559	208.21
812.737	152.91
812.916	140.63
813.095	138.58
813.274	191.83
813.453	169.3
813.632	144.72
813.811	251.22
813.989	234.83
814.168	263.51
814.347	226.64
814.526	175.44
814.704	259.41
814.883	300.37
815.062	140.63
815.24	161.11
815.419	173.39
815.598	167.25
815.776	195.92
815.955	183.63
816.133	140.63
816.312	161.11
816.49	154.96
816.669	177.49
816.847	142.68
817.026	200.02
817.204	97.62
817.383	171.35
817.561	118.1
817.74	275.79
817.918	130.39
818.097	120.15
818.275	97.62
818.453	261.46
818.632	136.53
818.81	238.93
818.988	97.62
819.167	161.11
819.345	122.2
819.523	179.54
819.701	111.96
819.879	179.54
820.058	163.15
820.236	195.92
820.414	103.76
820.592	138.58
820.77	140.63
820.948	152.91
821.127	134.48
821.305	226.64
821.483	122.2
821.661	177.49
821.839	99.67
822.017	140.63
822.195	165.2
822.373	175.44
822.551	187.73
822.729	191.83
822.907	230.74
823.085	132.44
823.262	101.72
823.44	116.05
823.618	77.14
823.796	103.76
823.974	97.62
824.152	136.53
824.329	85.33
824.507	148.82
824.685	163.15
824.863	171.35
825.04	87.38
825.218	109.91
825.396	142.68
825.574	109.91
825.751	126.29
825.929	191.83
826.107	130.39
826.284	136.53
826.462	91.48
826.639	157.01
826.817	75.09
826.994	114
827.172	103.76
827.349	163.15
827.527	161.11
827.704	132.44
827.882	144.72
828.059	136.53
828.237	85.33
828.414	140.63
828.591	64.85
828.769	56.66
828.946	73.04
829.124	130.39
829.301	52.56
829.478	56.66
829.655	154.96
829.833	159.06
830.01	136.53
830.187	105.81
830.364	58.71
830.542	89.43
830.719	128.34
830.896	134.48
831.073	116.05
831.25	91.48
831.427	120.15
831.604	138.58
831.782	150.87
831.959	87.38
832.136	38.23
832.313	122.2
832.49	42.32
832.667	120.15
832.844	128.34
833.021	111.96
833.198	60.76
833.374	128.34
833.551	23.89
833.728	97.62
833.905	77.14
834.082	120.15
834.259	83.28
834.436	99.67
834.612	167.25
834.789	77.14
834.966	32.08
835.143	87.38
835.319	83.28
835.496	173.39
835.673	77.14
835.85	130.39
836.026	75.09
836.203	79.19
836.38	62.8
836.556	60.76
836.733	34.13
836.909	105.81
837.086	58.71
837.262	99.67
837.439	-2.73
837.616	103.76
837.792	27.99
837.968	60.76
838.145	42.32
838.321	50.52
838.498	124.24
838.674	111.96
838.851	157.01
839.027	91.48
839.203	79.19
839.38	107.86
839.556	73.04
839.732	58.71
839.909	62.8
840.085	30.04
840.261	114
840.437	-4.78
840.614	99.67
840.79	48.47
840.966	93.52
841.142	75.09
841.318	30.04
841.494	87.38
841.671	58.71
841.847	1.37
842.023	40.28
842.199	101.72
842.375	81.24
842.551	54.61
842.727	-8.87
842.903	128.34
843.079	-2.73
843.255	93.52
843.431	148.82
843.607	107.86
843.783	-4.78
843.959	30.04
844.134	50.52
844.31	79.19
844.486	128.34
844.662	25.94
844.838	95.57
845.013	97.62
845.189	52.56
845.365	126.29
845.541	42.32
845.716	148.82
845.892	-4.78
846.068	36.18
846.244	87.38
846.419	89.43
846.595	60.76
846.77	93.52
846.946	17.75
847.122	111.96
847.297	25.94
847.473	124.24
847.648	40.28
847.824	21.84
847.999	87.38
848.175	140.63
848.35	34.13
848.526	107.86
848.701	27.99
848.876	79.19
849.052	38.23
849.227	52.56
849.403	103.76
849.578	62.8
849.753	32.08
849.929	44.37
850.104	-25.26
850.279	130.39
850.454	46.42
850.63	3.41
850.805	116.05
850.98	52.56
851.155	83.28
851.33	52.56
851.505	5.46
851.681	87.38
851.856	21.84
852.031	-29.35
852.206	21.84
852.381	58.71
852.556	60.76
852.731	46.42
852.906	1.37
853.081	27.99
853.256	77.14
853.431	17.75
853.606	62.8
853.781	40.28
853.956	68.95
854.131	93.52
854.305	1.37
854.48	-2.73
854.655	27.99
854.83	-15.02
855.005	7.51
855.18	97.62
855.354	60.76
855.529	56.66
855.704	3.41
855.879	118.1
856.053	56.66
856.228	25.94
856.403	36.18
856.577	44.37
856.752	-31.4
856.926	-12.97
857.101	19.8
857.276	64.85
857.45	128.34
857.625	66.9
857.799	-12.97
857.974	-12.97
858.148	36.18
858.323	-43.69
858.497	32.08
858.672	19.8
858.846	-6.83
859.02	101.72
859.195	34.13
859.369	56.66
859.543	56.66
859.718	66.9
859.892	-41.64
860.066	25.94
860.241	157.01
860.415	46.42
860.589	30.04
860.763	54.61
860.938	27.99
861.112	66.9
861.286	89.43
861.46	-4.78
861.634	36.18
861.808	99.67
861.982	48.47
862.157	118.1
862.331	17.75
862.505	19.8
862.679	-33.45
862.853	21.84
863.027	11.61
863.201	46.42
863.375	81.24
863.549	32.08
863.722	60.76
863.896	140.63
864.07	54.61
864.244	1.37
864.418	7.51
864.592	52.56
864.766	38.23
864.939	13.65
865.113	-2.73
865.287	89.43
865.461	-33.45
865.634	56.66
865.808	48.47
865.982	54.61
866.156	-39.59
866.329	-43.69
866.503	13.65
866.676	17.75
866.85	36.18
867.024	46.42
867.197	-33.45
867.371	3.41
867.544	40.28
867.718	38.23
867.891	50.52
868.065	75.09
868.238	19.8
868.412	124.24
868.585	9.56
868.759	9.56
868.932	-15.02
869.105	32.08
869.279	13.65
869.452	21.84
869.625	34.13
869.799	34.13
869.972	-47.79
870.145	42.32
870.319	79.19
870.492	25.94
870.665	-19.11
870.838	60.76
871.011	-10.92
871.185	-25.26
871.358	-39.59
871.531	40.28
871.704	-6.83
871.877	85.33
872.05	3.41
872.223	5.46
872.396	75.09
872.569	3.41
872.742	-8.87
872.915	44.37
873.088	-4.78
873.261	38.23
873.434	-27.31
873.607	7.51
873.78	34.13
873.953	-17.07
874.126	48.47
874.299	95.57
874.471	50.52
874.644	60.76
874.817	-23.21
874.99	46.42
875.163	17.75
875.335	38.23
875.508	-10.92
875.681	38.23
875.853	13.65
876.026	-12.97
876.199	15.7
876.371	42.32
876.544	79.19
876.717	13.65
876.889	-25.26
877.062	7.51
877.234	-39.59
877.407	64.85
877.579	44.37
877.752	50.52
877.924	-8.87
878.097	-31.4
878.269	73.04
878.442	25.94
878.614	25.94
878.786	34.13
878.959	-0.68
879.131	1.37
879.303	54.61
879.476	66.9
879.648	46.42
879.82	79.19
879.993	-0.68
880.165	-12.97
880.337	38.23
880.509	44.37
880.681	23.89
880.854	17.75
881.026	-33.45
881.198	73.04
881.37	7.51
881.542	-4.78
881.714	87.38
881.886	-0.68
882.058	-21.16
882.23	103.76
882.402	30.04
882.574	-12.97
882.746	5.46
882.918	27.99
883.09	7.51
883.262	-25.26
883.434	13.65
883.606	-33.45
883.778	-2.73
883.95	79.19
884.122	-45.74
884.293	1.37
884.465	-21.16
884.637	62.8
884.809	-58.03
884.98	128.34
885.152	-47.79
885.324	46.42
885.496	3.41
885.667	-27.31
885.839	21.84
886.011	95.57
886.182	23.89
886.354	32.08
886.525	34.13
886.697	25.94
886.869	-45.74
887.04	32.08
887.212	11.61
887.383	111.96
887.555	-10.92
887.726	-23.21
887.897	-29.35
888.069	-6.83
888.24	-17.07
888.412	-15.02
888.583	17.75
888.754	-19.11
888.926	19.8
889.097	21.84
889.268	-37.55
889.44	64.85
889.611	-86.7
889.782	1.37
889.953	56.66
890.125	52.56
890.296	-53.93
890.467	27.99
890.638	-43.69
890.809	-72.36
890.98	-0.68
891.151	56.66
891.323	42.32
891.494	-49.83
891.665	44.37
891.836	68.95
892.007	44.37
892.178	79.19
892.349	-12.97
892.52	40.28
892.691	9.56
892.862	42.32
893.032	17.75
893.203	-23.21
893.374	-8.87
893.545	21.84
893.716	25.94
893.887	23.89
894.057	-0.68
894.228	17.75
894.399	62.8
894.57	15.7
894.74	-15.02
894.911	-4.78
895.082	-72.36
895.253	-58.03
895.423	-4.78
895.594	44.37
895.764	19.8
895.935	-12.97
896.106	83.28
896.276	19.8
896.447	-0.68
896.617	-49.83
896.788	-23.21
896.958	-17.07
897.129	46.42
897.299	-10.92
897.47	19.8
897.64	7.51
897.81	19.8
897.981	36.18
898.151	-21.16
898.322	-8.87
898.492	52.56
898.662	-70.31
898.832	-86.7
899.003	11.61
899.173	-10.92
899.343	17.75
899.513	11.61
