Data from USB4F104151__9__12-26-58-357.txt Node

Date: Fri Mar 14 12:26:58 EDT 2025
User: louis
Spectrometer: USB4F10415
Trigger mode: 4
Integration Time (sec): 2.000000E-2
Scans to average: 1
Electric dark correction enabled: true
Nonlinearity correction enabled: false
Boxcar width: 0
XAxis mode: Wavelengths
Number of Pixels in Spectrum: 3648
>>>>>Begin Spectral Data<<<<<
178.204	-99.67
178.424	-99.67
178.644	-99.67
178.864	-50.52
179.084	6.83
179.304	-1.37
179.524	-42.32
179.744	12.97
179.964	2.73
180.184	17.07
180.404	0.68
180.624	53.93
180.844	-50.52
181.064	-56.66
181.283	25.26
181.503	4.78
181.723	33.45
181.943	-5.46
182.163	-27.99
182.383	4.78
182.602	10.92
182.822	53.93
183.042	-11.61
183.262	29.35
183.482	51.88
183.701	39.59
183.921	2.73
184.141	6.83
184.361	49.83
184.58	105.13
184.8	74.41
185.02	-23.89
185.239	10.92
185.459	-9.56
185.679	115.37
185.898	68.27
186.118	-11.61
186.338	-34.13
186.557	66.22
186.777	68.27
186.997	-15.7
187.216	64.17
187.436	31.4
187.655	49.83
187.875	45.74
188.095	12.97
188.314	92.84
188.534	0.68
188.753	6.83
188.973	80.55
189.192	-7.51
189.412	31.4
189.631	25.26
189.851	15.02
190.07	66.22
190.29	15.02
190.509	66.22
190.729	84.65
190.948	76.46
191.168	107.18
191.387	41.64
191.607	-5.46
191.826	58.03
192.045	-38.23
192.265	39.59
192.484	49.83
192.704	25.26
192.923	15.02
193.142	25.26
193.362	82.6
193.581	55.98
193.8	84.65
194.02	17.07
194.239	47.79
194.458	51.88
194.678	15.02
194.897	6.83
195.116	-17.75
195.335	39.59
195.555	105.13
195.774	78.51
195.993	117.42
196.212	19.11
196.432	-17.75
196.651	19.11
196.87	47.79
197.089	113.32
197.308	41.64
197.528	-13.65
197.747	-15.7
197.966	21.16
198.185	43.69
198.404	-11.61
198.623	43.69
198.842	21.16
199.062	17.07
199.281	45.74
199.5	86.7
199.719	74.41
199.938	17.07
200.157	84.65
200.376	68.27
200.595	29.35
200.814	43.69
201.033	37.55
201.252	25.26
201.471	19.11
201.69	62.12
201.909	31.4
202.128	92.84
202.347	15.02
202.566	96.94
202.785	10.92
203.004	64.17
203.223	8.87
203.442	10.92
203.661	-13.65
203.879	-3.41
204.098	64.17
204.317	31.4
204.536	78.51
204.755	39.59
204.974	31.4
205.193	35.5
205.411	135.85
205.63	-7.51
205.849	68.27
206.068	33.45
206.287	-9.56
206.505	113.32
206.724	23.21
206.943	-15.7
207.162	103.08
207.381	82.6
207.599	35.5
207.818	25.26
208.037	15.02
208.255	78.51
208.474	62.12
208.693	23.21
208.911	29.35
209.13	146.09
209.349	37.55
209.567	49.83
209.786	19.11
210.005	74.41
210.223	49.83
210.442	43.69
210.661	-11.61
210.879	45.74
211.098	78.51
211.316	141.99
211.535	-15.7
211.753	-5.46
211.972	33.45
212.191	49.83
212.409	47.79
212.628	84.65
212.846	12.97
213.065	29.35
213.283	-42.32
213.502	45.74
213.72	72.36
213.938	-13.65
214.157	-48.47
214.375	21.16
214.594	98.99
214.812	33.45
215.031	62.12
215.249	25.26
215.467	82.6
215.686	49.83
215.904	137.9
216.122	119.46
216.341	62.12
216.559	-21.85
216.778	27.31
216.996	47.79
217.214	-7.51
217.432	62.12
217.651	-40.28
217.869	31.4
218.087	15.02
218.306	47.79
218.524	-15.7
218.742	12.97
218.96	-1.37
219.179	72.36
219.397	78.51
219.615	66.22
219.833	68.27
220.051	6.83
220.27	66.22
220.488	64.17
220.706	80.55
220.924	23.21
221.142	6.83
221.36	37.55
221.578	62.12
221.796	90.79
222.015	-54.61
222.233	17.07
222.451	90.79
222.669	-13.65
222.887	45.74
223.105	86.7
223.323	45.74
223.541	10.92
223.759	39.59
223.977	-13.65
224.195	68.27
224.413	78.51
224.631	72.36
224.849	96.94
225.067	41.64
225.285	21.16
225.503	-15.7
225.721	-52.56
225.939	23.21
226.157	33.45
226.375	121.51
226.592	33.45
226.81	25.26
227.028	82.6
227.246	-15.7
227.464	15.02
227.682	76.46
227.9	-5.46
228.117	43.69
228.335	2.73
228.553	45.74
228.771	15.02
228.989	66.22
229.206	92.84
229.424	-3.41
229.642	58.03
229.86	12.97
230.077	8.87
230.295	86.7
230.513	90.79
230.731	33.45
230.948	27.31
231.166	55.98
231.384	31.4
231.601	76.46
231.819	76.46
232.037	49.83
232.254	-21.85
232.472	70.31
232.689	-27.99
232.907	45.74
233.125	-30.04
233.342	35.5
233.56	62.12
233.777	49.83
233.995	70.31
234.213	-27.99
234.43	39.59
234.648	72.36
234.865	6.83
235.083	23.21
235.3	39.59
235.518	64.17
235.735	-15.7
235.953	43.69
236.17	72.36
236.388	53.93
236.605	6.83
236.822	70.31
237.04	74.41
237.257	78.51
237.475	68.27
237.692	84.65
237.909	21.16
238.127	-27.99
238.344	-44.37
238.562	10.92
238.779	33.45
238.996	-38.23
239.214	98.99
239.431	53.93
239.648	29.35
239.865	80.55
240.083	88.75
240.3	19.11
240.517	-5.46
240.735	21.16
240.952	43.69
241.169	66.22
241.386	27.31
241.603	66.22
241.821	49.83
242.038	27.31
242.255	39.59
242.472	64.17
242.689	-5.46
242.907	64.17
243.124	4.78
243.341	37.55
243.558	12.97
243.775	6.83
243.992	4.78
244.209	43.69
244.426	88.75
244.643	15.02
244.86	-19.8
245.078	72.36
245.295	-44.37
245.512	25.26
245.729	6.83
245.946	64.17
246.163	4.78
246.38	88.75
246.597	17.07
246.814	55.98
247.031	4.78
247.248	68.27
247.464	105.13
247.681	47.79
247.898	-13.65
248.115	47.79
248.332	6.83
248.549	72.36
248.766	55.98
248.983	137.9
249.2	68.27
249.417	27.31
249.633	86.7
249.85	96.94
250.067	107.18
250.284	17.07
250.501	88.75
250.717	41.64
250.934	58.03
251.151	35.5
251.368	49.83
251.585	23.21
251.801	27.31
252.018	29.35
252.235	84.65
252.451	43.69
252.668	-23.89
252.885	31.4
253.102	64.17
253.318	-30.04
253.535	-13.65
253.752	-11.61
253.968	33.45
254.185	55.98
254.401	-36.18
254.618	33.45
254.835	58.03
255.051	2.73
255.268	68.27
255.484	23.21
255.701	94.89
255.917	47.79
256.134	27.31
256.351	49.83
256.567	49.83
256.784	6.83
257	-15.7
257.217	45.74
257.433	33.45
257.65	70.31
257.866	60.07
258.082	-34.13
258.299	53.93
258.515	119.46
258.732	-15.7
258.948	37.55
259.165	47.79
259.381	29.35
259.597	72.36
259.814	10.92
260.03	-3.41
260.246	-9.56
260.463	12.97
260.679	35.5
260.895	49.83
261.112	49.83
261.328	-1.37
261.544	25.26
261.761	80.55
261.977	12.97
262.193	62.12
262.409	-13.65
262.626	8.87
262.842	90.79
263.058	64.17
263.274	-32.08
263.49	35.5
263.707	68.27
263.923	74.41
264.139	-42.32
264.355	19.11
264.571	62.12
264.787	113.32
265.004	37.55
265.22	66.22
265.436	49.83
265.652	74.41
265.868	98.99
266.084	-42.32
266.3	23.21
266.516	84.65
266.732	76.46
266.948	-7.51
267.164	55.98
267.38	37.55
267.596	70.31
267.812	29.35
268.028	17.07
268.244	-17.75
268.46	-25.94
268.676	25.26
268.892	70.31
269.108	33.45
269.324	29.35
269.54	88.75
269.756	37.55
269.972	53.93
270.188	35.5
270.403	103.08
270.619	88.75
270.835	25.26
271.051	84.65
271.267	23.21
271.483	10.92
271.698	66.22
271.914	15.02
272.13	10.92
272.346	-52.56
272.562	53.93
272.777	88.75
272.993	64.17
273.209	-32.08
273.425	55.98
273.64	31.4
273.856	84.65
274.072	4.78
274.287	60.07
274.503	55.98
274.719	84.65
274.934	29.35
275.15	47.79
275.366	96.94
275.581	51.88
275.797	25.26
276.012	-3.41
276.228	68.27
276.444	53.93
276.659	-3.41
276.875	4.78
277.09	72.36
277.306	74.41
277.521	60.07
277.737	72.36
277.952	47.79
278.168	111.27
278.383	88.75
278.599	64.17
278.814	15.02
279.03	-36.18
279.245	70.31
279.461	121.51
279.676	2.73
279.892	37.55
280.107	-5.46
280.322	8.87
280.538	58.03
280.753	10.92
280.969	103.08
281.184	55.98
281.399	82.6
281.615	31.4
281.83	131.75
282.045	-9.56
282.26	8.87
282.476	21.16
282.691	90.79
282.906	21.16
283.122	121.51
283.337	6.83
283.552	47.79
283.767	8.87
283.983	39.59
284.198	12.97
284.413	127.66
284.628	119.46
284.843	27.31
285.058	4.78
285.274	58.03
285.489	94.89
285.704	37.55
285.919	8.87
286.134	66.22
286.349	45.74
286.564	47.79
286.779	66.22
286.995	15.02
287.21	33.45
287.425	37.55
287.64	41.64
287.855	58.03
288.07	82.6
288.285	64.17
288.5	74.41
288.715	98.99
288.93	64.17
289.145	10.92
289.36	17.07
289.575	29.35
289.79	51.88
290.004	115.37
290.219	62.12
290.434	15.02
290.649	111.27
290.864	62.12
291.079	45.74
291.294	-11.61
291.509	12.97
291.724	72.36
291.938	66.22
292.153	119.46
292.368	8.87
292.583	58.03
292.798	113.32
293.012	82.6
293.227	70.31
293.442	43.69
293.657	21.16
293.871	8.87
294.086	15.02
294.301	37.55
294.516	66.22
294.73	37.55
294.945	23.21
295.16	47.79
295.374	53.93
295.589	55.98
295.804	25.26
296.018	47.79
296.233	35.5
296.447	17.07
296.662	33.45
296.877	19.11
297.091	113.32
297.306	-34.13
297.52	19.11
297.735	105.13
297.949	58.03
298.164	82.6
298.378	-1.37
298.593	4.78
298.807	-32.08
299.022	49.83
299.236	58.03
299.451	94.89
299.665	80.55
299.88	-3.41
300.094	-3.41
300.309	21.16
300.523	80.55
300.737	37.55
300.952	-25.94
301.166	51.88
301.381	27.31
301.595	90.79
301.809	33.45
302.024	41.64
302.238	109.22
302.452	53.93
302.667	-58.71
302.881	68.27
303.095	49.83
303.309	62.12
303.524	25.26
303.738	47.79
303.952	60.07
304.166	64.17
304.381	49.83
304.595	66.22
304.809	49.83
305.023	47.79
305.237	-13.65
305.452	62.12
305.666	33.45
305.88	88.75
306.094	47.79
306.308	113.32
306.522	12.97
306.736	62.12
306.95	101.03
307.164	47.79
307.379	8.87
307.593	92.84
307.807	49.83
308.021	80.55
308.235	119.46
308.449	51.88
308.663	62.12
308.877	131.75
309.091	86.7
309.305	70.31
309.519	70.31
309.733	55.98
309.947	-11.61
310.161	84.65
310.374	53.93
310.588	94.89
310.802	21.16
311.016	10.92
311.23	19.11
311.444	115.37
311.658	-7.51
311.872	76.46
312.085	96.94
312.299	15.02
312.513	2.73
312.727	-23.89
312.941	10.92
313.154	19.11
313.368	115.37
313.582	90.79
313.796	98.99
314.009	76.46
314.223	74.41
314.437	33.45
314.651	39.59
314.864	19.11
315.078	150.18
315.292	60.07
315.505	23.21
315.719	15.02
315.933	-3.41
316.146	74.41
316.36	27.31
316.573	27.31
316.787	105.13
317.001	72.36
317.214	-34.13
317.428	39.59
317.641	17.07
317.855	6.83
318.068	45.74
318.282	39.59
318.495	76.46
318.709	125.61
318.922	19.11
319.136	101.03
319.349	119.46
319.563	29.35
319.776	94.89
319.99	-64.85
320.203	76.46
320.417	76.46
320.63	-19.8
320.843	88.75
321.057	15.02
321.27	0.68
321.483	47.79
321.697	33.45
321.91	39.59
322.124	66.22
322.337	39.59
322.55	15.02
322.763	62.12
322.977	51.88
323.19	45.74
323.403	107.18
323.617	76.46
323.83	47.79
324.043	-3.41
324.256	31.4
324.469	-3.41
324.683	58.03
324.896	12.97
325.109	111.27
325.322	8.87
325.535	-13.65
325.748	33.45
325.962	10.92
326.175	31.4
326.388	58.03
326.601	8.87
326.814	-1.37
327.027	15.02
327.24	94.89
327.453	62.12
327.666	92.84
327.879	23.21
328.092	-3.41
328.305	66.22
328.518	37.55
328.731	23.21
328.944	60.07
329.157	33.45
329.37	101.03
329.583	80.55
329.796	15.02
330.009	-3.41
330.222	58.03
330.435	72.36
330.648	8.87
330.861	19.11
331.073	35.5
331.286	41.64
331.499	-1.37
331.712	45.74
331.925	109.22
332.138	68.27
332.35	82.6
332.563	55.98
332.776	80.55
332.989	62.12
333.202	29.35
333.414	74.41
333.627	70.31
333.84	92.84
334.053	-7.51
334.265	31.4
334.478	19.11
334.691	76.46
334.903	80.55
335.116	17.07
335.329	-68.95
335.541	68.27
335.754	84.65
335.966	27.31
336.179	41.64
336.392	10.92
336.604	43.69
336.817	60.07
337.029	66.22
337.242	84.65
337.454	76.46
337.667	-36.18
337.88	21.16
338.092	23.21
338.305	-9.56
338.517	29.35
338.729	80.55
338.942	131.75
339.154	49.83
339.367	6.83
339.579	70.31
339.792	68.27
340.004	39.59
340.217	80.55
340.429	121.51
340.641	92.84
340.854	12.97
341.066	141.99
341.278	19.11
341.491	66.22
341.703	60.07
341.915	2.73
342.128	-23.89
342.34	64.17
342.552	29.35
342.764	107.18
342.977	-11.61
343.189	66.22
343.401	76.46
343.613	39.59
343.826	-19.8
344.038	76.46
344.25	76.46
344.462	41.64
344.674	15.02
344.886	31.4
345.099	60.07
345.311	35.5
345.523	31.4
345.735	29.35
345.947	62.12
346.159	25.26
346.371	33.45
346.583	58.03
346.795	127.66
347.007	62.12
347.219	-9.56
347.431	82.6
347.643	146.09
347.855	6.83
348.067	21.16
348.279	19.11
348.491	133.8
348.703	29.35
348.915	33.45
349.127	15.02
349.339	86.7
349.551	-9.56
349.763	90.79
349.975	86.7
350.187	80.55
350.399	55.98
350.61	62.12
350.822	23.21
351.034	29.35
351.246	-13.65
351.458	21.16
351.669	62.12
351.881	88.75
352.093	37.55
352.305	-1.37
352.517	27.31
352.728	74.41
352.94	51.88
353.152	49.83
353.363	33.45
353.575	105.13
353.787	82.6
353.999	35.5
354.21	47.79
354.422	76.46
354.633	74.41
354.845	33.45
355.057	49.83
355.268	33.45
355.48	109.22
355.692	31.4
355.903	39.59
356.115	45.74
356.326	49.83
356.538	58.03
356.749	21.16
356.961	74.41
357.172	64.17
357.384	17.07
357.595	156.33
357.807	119.46
358.018	23.21
358.23	68.27
358.441	86.7
358.653	64.17
358.864	58.03
359.075	58.03
359.287	29.35
359.498	33.45
359.709	82.6
359.921	86.7
360.132	8.87
360.344	41.64
360.555	33.45
360.766	94.89
360.977	92.84
361.189	23.21
361.4	6.83
361.611	37.55
361.823	39.59
362.034	125.61
362.245	92.84
362.456	4.78
362.667	129.7
362.879	88.75
363.09	25.26
363.301	144.04
363.512	25.26
363.723	88.75
363.935	39.59
364.146	55.98
364.357	21.16
364.568	98.99
364.779	49.83
364.99	96.94
365.201	70.31
365.412	47.79
365.623	-27.99
365.834	72.36
366.045	39.59
366.256	37.55
366.467	25.26
366.678	94.89
366.889	-36.18
367.1	90.79
367.311	-1.37
367.522	84.65
367.733	80.55
367.944	146.09
368.155	68.27
368.366	58.03
368.577	55.98
368.788	-1.37
368.999	4.78
369.209	86.7
369.42	84.65
369.631	66.22
369.842	25.26
370.053	41.64
370.264	6.83
370.474	98.99
370.685	64.17
370.896	76.46
371.107	47.79
371.317	94.89
371.528	41.64
371.739	72.36
371.95	25.26
372.16	19.11
372.371	0.68
372.582	55.98
372.792	125.61
373.003	74.41
373.214	72.36
373.424	2.73
373.635	47.79
373.846	121.51
374.056	64.17
374.267	0.68
374.477	84.65
374.688	70.31
374.898	43.69
375.109	70.31
375.319	6.83
375.53	72.36
375.74	21.16
375.951	94.89
376.161	90.79
376.372	162.47
376.582	-9.56
376.793	78.51
377.003	90.79
377.214	53.93
377.424	101.03
377.635	39.59
377.845	33.45
378.055	55.98
378.266	29.35
378.476	29.35
378.686	51.88
378.897	101.03
379.107	31.4
379.317	90.79
379.528	98.99
379.738	90.79
379.948	31.4
380.158	53.93
380.369	47.79
380.579	41.64
380.789	43.69
380.999	37.55
381.21	101.03
381.42	119.46
381.63	84.65
381.84	115.37
382.05	64.17
382.261	121.51
382.471	88.75
382.681	72.36
382.891	62.12
383.101	41.64
383.311	105.13
383.521	-1.37
383.731	109.22
383.941	29.35
384.151	70.31
384.361	31.4
384.571	49.83
384.781	107.18
384.991	121.51
385.201	86.7
385.411	119.46
385.621	51.88
385.831	86.7
386.041	109.22
386.251	80.55
386.461	92.84
386.671	68.27
386.881	96.94
387.091	80.55
387.301	80.55
387.511	45.74
387.72	107.18
387.93	76.46
388.14	19.11
388.35	90.79
388.56	53.93
388.769	70.31
388.979	49.83
389.189	33.45
389.399	66.22
389.609	15.02
389.818	129.7
390.028	78.51
390.238	98.99
390.447	64.17
390.657	117.42
390.867	66.22
391.076	121.51
391.286	39.59
391.496	68.27
391.705	60.07
391.915	123.56
392.125	58.03
392.334	82.6
392.544	125.61
392.753	105.13
392.963	78.51
393.172	121.51
393.382	-46.42
393.591	49.83
393.801	41.64
394.01	107.18
394.22	53.93
394.429	98.99
394.639	29.35
394.848	162.47
395.058	162.47
395.267	78.51
395.477	41.64
395.686	80.55
395.895	141.99
396.105	131.75
396.314	82.6
396.524	105.13
396.733	68.27
396.942	133.8
397.152	55.98
397.361	158.38
397.57	84.65
397.78	39.59
397.989	92.84
398.198	84.65
398.407	64.17
398.617	74.41
398.826	150.18
399.035	123.56
399.244	117.42
399.453	125.61
399.663	101.03
399.872	96.94
400.081	76.46
400.29	164.52
400.499	84.65
400.708	78.51
400.917	90.79
401.127	105.13
401.336	49.83
401.545	185
401.754	109.22
401.963	96.94
402.172	189.1
402.381	127.66
402.59	123.56
402.799	86.7
403.008	133.8
403.217	92.84
403.426	98.99
403.635	78.51
403.844	137.9
404.053	70.31
404.262	121.51
404.471	115.37
404.68	80.55
404.888	78.51
405.097	137.9
405.306	135.85
405.515	144.04
405.724	53.93
405.933	109.22
406.142	170.66
406.35	230.06
406.559	178.86
406.768	146.09
406.977	129.7
407.185	129.7
407.394	197.29
407.603	141.99
407.812	185
408.02	164.52
408.229	221.86
408.438	277.16
408.646	164.52
408.855	162.47
409.064	193.19
409.272	201.38
409.481	314.02
409.69	162.47
409.898	258.73
410.107	277.16
410.315	254.63
410.524	246.44
410.733	236.2
410.941	289.45
411.15	244.39
411.358	293.54
411.567	314.02
411.775	307.88
411.984	342.69
412.192	303.78
412.401	281.25
412.609	338.6
412.818	404.13
413.026	455.33
413.234	381.6
413.443	389.8
413.651	449.19
413.86	408.23
414.068	490.15
414.276	441
414.485	481.96
414.693	471.72
414.901	557.73
415.11	582.31
415.318	551.59
415.526	563.87
415.734	524.96
415.943	510.63
416.151	623.27
416.359	713.38
416.567	699.04
416.776	619.17
416.984	729.76
417.192	795.29
417.4	766.62
417.608	656.03
417.817	858.78
418.025	815.77
418.233	903.84
418.441	887.45
418.649	869.02
418.857	993.95
419.065	1012.38
419.273	912.03
419.481	1084.06
419.689	993.95
419.897	1139.35
420.105	1098.39
420.313	1303.19
420.521	1172.12
420.729	1202.84
420.937	1333.91
421.145	1278.62
421.353	1424.02
421.561	1473.17
421.769	1460.88
421.977	1462.93
422.185	1583.76
422.393	1594
422.601	1620.63
422.809	1759.89
423.017	1675.92
423.224	1741.46
423.432	1874.57
423.64	1864.33
423.848	2058.89
424.056	1997.45
424.263	2110.09
424.471	2151.05
424.679	2187.91
424.887	2310.79
425.094	2392.71
425.302	2380.42
425.51	2390.66
425.718	2527.88
425.925	2583.17
426.133	2650.75
426.341	2714.24
426.548	2916.99
426.756	2966.14
426.964	2943.61
427.171	3021.44
427.379	3093.12
427.586	3207.8
427.794	3455.61
428.001	3537.52
428.209	3734.13
428.417	3568.24
428.624	3912.3
428.832	3969.65
429.039	3904.11
429.247	3873.39
429.454	4215.4
429.662	4514.41
429.869	4199.02
430.076	4547.17
430.284	4270.7
430.491	4625
430.699	4799.07
430.906	4934.24
431.114	4989.53
431.321	5202.52
431.528	5282.39
431.736	5405.27
431.943	5704.28
432.15	5542.49
432.358	5530.2
432.565	6054.48
432.772	5806.67
432.979	6189.64
433.187	6363.72
433.394	6316.62
433.601	7060.03
433.808	6838.85
434.016	6746.69
434.223	7121.47
434.43	7569.98
434.637	7322.17
434.844	7793.2
435.052	8096.3
435.259	7975.47
435.466	8032.82
435.673	8047.15
435.88	8512.04
436.087	8907.3
436.294	8933.92
436.501	8675.88
436.708	8847.91
436.915	9234.97
437.122	9607.7
437.329	9714.2
437.537	9775.64
437.743	10320.4
437.95	10066.45
438.157	10570.25
438.364	11061.76
438.571	10826.25
438.778	10869.25
438.985	12124.66
439.192	11600.38
439.399	11969.01
439.606	11655.67
439.813	12644.84
440.02	12937.7
440.227	12898.79
440.433	12716.52
440.64	13111.78
440.847	12974.56
441.054	13267.42
441.261	14410.19
441.467	14209.49
441.674	14582.22
441.881	15143.36
442.088	14967.24
442.294	14852.55
442.501	15288.77
442.708	15278.53
442.914	16288.18
443.121	16722.35
443.328	16396.72
443.534	17363.36
443.741	16974.25
443.948	16648.62
444.154	17680.8
444.361	18004.38
444.568	17936.79
444.774	18061.72
444.981	18235.8
445.187	18979.21
445.394	19507.58
445.6	19491.2
445.807	21307.75
446.013	20312.44
446.22	20621.68
446.426	21551.46
446.633	21948.76
446.839	22407.51
447.046	21614.94
447.252	22667.6
447.459	22673.74
447.665	22671.7
447.871	23892.29
448.078	24906.03
448.284	23445.83
448.491	24207.67
448.697	24924.46
448.903	25551.14
449.11	25690.4
449.316	25606.44
449.522	25747.75
449.728	26624.28
449.935	26710.29
450.141	26620.18
450.347	27312.39
450.553	26302.75
450.76	26638.61
450.966	27724.04
451.172	27296.01
451.378	28238.08
451.584	27361.55
451.791	28012.8
451.997	28332.28
452.203	28694.77
452.409	28813.56
452.615	28477.69
452.821	27642.12
453.027	26900.75
453.233	28709.11
453.44	27525.38
453.646	27932.93
453.852	27652.36
454.058	28590.33
454.264	27670.79
454.47	27980.03
454.676	27066.64
454.882	28297.47
455.088	25598.24
455.294	26222.87
455.5	26796.31
455.705	27029.77
455.911	26317.08
456.117	25164.07
456.323	25006.38
456.529	23935.29
456.735	24852.78
456.941	23884.09
457.147	23607.62
457.352	22923.6
457.558	22851.92
457.764	22735.18
457.97	22268.25
458.176	22057.31
458.381	22040.92
458.587	20849
458.793	20922.73
458.999	19906.94
459.204	21242.21
459.41	20668.78
459.616	18942.35
459.821	18991.5
460.027	19181.96
460.233	18813.32
460.438	17938.84
460.644	18108.82
460.85	17492.38
461.055	16882.09
461.261	16900.52
461.466	15636.92
461.672	15278.53
461.878	16316.85
462.083	15342.02
462.289	14967.24
462.494	14682.57
462.7	14293.46
462.905	13601.24
463.111	14315.98
463.316	14481.87
463.522	13951.45
463.727	14328.27
463.932	14023.12
464.138	14041.56
464.343	14121.43
464.549	13664.73
464.754	14113.24
464.959	13627.87
465.165	13834.71
465.37	13205.99
465.575	12796.39
465.781	13343.2
465.986	13431.26
466.191	12808.68
466.397	12562.92
466.602	12182
466.807	12526.06
467.012	12501.48
467.218	12354.03
467.423	12544.49
467.628	12290.54
467.833	12933.61
468.038	12501.48
468.244	12261.87
468.449	12644.84
468.654	12083.7
468.859	12276.21
469.064	12014.07
469.269	11590.14
469.474	11629.05
469.679	11954.68
469.885	11500.03
470.09	11717.11
470.295	11559.42
470.5	11301.37
470.705	11409.92
470.91	11207.17
471.115	11131.39
471.32	11127.3
471.525	11000.32
471.73	10979.84
471.935	10963.46
472.139	10633.74
472.344	10637.83
472.549	10521.1
472.754	10609.16
472.959	10271.25
473.164	9875.99
473.369	10000.91
473.574	10398.22
473.778	10195.47
473.983	10146.32
474.188	10091.02
474.393	9452.06
474.598	9632.28
474.802	9675.29
475.007	9554.46
475.212	9501.21
475.417	9237.02
475.621	9050.66
475.826	9044.51
476.031	8981.03
476.235	8819.24
476.44	9120.29
476.645	8802.85
476.849	8809
477.054	8753.7
477.259	8673.83
477.463	8536.62
477.668	8280.62
477.872	8356.4
478.077	8292.91
478.282	7983.66
478.486	8100.4
478.691	7952.95
478.895	8102.45
479.1	8077.87
479.304	7971.38
479.509	7641.65
479.713	7918.13
479.918	7787.06
480.122	7596.6
480.326	7637.56
480.531	7699
480.735	7586.36
480.94	7504.44
481.144	7782.96
481.348	7453.24
481.553	7561.78
481.757	7408.19
481.961	7512.63
482.166	7438.91
482.37	7547.45
482.574	7365.18
482.778	7451.19
482.983	7672.37
483.187	7385.66
483.391	7502.39
483.595	7410.23
483.8	7270.97
484.004	7256.64
484.208	7363.13
484.412	7365.18
484.616	7307.84
484.821	7496.25
485.025	7279.16
485.229	7428.67
485.433	7352.89
485.637	7447.1
485.841	7295.55
486.045	7242.3
486.249	7295.55
486.453	7373.37
486.657	7524.92
486.861	7336.51
487.065	7043.65
487.269	7490.1
487.473	7238.2
487.677	7488.06
487.881	7410.23
488.085	7344.7
488.289	7488.06
488.493	7209.53
488.697	7531.06
488.901	7545.4
489.105	7414.33
489.309	7555.64
489.512	7363.13
489.716	7578.17
489.92	7477.82
490.124	7569.98
490.328	7549.5
490.531	7486.01
490.735	7529.02
490.939	7723.57
491.143	7737.91
491.346	7576.12
491.55	7701.05
491.754	7676.47
491.958	7883.31
492.161	7735.86
492.365	7690.81
492.569	7709.24
492.772	7828.02
492.976	7985.71
493.18	7977.52
493.383	7938.61
493.587	8124.97
493.79	7911.99
493.994	7973.42
494.197	8102.45
494.401	8194.61
494.605	8202.8
494.808	8475.18
495.012	8421.93
495.215	8528.42
495.419	8682.02
495.622	8440.36
495.825	8559.14
496.029	8440.36
496.232	8737.32
496.436	8784.42
496.639	8917.54
496.843	9089.57
497.046	8966.69
497.249	9333.28
497.453	9101.86
497.656	9490.97
497.859	9165.34
498.063	9384.48
498.266	9677.33
498.469	9589.27
498.673	9878.04
498.876	9749.01
499.079	10033.68
499.282	10129.94
499.485	10064.4
499.689	10117.65
499.892	10381.84
500.095	10455.56
500.298	10701.32
500.501	10517
500.705	10711.56
500.908	10971.65
501.111	11209.22
501.314	11233.79
501.517	11485.69
501.72	11342.33
501.923	11307.52
502.126	11520.51
502.329	11770.36
502.532	11983.35
502.735	12069.36
502.938	12300.78
503.141	12378.61
503.344	12407.28
503.547	12487.15
503.75	12708.33
503.953	12780.01
504.156	12714.47
504.359	12949.99
504.562	13085.15
504.765	13357.53
504.968	13539.8
505.17	13619.67
505.373	13685.21
505.576	13914.58
505.779	13978.07
505.982	14031.32
506.185	14655.95
506.387	14383.57
506.59	14369.23
506.793	14954.95
506.996	14770.63
507.198	15415.74
507.401	15063.49
507.604	15493.57
507.807	15622.59
508.009	15888.82
508.212	15905.21
508.415	16040.37
508.617	16329.14
508.82	16155.06
509.022	16361.91
509.225	16478.64
509.428	16767.4
509.63	17248.68
509.833	17090.98
510.035	17502.62
510.238	17389.99
510.44	17783.2
510.643	17867.16
510.845	17904.03
511.048	17820.06
511.25	18260.37
511.453	18239.89
511.655	18971.02
511.858	18442.64
512.06	18663.82
512.262	19210.63
512.465	19196.29
512.667	19505.54
512.87	19669.37
513.072	19843.45
513.274	20001.15
513.477	20164.98
513.679	20328.82
513.881	20556.15
514.084	20613.49
514.286	20496.75
514.488	20861.29
514.69	21356.9
514.893	21455.2
515.095	21492.07
515.297	21834.08
515.499	21768.54
515.701	22032.73
515.904	22380.89
516.106	22346.07
516.308	22638.93
516.51	23089.48
516.712	23085.39
516.914	23243.08
517.116	23681.35
517.318	23660.87
517.52	23693.63
517.722	23857.47
517.925	24564.02
518.127	24303.93
518.329	24310.07
518.531	24518.96
518.733	25043.24
518.935	25307.43
519.136	25137.45
519.338	25514.28
519.54	25471.27
519.742	25948.45
519.944	25780.51
520.146	26188.06
520.348	26515.73
520.55	26632.47
520.752	26720.53
520.954	27115.79
521.155	26968.34
521.357	27769.09
521.559	27441.42
521.761	27842.82
521.963	27775.23
522.164	28012.8
522.366	27769.09
522.568	28383.48
522.77	28453.11
522.971	29040.88
523.173	28739.83
523.375	28952.82
523.576	29133.04
523.778	29262.06
523.98	29516.01
524.181	29352.17
524.383	29618.41
524.584	30116.06
524.786	29806.82
524.988	30347.48
525.189	30324.96
525.391	30286.04
525.592	30556.38
525.794	30857.43
525.995	30816.47
526.197	30716.12
526.398	30793.94
526.6	31029.46
526.801	31254.73
527.003	31727.81
527.204	31662.28
527.406	31834.31
527.607	31883.46
527.808	31568.07
528.01	31463.63
528.211	31365.32
528.412	32467.13
528.614	32127.17
528.815	32053.44
529.016	32530.62
529.218	32229.57
529.419	32647.35
529.62	32229.57
529.822	32295.1
530.023	32288.96
530.224	32446.65
530.425	32446.65
530.626	32442.56
530.828	31901.89
531.029	33061.04
531.23	32237.76
531.431	32542.91
531.632	32635.06
531.833	32805.05
532.035	32614.59
532.236	32958.64
532.437	32977.08
532.638	33089.71
532.839	33138.86
533.04	33349.81
533.241	32905.4
533.442	33751.21
533.643	33427.63
533.844	33310.89
534.045	33300.65
534.246	33052.85
534.447	33401
534.648	33308.85
534.849	33159.34
535.05	32866.49
535.251	33056.95
535.451	33335.47
535.652	33325.23
535.853	33398.96
536.054	33642.67
536.255	33284.27
536.456	33015.99
536.657	33472.68
536.857	33353.9
537.058	33286.32
537.259	33329.33
537.46	33435.82
537.66	32999.6
537.861	33304.75
538.062	33390.77
538.263	33523.88
538.463	33241.26
538.664	33271.98
538.865	33470.64
539.065	33796.26
539.266	33597.61
539.466	33351.85
539.667	33071.28
539.868	33575.08
540.068	33513.64
540.269	33118.39
540.469	33329.33
540.67	33548.46
540.87	33573.03
541.071	33593.51
541.271	33822.89
541.472	33394.86
541.672	33271.98
541.873	33341.61
542.073	33095.86
542.274	33271.98
542.474	33355.95
542.675	33306.8
542.875	33564.84
543.075	33429.68
543.276	33085.62
543.476	33251.5
543.676	33192.11
543.877	32968.88
544.077	33509.55
544.277	33372.33
544.478	32938.16
544.678	33568.94
544.878	33208.5
545.078	32936.12
545.279	32921.78
545.479	32786.61
545.679	33276.08
545.879	33263.79
546.079	33032.37
546.28	32817.33
546.48	32770.23
546.68	33530.03
546.88	33179.82
547.08	33044.66
547.28	33048.75
547.48	32794.81
547.68	32966.84
547.88	32669.88
548.081	32749.75
548.281	33073.33
548.481	33069.23
548.681	33321.13
548.881	33278.13
549.081	32997.56
549.28	32987.32
549.48	33403.05
549.68	33159.34
549.88	33104.05
550.08	32950.45
550.28	33183.92
550.48	32989.36
550.68	33292.46
550.88	32508.09
551.08	32950.45
551.279	32995.51
551.479	32614.59
551.679	32946.36
551.879	33048.75
552.079	33011.89
552.278	32651.45
552.478	32919.73
552.678	32635.06
552.878	32958.64
553.077	32716.98
553.277	32557.24
553.477	33128.63
553.676	32972.98
553.876	32852.15
554.076	32639.16
554.275	32678.07
554.475	32553.15
554.674	32567.48
554.874	32827.57
555.074	32579.77
555.273	32766.13
555.473	32993.46
555.672	32372.92
555.872	32495.8
556.071	33044.66
556.271	32829.62
556.47	32448.7
556.67	32170.18
556.869	32544.95
557.068	32475.32
557.268	32286.91
557.467	32073.92
557.667	32520.38
557.866	32676.02
558.065	32483.52
558.265	32489.66
558.464	32065.73
558.663	32483.52
558.863	32086.21
559.062	32641.21
559.261	31897.8
559.461	32465.08
559.66	31975.62
559.859	32274.62
560.058	32090.3
560.258	31897.8
560.457	31760.58
560.656	32010.43
560.855	32026.82
561.054	31959.23
561.253	31447.24
561.453	31504.59
561.652	32051.39
561.851	32071.87
562.05	31619.27
562.249	31813.83
562.448	31977.67
562.647	31523.02
562.846	31394
563.045	31307.98
563.244	31260.88
563.443	31525.07
563.642	31033.55
563.841	31383.76
564.04	31068.37
564.239	31385.8
564.438	31092.94
564.637	31060.18
564.836	31451.34
565.035	30613.72
565.234	30896.34
565.432	30679.25
565.631	30839
565.83	30867.67
566.029	30529.75
566.228	30523.61
566.427	30427.35
566.625	30591.19
566.824	30310.62
567.023	30707.93
567.222	29931.75
567.42	30795.99
567.619	30382.3
567.818	30114.02
568.016	30097.63
568.215	30415.07
568.414	30138.59
568.612	30226.65
568.811	30222.56
569.01	30222.56
569.208	29706.47
569.407	30300.38
569.605	29620.45
569.804	30202.08
570.002	29753.57
570.201	29999.33
570.4	29540.58
570.598	29546.73
570.797	29360.36
570.995	29571.3
571.193	29229.29
571.392	29688.04
571.59	29184.24
571.789	29090.03
571.987	29155.57
572.186	29067.5
572.384	29067.5
572.582	29325.55
572.781	28883.19
572.979	28748.02
573.177	28580.09
573.376	28934.39
573.574	28653.81
573.772	28936.43
573.971	28422.39
574.169	28381.43
574.367	28524.79
574.565	28489.98
574.763	28522.74
574.962	28387.58
575.16	28219.64
575.358	28436.73
575.556	28064
575.754	28248.32
575.952	28061.95
576.151	28143.87
576.349	27631.88
576.547	27908.35
576.745	27810.05
576.943	27840.77
577.141	27717.89
577.339	27728.13
577.537	27638.02
577.735	27377.93
577.933	27728.13
578.131	27658.5
578.329	27111.69
578.527	27300.11
578.725	27304.2
578.923	27390.22
579.121	27320.59
579.319	26814.74
579.516	27382.02
579.714	27236.62
579.912	26917.14
580.11	26378.52
580.308	26835.22
580.506	26722.58
580.704	26384.66
580.901	26595.6
581.099	26581.27
581.297	26183.96
581.495	26409.24
581.692	26525.97
581.89	26558.74
582.088	26493.21
582.285	26161.44
582.483	26464.53
582.681	26114.33
582.878	25948.45
583.076	25669.92
583.274	26249.5
583.471	25798.94
583.669	25794.85
583.866	25702.69
584.064	25762.08
584.262	25078.06
584.459	25626.92
584.657	25321.77
584.854	25692.45
585.052	24879.41
585.249	25475.37
585.447	25600.29
585.644	24981.81
585.841	25125.16
586.039	25295.14
586.236	24897.84
586.434	24824.11
586.631	24953.13
586.828	24676.66
587.026	24840.5
587.223	24922.41
587.42	24951.09
587.618	24551.73
587.815	24469.81
588.012	24197.43
588.21	24379.7
588.407	24574.26
588.604	24299.83
588.801	24105.27
588.999	24310.07
589.196	24123.71
589.393	24072.51
589.59	24035.64
589.787	23775.55
589.984	23890.24
590.182	23601.47
590.379	23593.28
590.576	23644.48
590.773	23630.15
590.97	23505.22
591.167	23290.18
591.364	23243.08
591.561	23529.8
591.758	23292.23
591.955	23017.8
592.152	23376.2
592.349	23214.41
592.546	22982.99
592.743	22813.01
592.94	22802.77
593.137	23048.52
593.334	22915.4
593.531	22624.59
593.727	22315.35
593.924	22761.81
594.121	22632.79
594.318	22573.39
594.515	22577.49
594.712	22415.7
594.908	22296.92
595.105	22313.3
595.302	22047.07
595.499	22026.59
595.696	21817.69
595.892	22169.94
596.089	21819.74
596.286	22008.15
596.482	21815.65
596.679	21805.41
596.876	21789.02
597.072	21723.49
597.269	21954.91
597.466	21539.17
597.662	21455.2
597.859	21381.48
598.055	21553.51
598.252	21270.89
598.448	21414.24
598.645	20791.66
598.841	21119.34
599.038	20965.74
599.234	21002.6
599.431	20904.3
599.627	21072.23
599.824	21068.14
600.02	20941.16
600.217	20701.55
600.413	20605.3
600.609	20371.83
600.806	20482.42
601.002	20658.54
601.198	20072.82
601.395	20322.68
601.591	20052.34
601.787	20285.81
601.984	19968.38
602.18	20265.33
602.376	20076.92
602.572	19945.85
602.769	20214.13
602.965	19687.81
603.161	19984.76
603.357	19491.2
603.553	19743.1
603.75	19663.23
603.946	19663.23
604.142	19550.59
604.338	19519.87
604.534	19356.04
604.73	19452.29
604.926	19409.28
605.122	19440
605.318	19310.98
605.514	19263.88
605.71	19112.33
605.906	19147.14
606.102	18891.15
606.298	19085.7
606.494	18592.14
606.69	18811.28
606.886	18727.31
607.082	18710.93
607.278	18880.91
607.474	18653.58
607.67	18923.91
607.866	18491.79
608.062	18616.72
608.257	18719.12
608.453	18751.88
608.649	18465.17
608.845	18502.03
609.041	18469.26
609.236	18444.69
609.432	18110.87
609.628	18123.16
609.824	18164.12
610.019	18114.97
610.215	18121.11
610.411	17961.37
610.606	18239.89
610.802	18180.5
610.998	18327.96
611.193	18231.7
611.389	18088.34
611.584	18049.43
611.78	17592.73
611.976	18145.69
612.171	17846.68
612.367	17762.72
612.562	17471.9
612.758	17535.39
612.953	17338.79
613.149	17752.48
613.344	17705.37
613.539	17852.83
613.735	17623.45
613.93	17754.52
614.126	17559.97
614.321	17766.81
614.517	17887.64
614.712	17471.9
614.907	17576.35
615.103	17564.06
615.298	17504.67
615.493	17648.03
615.688	17209.76
615.884	17506.72
616.079	16925.1
616.274	17379.75
616.47	17328.55
616.665	17084.84
616.86	17306.02
617.055	17185.19
617.25	17203.62
617.445	17217.96
617.641	17027.49
617.836	16945.58
618.031	16929.19
618.226	16941.48
618.421	16677.29
618.616	16822.7
618.811	16578.99
619.006	16961.96
619.201	16513.45
619.396	16736.68
619.591	16366
619.786	16462.26
619.981	16132.53
620.176	16390.58
620.371	16212.4
620.566	16325.04
620.761	15978.93
620.956	15856.06
621.151	15970.74
621.346	16275.89
621.541	15874.49
621.735	15802.81
621.93	15434.18
622.125	15651.26
622.32	15499.71
622.515	15729.08
622.709	15634.88
622.904	15313.34
623.099	15268.29
623.294	15378.88
623.488	15110.6
623.683	15104.45
623.878	14789.06
624.072	14674.38
624.267	14885.32
624.462	14701
624.656	14555.6
624.851	14703.05
625.046	14545.36
625.24	14338.51
625.435	14442.96
625.629	14193.11
625.824	14143.95
626.018	14172.63
626.213	14023.12
626.407	14090.71
626.602	13691.35
626.796	13961.69
626.991	13861.34
627.185	13851.1
627.38	13609.43
627.574	13513.18
627.768	13289.95
627.963	13314.53
628.157	13431.26
628.352	13138.4
628.546	12894.69
628.74	13150.69
628.935	12978.66
629.129	13259.23
629.323	12775.91
629.517	12913.13
629.712	12759.53
629.906	12775.91
630.1	12491.24
630.294	12673.51
630.489	12556.78
630.683	12501.48
630.877	12204.53
631.071	12194.29
631.265	12380.65
631.459	12208.62
631.653	12143.09
631.848	11975.16
632.042	11934.2
632.236	11735.54
632.43	11825.65
632.624	11796.98
632.818	11872.76
633.012	11839.99
633.206	11614.71
633.4	11696.63
633.594	11268.61
633.788	11471.36
633.982	11524.6
634.176	11557.37
634.369	11354.62
634.563	11375.1
634.757	11262.46
634.951	11389.44
635.145	11307.52
635.339	11059.71
635.533	10930.69
635.726	10928.64
635.92	10914.31
636.114	10904.07
636.308	10799.62
636.501	10779.14
636.695	10629.64
636.889	10598.92
637.083	10609.16
637.276	10408.46
637.47	10347.02
637.664	10181.14
637.857	10365.45
638.051	10291.73
638.244	10062.35
638.438	10170.9
638.632	10174.99
638.825	10211.85
639.019	9986.58
639.212	9990.67
639.406	10013.2
639.599	9921.04
639.793	9970.19
639.986	9683.48
640.18	9755.16
640.373	9660.95
640.567	9564.7
640.76	9765.4
640.954	9460.25
641.147	9390.62
641.34	9300.51
641.534	9462.3
641.727	9271.84
641.92	9515.55
642.114	9173.53
642.307	9237.02
642.5	9290.27
642.694	8950.31
642.887	8981.03
643.08	9157.15
643.273	9163.29
643.467	8759.84
643.66	8786.47
643.853	8823.33
644.046	8768.04
644.239	8802.85
644.432	8591.91
644.626	8626.73
644.819	8694.31
645.012	8520.23
645.205	8575.53
645.398	8423.98
645.591	8477.23
645.784	8419.88
645.977	8419.88
646.17	8364.59
646.363	8419.88
646.556	8210.99
646.749	8262.19
646.942	8254
647.135	8254
647.328	8030.77
647.521	8061.49
647.714	7926.32
647.907	7928.37
648.099	8081.97
648.292	7961.14
648.485	7850.55
648.678	7787.06
648.871	7825.97
649.064	7563.83
649.256	7746.1
649.449	7598.65
649.642	7574.07
649.835	7604.79
650.027	7318.07
650.22	7477.82
650.413	7467.58
650.605	7369.27
650.798	7367.23
650.991	7213.63
651.183	7334.46
651.376	7080.51
651.568	7359.03
651.761	7105.09
651.954	7129.66
652.146	7178.81
652.339	7236.16
652.531	7088.7
652.724	6988.35
652.916	6855.23
653.109	6898.24
653.301	6853.19
653.494	6793.8
653.686	6990.4
653.879	6912.58
654.071	6771.27
654.263	6603.33
654.456	6595.14
654.648	6591.05
654.84	6605.38
655.033	6582.85
655.225	6570.57
655.417	6466.12
655.61	6580.81
655.802	6535.75
655.994	6494.79
656.186	6394.44
656.379	6455.88
656.571	6203.98
656.763	6253.13
656.955	6300.23
657.148	6300.23
657.34	6177.36
657.532	6031.95
657.724	6236.75
657.916	6314.57
658.108	6046.29
658.3	5966.42
658.492	6046.29
658.684	5943.89
658.876	6107.73
659.068	5778
659.26	5866.07
659.452	6056.53
659.644	5739.09
659.836	5816.91
660.028	5753.43
660.22	5714.52
660.412	5716.56
660.604	5651.03
660.796	5714.52
660.988	5560.92
661.18	5626.45
661.372	5612.12
661.563	5728.85
661.755	5354.07
661.947	5546.58
662.139	5450.33
662.331	5476.95
662.522	5423.7
662.714	5483.09
662.906	5364.31
663.097	5374.55
663.289	5296.73
663.481	5190.24
663.673	5159.52
663.864	5188.19
664.056	5186.14
664.247	5159.52
664.439	5169.76
664.631	5184.09
664.822	5149.28
665.014	5208.67
665.205	4960.86
665.397	5046.88
665.588	5128.8
665.78	5083.74
665.971	4831.84
666.163	5001.82
666.354	5130.84
666.546	4893.28
666.737	4960.86
666.929	4733.54
667.12	4799.07
667.311	4928.1
667.503	4784.74
667.694	4846.18
667.885	4837.98
668.077	4653.67
668.268	4794.98
668.459	4741.73
668.651	4588.13
668.842	4729.44
669.033	4674.15
669.224	4604.52
669.416	4575.84
669.607	4491.88
669.798	4629.09
669.989	4561.51
670.18	4577.89
670.371	4481.64
670.563	4440.68
670.754	4455.01
670.945	4514.41
671.136	4416.1
671.327	4450.92
671.518	4244.07
671.709	4391.53
671.9	4463.21
672.091	4346.47
672.282	4409.96
672.473	4201.07
672.664	4323.94
672.855	4235.88
673.046	4209.26
673.237	4342.38
673.428	4289.13
673.619	4278.89
673.809	4145.77
674	4258.41
674.191	4133.48
674.382	4203.11
674.573	4108.91
674.764	4135.53
674.954	4237.93
675.145	4143.72
675.336	4170.35
675.527	4137.58
675.717	4055.66
675.908	3961.45
676.099	3986.03
676.289	4094.57
676.48	4139.63
676.671	3979.89
676.861	4100.72
677.052	4051.56
677.243	3836.53
677.433	3928.69
677.624	3926.64
677.814	4035.18
678.005	3922.54
678.195	3881.58
678.386	3857.01
678.576	3873.39
678.767	3887.73
678.957	3920.49
679.148	3816.05
679.338	3787.38
679.529	3828.34
679.719	3770.99
679.909	3824.24
680.1	3801.71
680.29	3715.7
680.481	3766.9
680.671	3717.75
680.861	3799.66
681.052	3797.62
681.242	3697.27
681.432	3807.86
681.622	3584.63
681.813	3699.31
682.003	3713.65
682.193	3750.51
682.383	3699.31
682.573	3758.71
682.764	3762.8
682.954	3588.72
683.144	3746.42
683.334	3619.44
683.524	3553.91
683.714	3570.29
683.904	3699.31
684.094	3451.51
684.284	3459.7
684.474	3582.58
684.664	3525.24
684.854	3621.49
685.044	3613.3
685.234	3515
685.424	3496.57
685.614	3453.56
685.804	3480.18
685.994	3437.17
686.184	3478.13
686.374	3500.66
686.564	3437.17
686.753	3461.75
686.943	3359.35
687.133	3414.65
687.323	3422.84
687.513	3433.08
687.702	3424.89
687.892	3293.82
688.082	3449.46
688.272	3398.26
688.461	3277.43
688.651	3295.86
688.841	3203.71
689.03	3394.17
689.22	3226.23
689.41	3121.79
689.599	3121.79
689.789	3172.99
689.979	3140.22
690.168	3263.1
690.358	3201.66
690.547	3101.31
690.737	3154.55
690.926	2982.53
691.116	3039.87
691.305	3156.6
691.495	3046.01
691.684	3027.58
691.874	2978.43
692.063	2943.61
692.252	3080.83
692.442	2914.94
692.631	3000.96
692.82	2916.99
693.01	2927.23
693.199	2810.5
693.388	2892.41
693.578	2818.69
693.767	2810.5
693.956	2861.69
694.146	2826.88
694.335	2814.59
694.524	2777.73
694.713	2894.46
694.902	2740.86
695.092	2830.98
695.281	2828.93
695.47	2800.26
695.659	2826.88
695.848	2724.48
696.037	2769.54
696.226	2747.01
696.415	2720.39
696.604	2663.04
696.793	2732.67
696.982	2648.71
697.171	2755.2
697.36	2648.71
697.549	2699.91
697.738	2540.16
697.927	2738.82
698.116	2677.38
698.305	2710.15
698.494	2747.01
698.683	2720.39
698.872	2695.81
699.061	2605.7
699.25	2630.27
699.438	2654.85
699.627	2646.66
699.816	2624.13
700.005	2486.92
700.193	2568.84
700.382	2550.4
700.571	2640.51
700.76	2566.79
700.948	2568.84
701.137	2486.92
701.326	2517.64
701.514	2609.79
701.703	2540.16
701.892	2460.29
702.08	2634.37
702.269	2579.08
702.457	2519.68
702.646	2544.26
702.834	2503.3
703.023	2509.44
703.212	2531.97
703.4	2437.77
703.589	2343.56
703.777	2486.92
703.965	2536.07
704.154	2491.01
704.342	2529.92
704.531	2407.05
704.719	2568.84
704.907	2499.2
705.096	2435.72
705.284	2417.29
705.472	2460.29
705.661	2413.19
705.849	2454.15
706.037	2534.02
706.226	2509.44
706.414	2454.15
706.602	2476.68
706.79	2577.03
706.979	2493.06
707.167	2466.44
707.355	2366.09
707.543	2536.07
707.731	2382.47
707.919	2527.88
708.107	2411.14
708.296	2409.09
708.484	2505.35
708.672	2507.4
708.86	2577.03
709.048	2488.96
709.236	2466.44
709.424	2517.64
709.612	2443.91
709.8	2425.48
709.988	2515.59
710.176	2452.1
710.364	2388.61
710.551	2411.14
710.739	2456.2
710.927	2458.25
711.115	2321.03
711.303	2566.79
711.491	2482.82
711.679	2411.14
711.866	2407.05
712.054	2454.15
712.242	2357.89
712.43	2417.29
712.617	2468.48
712.805	2415.24
712.993	2405
713.181	2378.37
713.368	2497.16
713.556	2464.39
713.744	2466.44
713.931	2640.51
714.119	2488.96
714.306	2527.88
714.494	2427.53
714.682	2462.34
714.869	2421.38
715.057	2452.1
715.244	2372.23
715.432	2554.5
715.619	2456.2
715.807	2405
715.994	2421.38
716.182	2298.5
716.369	2456.2
716.556	2433.67
716.744	2460.29
716.931	2413.19
717.119	2531.97
717.306	2480.77
717.493	2435.72
717.681	2421.38
717.868	2521.73
718.055	2429.57
718.242	2308.74
718.43	2392.71
718.617	2452.1
718.804	2556.55
718.991	2480.77
719.179	2495.11
719.366	2456.2
719.553	2515.59
719.74	2464.39
719.927	2445.96
720.114	2392.71
720.301	2413.19
720.488	2431.62
720.676	2415.24
720.863	2529.92
721.05	2534.02
721.237	2431.62
721.424	2478.72
721.611	2417.29
721.798	2435.72
721.985	2439.81
722.172	2458.25
722.358	2456.2
722.545	2355.85
722.732	2306.7
722.919	2445.96
723.106	2476.68
723.293	2310.79
723.48	2409.09
723.667	2411.14
723.853	2423.43
724.04	2400.9
724.227	2448.01
724.414	2407.05
724.6	2388.61
724.787	2460.29
724.974	2511.49
725.161	2450.05
725.347	2468.48
725.534	2486.92
725.72	2491.01
725.907	2486.92
726.094	2538.12
726.28	2437.77
726.467	2425.48
726.653	2368.13
726.84	2536.07
727.027	2484.87
727.213	2517.64
727.4	2534.02
727.586	2353.8
727.773	2316.94
727.959	2411.14
728.145	2513.54
728.332	2421.38
728.518	2372.23
728.705	2349.7
728.891	2359.94
729.077	2273.93
729.264	2454.15
729.45	2368.13
729.636	2515.59
729.823	2503.3
730.009	2448.01
730.195	2448.01
730.382	2445.96
730.568	2484.87
730.754	2366.09
730.94	2423.43
731.126	2486.92
731.313	2378.37
731.499	2466.44
731.685	2515.59
731.871	2484.87
732.057	2491.01
732.243	2456.2
732.429	2507.4
732.615	2482.82
732.801	2378.37
732.987	2331.27
733.173	2476.68
733.359	2357.89
733.545	2278.02
733.731	2325.13
733.917	2374.28
734.103	2359.94
734.289	2392.71
734.475	2331.27
734.661	2476.68
734.847	2357.89
735.033	2351.75
735.219	2433.67
735.404	2329.22
735.59	2343.56
735.776	2361.99
735.962	2368.13
736.148	2398.85
736.333	2450.05
736.519	2413.19
736.705	2419.33
736.89	2335.37
737.076	2349.7
737.262	2316.94
737.447	2364.04
737.633	2331.27
737.819	2300.55
738.004	2345.61
738.19	2400.9
738.375	2282.12
738.561	2351.75
738.747	2382.47
738.932	2296.46
739.118	2306.7
739.303	2335.37
739.489	2296.46
739.674	2302.6
739.859	2386.57
740.045	2278.02
740.23	2372.23
740.416	2232.97
740.601	2318.98
740.786	2306.7
740.972	2269.83
741.157	2183.82
741.342	2194.06
741.528	2196.11
741.713	2306.7
741.898	2300.55
742.084	2226.82
742.269	2271.88
742.454	2243.21
742.639	2177.67
742.824	2177.67
743.01	2169.48
743.195	2239.11
743.38	2093.71
743.565	2214.54
743.75	2124.43
743.935	2095.75
744.12	2114.19
744.305	2118.28
744.49	2183.82
744.675	2015.88
744.86	2071.18
745.045	2054.8
745.23	2046.6
745.415	2054.8
745.6	2224.78
745.785	1987.21
745.97	2069.13
746.155	2058.89
746.34	2003.6
746.525	1997.45
746.71	2019.98
746.895	1968.78
747.079	2040.46
747.264	1985.16
747.449	1901.2
747.634	1997.45
747.819	1923.73
748.003	1860.24
748.188	2022.03
748.373	1989.26
748.557	1923.73
748.742	2007.69
748.927	1854.09
749.111	1864.33
749.296	1850
749.481	2003.6
749.665	1835.66
749.85	1782.42
750.034	1800.85
750.219	1809.04
750.404	1862.29
750.588	1796.75
750.773	1753.74
750.957	1755.79
751.141	1843.85
751.326	1837.71
751.51	1698.45
751.695	1673.87
751.879	1653.39
752.064	1819.28
752.248	1589.91
752.432	1741.46
752.617	1663.63
752.801	1626.77
752.985	1669.78
753.17	1600.15
753.354	1634.96
753.538	1610.39
753.722	1555.09
753.907	1546.9
754.091	1471.12
754.275	1571.47
754.459	1464.98
754.643	1510.04
754.828	1550.99
755.012	1587.86
755.196	1415.83
755.38	1522.32
755.564	1536.66
755.748	1397.4
755.932	1534.61
756.116	1456.79
756.3	1432.21
756.484	1407.64
756.668	1381.01
756.852	1335.96
757.036	1348.25
757.22	1393.3
757.404	1348.25
757.588	1460.88
757.772	1311.38
757.956	1366.68
758.14	1417.88
758.323	1327.77
758.507	1305.24
758.691	1280.66
758.875	1295
759.059	1348.25
759.242	1200.79
759.426	1278.62
759.61	1335.96
759.794	1215.13
759.977	1260.18
760.161	1297.05
760.345	1301.14
760.528	1254.04
760.712	1301.14
760.895	1178.26
761.079	1243.8
761.263	1213.08
761.446	1178.26
761.63	1161.88
761.813	1204.89
761.997	1129.11
762.18	1196.7
762.364	1157.79
762.547	1153.69
762.731	1186.46
762.914	1141.4
763.098	1137.31
763.281	1165.98
763.464	1141.4
763.648	1108.63
763.831	1118.87
764.015	1141.4
764.198	1082.01
764.381	1063.58
764.564	1149.59
764.748	1008.28
764.931	1039
765.114	1086.11
765.297	1112.73
765.481	1051.29
765.664	1049.24
765.847	1047.19
766.03	969.37
766.213	991.9
766.397	996
766.58	1053.34
766.763	1030.81
766.946	907.93
767.129	977.56
767.312	1000.09
767.495	1063.58
767.678	1032.86
767.861	926.36
768.044	967.32
768.227	961.18
768.41	948.89
768.593	944.8
768.776	965.28
768.959	948.89
769.142	979.61
769.324	873.12
769.507	930.46
769.69	944.8
769.873	909.98
770.056	946.84
770.239	912.03
770.421	952.99
770.604	905.88
770.787	979.61
770.97	918.17
771.152	981.66
771.335	893.6
771.518	924.32
771.7	914.08
771.883	932.51
772.066	936.6
772.248	895.64
772.431	909.98
772.613	875.17
772.796	785.05
772.978	950.94
773.161	860.83
773.343	819.87
773.526	834.21
773.708	819.87
773.891	817.82
774.073	846.49
774.256	731.81
774.438	834.21
774.621	809.63
774.803	799.39
774.985	848.54
775.168	856.73
775.35	842.4
775.532	840.35
775.715	813.73
775.897	772.77
776.079	735.9
776.261	707.23
776.444	813.73
776.626	666.27
776.808	809.63
776.99	707.23
777.173	649.89
777.355	748.19
777.537	744.1
777.719	719.52
777.901	672.42
778.083	723.62
778.265	699.04
778.447	729.76
778.629	625.31
778.811	727.71
778.993	713.38
779.175	672.42
779.357	627.36
779.539	651.94
779.721	600.74
779.903	735.9
780.085	633.5
780.267	643.74
780.449	641.7
780.631	717.47
780.812	674.46
780.994	627.36
781.176	670.37
781.358	670.37
781.54	559.78
781.721	586.4
781.903	610.98
782.085	645.79
782.267	527.01
782.448	559.78
782.63	545.44
782.812	500.39
782.993	541.35
783.175	508.58
783.357	576.16
783.538	539.3
783.72	486.05
783.901	537.25
784.083	516.77
784.264	481.96
784.446	486.05
784.627	461.48
784.809	512.67
784.99	518.82
785.172	527.01
785.353	463.52
785.535	465.57
785.716	537.25
785.897	420.52
786.079	416.42
786.26	449.19
786.441	502.43
786.623	344.74
786.804	428.71
786.985	492.2
787.167	453.28
787.348	477.86
787.529	516.77
787.71	457.38
787.891	467.62
788.073	436.9
788.254	383.65
788.435	490.15
788.616	463.52
788.797	393.89
788.978	357.03
789.159	342.69
789.34	410.28
789.522	338.6
789.703	438.95
789.884	445.09
790.065	434.85
790.246	344.74
790.427	416.42
790.607	344.74
790.788	334.5
790.969	400.04
791.15	387.75
791.331	332.45
791.512	326.31
791.693	334.5
791.874	322.21
792.054	389.8
792.235	379.56
792.416	340.65
792.597	309.93
792.778	334.5
792.958	318.12
793.139	381.6
793.32	432.8
793.5	352.93
793.681	240.29
793.862	350.89
794.042	344.74
794.223	322.21
794.404	350.89
794.584	350.89
794.765	361.13
794.945	326.31
795.126	336.55
795.306	342.69
795.487	342.69
795.667	363.17
795.848	299.69
796.028	297.64
796.209	309.93
796.389	354.98
796.57	441
796.75	318.12
796.93	336.55
797.111	252.58
797.291	311.97
797.471	324.26
797.652	250.53
797.832	289.45
798.012	314.02
798.192	303.78
798.373	311.97
798.553	303.78
798.733	277.16
798.913	252.58
799.093	260.77
799.274	395.94
799.454	291.49
799.634	322.21
799.814	262.82
799.994	246.44
800.174	340.65
800.354	209.58
800.534	201.38
800.714	309.93
800.894	264.87
801.074	252.58
801.254	209.58
801.434	291.49
801.614	211.62
801.794	291.49
801.974	737.95
802.154	197.29
802.334	271.01
802.514	273.06
802.693	254.63
802.873	215.72
803.053	264.87
803.233	264.87
803.413	271.01
803.592	252.58
803.772	203.43
803.952	236.2
804.131	203.43
804.311	252.58
804.491	293.54
804.67	242.34
804.85	223.91
805.03	342.69
805.209	258.73
805.389	207.53
805.568	230.06
805.748	242.34
805.928	271.01
806.107	230.06
806.287	262.82
806.466	244.39
806.646	199.34
806.825	141.99
807.004	225.96
807.184	178.86
807.363	195.24
807.543	180.9
807.722	170.66
807.901	254.63
808.081	228.01
808.26	187.05
808.439	230.06
808.619	258.73
808.798	195.24
808.977	166.57
809.156	250.53
809.336	166.57
809.515	217.77
809.694	242.34
809.873	141.99
810.052	158.38
810.231	236.2
810.411	172.71
810.59	197.29
810.769	162.47
810.948	148.14
811.127	162.47
811.306	217.77
811.485	189.1
811.664	250.53
811.843	170.66
812.022	228.01
812.201	160.42
812.38	201.38
812.559	189.1
812.737	236.2
812.916	88.75
813.095	207.53
813.274	135.85
813.453	115.37
813.632	162.47
813.811	232.1
813.989	156.33
814.168	211.62
814.347	170.66
814.526	211.62
814.704	131.75
814.883	187.05
815.062	78.51
815.24	209.58
815.419	236.2
815.598	213.67
815.776	125.61
815.955	172.71
816.133	160.42
816.312	189.1
816.49	154.28
816.669	187.05
816.847	139.94
817.026	135.85
817.204	137.9
817.383	86.7
817.561	185
817.74	146.09
817.918	199.34
818.097	150.18
818.275	135.85
818.453	105.13
818.632	96.94
818.81	141.99
818.988	125.61
819.167	158.38
819.345	154.28
819.523	185
819.701	209.58
819.879	135.85
820.058	148.14
820.236	219.82
820.414	187.05
820.592	168.62
820.77	141.99
820.948	170.66
821.127	137.9
821.305	103.08
821.483	180.9
821.661	217.77
821.839	123.56
822.017	176.81
822.195	209.58
822.373	31.4
822.551	127.66
822.729	101.03
822.907	164.52
823.085	60.07
823.262	182.95
823.44	195.24
823.618	111.27
823.796	78.51
823.974	103.08
824.152	76.46
824.329	187.05
824.507	103.08
824.685	60.07
824.863	150.18
825.04	232.1
825.218	103.08
825.396	80.55
825.574	109.22
825.751	164.52
825.929	123.56
826.107	78.51
826.284	117.42
826.462	103.08
826.639	25.26
826.817	129.7
826.994	172.71
827.172	70.31
827.349	193.19
827.527	156.33
827.704	68.27
827.882	98.99
828.059	47.79
828.237	141.99
828.414	152.23
828.591	123.56
828.769	158.38
828.946	105.13
829.124	86.7
829.301	107.18
829.478	15.02
829.655	137.9
829.833	47.79
830.01	92.84
830.187	180.9
830.364	94.89
830.542	129.7
830.719	15.02
830.896	72.36
831.073	92.84
831.25	58.03
831.427	62.12
831.604	125.61
831.782	152.23
831.959	182.95
832.136	109.22
832.313	156.33
832.49	43.69
832.667	158.38
832.844	55.98
833.021	131.75
833.198	47.79
833.374	47.79
833.551	23.21
833.728	105.13
833.905	197.29
834.082	51.88
834.259	123.56
834.436	141.99
834.612	60.07
834.789	131.75
834.966	-21.85
835.143	129.7
835.319	-3.41
835.496	156.33
835.673	35.5
835.85	131.75
836.026	111.27
836.203	154.28
836.38	60.07
836.556	80.55
836.733	55.98
836.909	176.81
837.086	70.31
837.262	115.37
837.439	0.68
837.616	23.21
837.792	107.18
837.968	96.94
838.145	29.35
838.321	137.9
838.498	111.27
838.674	86.7
838.851	107.18
839.027	90.79
839.203	90.79
839.38	189.1
839.556	64.17
839.732	125.61
839.909	51.88
840.085	115.37
840.261	17.07
840.437	74.41
840.614	51.88
840.79	58.03
840.966	53.93
841.142	35.5
841.318	2.73
841.494	96.94
841.671	107.18
841.847	8.87
842.023	148.14
842.199	51.88
842.375	125.61
842.551	76.46
842.727	-13.65
842.903	117.42
843.079	49.83
843.255	68.27
843.431	-5.46
843.607	82.6
843.783	15.02
843.959	76.46
844.134	12.97
844.31	113.32
844.486	55.98
844.662	-3.41
844.838	60.07
845.013	113.32
845.189	88.75
845.365	49.83
845.541	74.41
845.716	21.16
845.892	84.65
846.068	51.88
846.244	-9.56
846.419	-19.8
846.595	80.55
846.77	92.84
846.946	74.41
847.122	12.97
847.297	113.32
847.473	58.03
847.648	35.5
847.824	45.74
847.999	47.79
848.175	113.32
848.35	55.98
848.526	23.21
848.701	68.27
848.876	62.12
849.052	-15.7
849.227	39.59
849.403	12.97
849.578	80.55
849.753	92.84
849.929	64.17
850.104	27.31
850.279	41.64
850.454	74.41
850.63	105.13
850.805	111.27
850.98	31.4
851.155	43.69
851.33	133.8
851.505	72.36
851.681	86.7
851.856	53.93
852.031	107.18
852.206	55.98
852.381	35.5
852.556	21.16
852.731	80.55
852.906	66.22
853.081	37.55
853.256	148.14
853.431	55.98
853.606	17.07
853.781	15.02
853.956	49.83
854.131	51.88
854.305	78.51
854.48	33.45
854.655	60.07
854.83	107.18
855.005	55.98
855.18	68.27
855.354	49.83
855.529	55.98
855.704	-3.41
855.879	15.02
856.053	21.16
856.228	115.37
856.403	17.07
856.577	133.8
856.752	66.22
856.926	148.14
857.101	47.79
857.276	53.93
857.45	39.59
857.625	78.51
857.799	107.18
857.974	37.55
858.148	70.31
858.323	131.75
858.497	45.74
858.672	41.64
858.846	33.45
859.02	105.13
859.195	-3.41
859.369	96.94
859.543	109.22
859.718	70.31
859.892	64.17
860.066	88.75
860.241	49.83
860.415	10.92
860.589	111.27
860.763	51.88
860.938	74.41
861.112	35.5
861.286	53.93
861.46	64.17
861.634	47.79
861.808	51.88
861.982	-73.04
862.157	-3.41
862.331	-7.51
862.505	74.41
862.679	33.45
862.853	35.5
863.027	21.16
863.201	55.98
863.375	58.03
863.549	55.98
863.722	64.17
863.896	29.35
864.07	53.93
864.244	41.64
864.418	21.16
864.592	58.03
864.766	84.65
864.939	27.31
865.113	55.98
865.287	-23.89
865.461	35.5
865.634	21.16
865.808	64.17
865.982	29.35
866.156	31.4
866.329	12.97
866.503	0.68
866.676	53.93
866.85	17.07
867.024	66.22
867.197	76.46
867.371	74.41
867.544	49.83
867.718	15.02
867.891	-3.41
868.065	6.83
868.238	-17.75
868.412	60.07
868.585	6.83
868.759	23.21
868.932	105.13
869.105	58.03
869.279	21.16
869.452	0.68
869.625	19.11
869.799	17.07
869.972	-38.23
870.145	47.79
870.319	39.59
870.492	25.26
870.665	68.27
870.838	107.18
871.011	60.07
871.185	31.4
871.358	43.69
871.531	62.12
871.704	10.92
871.877	15.02
872.05	21.16
872.223	37.55
872.396	37.55
872.569	21.16
872.742	49.83
872.915	-30.04
873.088	37.55
873.261	4.78
873.434	-13.65
873.607	-30.04
873.78	62.12
873.953	49.83
874.126	37.55
874.299	-34.13
874.471	-27.99
874.644	19.11
874.817	35.5
874.99	139.94
875.163	41.64
875.335	66.22
875.508	62.12
875.681	19.11
875.853	-13.65
876.026	29.35
876.199	92.84
876.371	33.45
876.544	62.12
876.717	-15.7
876.889	10.92
877.062	2.73
877.234	-23.89
877.407	39.59
877.579	6.83
877.752	94.89
877.924	64.17
878.097	162.47
878.269	64.17
878.442	101.03
878.614	31.4
878.786	51.88
878.959	35.5
879.131	-15.7
879.303	-36.18
879.476	-3.41
879.648	10.92
879.82	-64.85
879.993	-21.85
880.165	4.78
880.337	0.68
880.509	82.6
880.681	-64.85
880.854	45.74
881.026	51.88
881.198	2.73
881.37	49.83
881.542	17.07
881.714	-5.46
881.886	41.64
882.058	29.35
882.23	58.03
882.402	6.83
882.574	19.11
882.746	92.84
882.918	33.45
883.09	66.22
883.262	31.4
883.434	29.35
883.606	17.07
883.778	25.26
883.95	23.21
884.122	-7.51
884.293	92.84
884.465	43.69
884.637	64.17
884.809	53.93
884.98	45.74
885.152	31.4
885.324	27.31
885.496	6.83
885.667	98.99
885.839	33.45
886.011	45.74
886.182	45.74
886.354	55.98
886.525	70.31
886.697	72.36
886.869	0.68
887.04	37.55
887.212	-1.37
887.383	43.69
887.555	107.18
887.726	58.03
887.897	-3.41
888.069	19.11
888.24	84.65
888.412	47.79
888.583	21.16
888.754	8.87
888.926	78.51
889.097	39.59
889.268	35.5
889.44	49.83
889.611	70.31
889.782	17.07
889.953	27.31
890.125	58.03
890.296	27.31
890.467	-1.37
890.638	4.78
890.809	-9.56
890.98	55.98
891.151	68.27
891.323	107.18
891.494	10.92
891.665	55.98
891.836	43.69
892.007	0.68
892.178	-42.32
892.349	-21.85
892.52	33.45
892.691	41.64
892.862	74.41
893.032	15.02
893.203	0.68
893.374	-23.89
893.545	39.59
893.716	-42.32
893.887	19.11
894.057	47.79
894.228	43.69
894.399	43.69
894.57	90.79
894.74	10.92
894.911	58.03
895.082	21.16
895.253	113.32
895.423	-38.23
895.594	-7.51
895.764	70.31
895.935	31.4
896.106	-32.08
896.276	76.46
896.447	23.21
896.617	27.31
896.788	-11.61
896.958	-7.51
897.129	27.31
897.299	39.59
897.47	70.31
897.64	23.21
897.81	53.93
897.981	105.13
898.151	31.4
898.322	-23.89
898.492	45.74
898.662	55.98
898.832	-17.75
899.003	4.78
899.173	29.35
899.343	12.97
899.513	33.45
