Data from USB4F104151__37__12-27-20-894.txt Node

Date: Fri Mar 14 12:27:20 EDT 2025
User: louis
Spectrometer: USB4F10415
Trigger mode: 4
Integration Time (sec): 2.000000E-2
Scans to average: 1
Electric dark correction enabled: true
Nonlinearity correction enabled: false
Boxcar width: 0
XAxis mode: Wavelengths
Number of Pixels in Spectrum: 3648
>>>>>Begin Spectral Data<<<<<
178.204	-46.42
178.424	-46.42
178.644	-46.42
178.864	-150.87
179.084	-132.44
179.304	-27.99
179.524	-30.04
179.744	-52.56
179.964	12.97
180.184	2.73
180.404	-3.41
180.624	43.69
180.844	2.73
181.064	41.64
181.283	-44.37
181.503	-13.65
181.723	68.27
181.943	-30.04
182.163	33.45
182.383	31.4
182.602	41.64
182.822	29.35
183.042	-25.94
183.262	39.59
183.482	60.07
183.701	-50.52
183.921	53.93
184.141	10.92
184.361	70.31
184.58	-17.75
184.8	-25.94
185.02	27.31
185.239	2.73
185.459	25.26
185.679	-3.41
185.898	15.02
186.118	19.11
186.338	-15.7
186.557	53.93
186.777	19.11
186.997	-3.41
187.216	31.4
187.436	4.78
187.655	68.27
187.875	41.64
188.095	68.27
188.314	-11.61
188.534	2.73
188.753	-1.37
188.973	-13.65
189.192	62.12
189.412	86.7
189.631	33.45
189.851	39.59
190.07	25.26
190.29	41.64
190.509	-42.32
190.729	55.98
190.948	12.97
191.168	111.27
191.387	-15.7
191.607	29.35
191.826	-42.32
192.045	37.55
192.265	58.03
192.484	-42.32
192.704	33.45
192.923	-64.85
193.142	29.35
193.362	62.12
193.581	86.7
193.8	21.16
194.02	4.78
194.239	60.07
194.458	-11.61
194.678	92.84
194.897	39.59
195.116	10.92
195.335	-19.8
195.555	47.79
195.774	6.83
195.993	-25.94
196.212	-9.56
196.432	53.93
196.651	23.21
196.87	23.21
197.089	51.88
197.308	23.21
197.528	19.11
197.747	12.97
197.966	-56.66
198.185	17.07
198.404	4.78
198.623	37.55
198.842	51.88
199.062	6.83
199.281	53.93
199.5	51.88
199.719	64.17
199.938	17.07
200.157	29.35
200.376	-30.04
200.595	-5.46
200.814	-68.95
201.033	-60.76
201.252	6.83
201.471	6.83
201.69	37.55
201.909	-17.75
202.128	-11.61
202.347	72.36
202.566	-40.28
202.785	21.16
203.004	58.03
203.223	62.12
203.442	53.93
203.661	-44.37
203.879	33.45
204.098	86.7
204.317	-11.61
204.536	2.73
204.755	4.78
204.974	12.97
205.193	66.22
205.411	47.79
205.63	27.31
205.849	23.21
206.068	4.78
206.287	4.78
206.505	21.16
206.724	45.74
206.943	29.35
207.162	62.12
207.381	47.79
207.599	-23.89
207.818	-1.37
208.037	-15.7
208.255	-15.7
208.474	45.74
208.693	35.5
208.911	-9.56
209.13	-1.37
209.349	31.4
209.567	33.45
209.786	53.93
210.005	35.5
210.223	23.21
210.442	-1.37
210.661	-71
210.879	68.27
211.098	2.73
211.316	37.55
211.535	29.35
211.753	-17.75
211.972	19.11
212.191	-15.7
212.409	31.4
212.628	-13.65
212.846	8.87
213.065	-42.32
213.283	-21.85
213.502	31.4
213.72	-13.65
213.938	-21.85
214.157	-42.32
214.375	-13.65
214.594	4.78
214.812	-25.94
215.031	27.31
215.249	-3.41
215.467	53.93
215.686	23.21
215.904	78.51
216.122	-15.7
216.341	-7.51
216.559	8.87
216.778	101.03
216.996	2.73
217.214	-19.8
217.432	-46.42
217.651	6.83
217.869	-36.18
218.087	43.69
218.306	4.78
218.524	39.59
218.742	-56.66
218.96	27.31
219.179	21.16
219.397	-13.65
219.615	21.16
219.833	12.97
220.051	-5.46
220.27	78.51
220.488	-5.46
220.706	-15.7
220.924	2.73
221.142	53.93
221.36	21.16
221.578	2.73
221.796	15.02
222.015	23.21
222.233	49.83
222.451	92.84
222.669	21.16
222.887	8.87
223.105	-25.94
223.323	-64.85
223.541	15.02
223.759	55.98
223.977	-7.51
224.195	78.51
224.413	-9.56
224.631	-21.85
224.849	37.55
225.067	41.64
225.285	-46.42
225.503	55.98
225.721	-21.85
225.939	82.6
226.157	66.22
226.375	76.46
226.592	25.26
226.81	-25.94
227.028	51.88
227.246	35.5
227.464	-19.8
227.682	64.17
227.9	-50.52
228.117	-11.61
228.335	-9.56
228.553	37.55
228.771	-34.13
228.989	47.79
229.206	-38.23
229.424	0.68
229.642	-23.89
229.86	2.73
230.077	64.17
230.295	-11.61
230.513	-7.51
230.731	66.22
230.948	-1.37
231.166	72.36
231.384	-32.08
231.601	10.92
231.819	4.78
232.037	88.75
232.254	-48.47
232.472	23.21
232.689	12.97
232.907	113.32
233.125	51.88
233.342	-44.37
233.56	86.7
233.777	90.79
233.995	0.68
234.213	74.41
234.43	-11.61
234.648	-38.23
234.865	23.21
235.083	0.68
235.3	0.68
235.518	-34.13
235.735	60.07
235.953	17.07
236.17	25.26
236.388	-3.41
236.605	-52.56
236.822	70.31
237.04	58.03
237.257	-27.99
237.475	12.97
237.692	12.97
237.909	-32.08
238.127	68.27
238.344	39.59
238.562	35.5
238.779	-44.37
238.996	82.6
239.214	8.87
239.431	60.07
239.648	-13.65
239.865	115.37
240.083	25.26
240.3	-7.51
240.517	49.83
240.735	10.92
240.952	125.61
241.169	25.26
241.386	6.83
241.603	-60.76
241.821	-19.8
242.038	45.74
242.255	0.68
242.472	37.55
242.689	29.35
242.907	53.93
243.124	-11.61
243.341	70.31
243.558	-56.66
243.775	-58.71
243.992	-15.7
244.209	49.83
244.426	31.4
244.643	51.88
244.86	19.11
245.078	15.02
245.295	27.31
245.512	-7.51
245.729	21.16
245.946	-56.66
246.163	43.69
246.38	-7.51
246.597	19.11
246.814	-11.61
247.031	29.35
247.248	25.26
247.464	-15.7
247.681	-54.61
247.898	-30.04
248.115	25.26
248.332	-5.46
248.549	43.69
248.766	62.12
248.983	45.74
249.2	4.78
249.417	37.55
249.633	-3.41
249.85	53.93
250.067	-11.61
250.284	51.88
250.501	43.69
250.717	-17.75
250.934	-30.04
251.151	-21.85
251.368	4.78
251.585	53.93
251.801	4.78
252.018	8.87
252.235	17.07
252.451	19.11
252.668	-21.85
252.885	39.59
253.102	35.5
253.318	25.26
253.535	37.55
253.752	15.02
253.968	12.97
254.185	39.59
254.401	-15.7
254.618	-5.46
254.835	37.55
255.051	62.12
255.268	12.97
255.484	60.07
255.701	-23.89
255.917	70.31
256.134	-77.14
256.351	21.16
256.567	-40.28
256.784	-50.52
257	-15.7
257.217	10.92
257.433	37.55
257.65	27.31
257.866	43.69
258.082	8.87
258.299	-46.42
258.515	6.83
258.732	-7.51
258.948	33.45
259.165	19.11
259.381	51.88
259.597	6.83
259.814	29.35
260.03	37.55
260.246	0.68
260.463	8.87
260.679	43.69
260.895	43.69
261.112	15.02
261.328	12.97
261.544	8.87
261.761	68.27
261.977	0.68
262.193	6.83
262.409	35.5
262.626	-9.56
262.842	21.16
263.058	-9.56
263.274	58.03
263.49	105.13
263.707	-11.61
263.923	27.31
264.139	-9.56
264.355	-27.99
264.571	31.4
264.787	31.4
265.004	8.87
265.22	-9.56
265.436	-25.94
265.652	-32.08
265.868	-34.13
266.084	4.78
266.3	10.92
266.516	-17.75
266.732	0.68
266.948	-9.56
267.164	-27.99
267.38	-21.85
267.596	88.75
267.812	66.22
268.028	41.64
268.244	-60.76
268.46	117.42
268.676	-111.96
268.892	12.97
269.108	-25.94
269.324	6.83
269.54	-36.18
269.756	-30.04
269.972	-9.56
270.188	-9.56
270.403	-27.99
270.619	88.75
270.835	-36.18
271.051	19.11
271.267	8.87
271.483	-46.42
271.698	29.35
271.914	10.92
272.13	-36.18
272.346	-5.46
272.562	-5.46
272.777	51.88
272.993	-32.08
273.209	80.55
273.425	-32.08
273.64	-7.51
273.856	-30.04
274.072	-48.47
274.287	49.83
274.503	111.27
274.719	-36.18
274.934	-27.99
275.15	25.26
275.366	96.94
275.581	-58.71
275.797	0.68
276.012	25.26
276.228	60.07
276.444	-1.37
276.659	-25.94
276.875	4.78
277.09	21.16
277.306	64.17
277.521	45.74
277.737	21.16
277.952	96.94
278.168	0.68
278.383	47.79
278.599	-66.9
278.814	37.55
279.03	39.59
279.245	-7.51
279.461	35.5
279.676	23.21
279.892	0.68
280.107	-15.7
280.322	6.83
280.538	10.92
280.753	-21.85
280.969	17.07
281.184	15.02
281.399	23.21
281.615	31.4
281.83	25.26
282.045	-13.65
282.26	39.59
282.476	-1.37
282.691	-15.7
282.906	0.68
283.122	-3.41
283.337	6.83
283.552	19.11
283.767	51.88
283.983	70.31
284.198	27.31
284.413	-52.56
284.628	-15.7
284.843	37.55
285.058	78.51
285.274	-11.61
285.489	19.11
285.704	39.59
285.919	17.07
286.134	15.02
286.349	-50.52
286.564	109.22
286.779	10.92
286.995	-48.47
287.21	2.73
287.425	19.11
287.64	-36.18
287.855	8.87
288.07	-25.94
288.285	-25.94
288.5	8.87
288.715	8.87
288.93	72.36
289.145	66.22
289.36	17.07
289.575	-1.37
289.79	43.69
290.004	72.36
290.219	45.74
290.434	10.92
290.649	6.83
290.864	62.12
291.079	-21.85
291.294	66.22
291.509	45.74
291.724	-75.09
291.938	6.83
292.153	74.41
292.368	66.22
292.583	45.74
292.798	23.21
293.012	-13.65
293.227	-11.61
293.442	6.83
293.657	6.83
293.871	19.11
294.086	47.79
294.301	47.79
294.516	-9.56
294.73	27.31
294.945	12.97
295.16	39.59
295.374	47.79
295.589	39.59
295.804	27.31
296.018	-11.61
296.233	15.02
296.447	58.03
296.662	-34.13
296.877	27.31
297.091	17.07
297.306	55.98
297.52	6.83
297.735	-7.51
297.949	-5.46
298.164	41.64
298.378	29.35
298.593	39.59
298.807	-89.43
299.022	-36.18
299.236	17.07
299.451	-3.41
299.665	-9.56
299.88	33.45
300.094	47.79
300.309	72.36
300.523	-11.61
300.737	37.55
300.952	4.78
301.166	10.92
301.381	-21.85
301.595	41.64
301.809	-32.08
302.024	-62.8
302.238	21.16
302.452	-13.65
302.667	10.92
302.881	15.02
303.095	41.64
303.309	43.69
303.524	0.68
303.738	-7.51
303.952	-11.61
304.166	66.22
304.381	31.4
304.595	72.36
304.809	-23.89
305.023	-25.94
305.237	-3.41
305.452	19.11
305.666	62.12
305.88	4.78
306.094	-21.85
306.308	2.73
306.522	-38.23
306.736	10.92
306.95	29.35
307.164	47.79
307.379	-23.89
307.593	29.35
307.807	8.87
308.021	-23.89
308.235	12.97
308.449	37.55
308.663	-17.75
308.877	58.03
309.091	-11.61
309.305	39.59
309.519	25.26
309.733	51.88
309.947	47.79
310.161	12.97
310.374	23.21
310.588	37.55
310.802	-11.61
311.016	27.31
311.23	41.64
311.444	-32.08
311.658	29.35
311.872	86.7
312.085	-17.75
312.299	55.98
312.513	74.41
312.727	53.93
312.941	21.16
313.154	74.41
313.368	66.22
313.582	64.17
313.796	-11.61
314.009	-62.8
314.223	43.69
314.437	-46.42
314.651	21.16
314.864	-27.99
315.078	-9.56
315.292	23.21
315.505	-21.85
315.719	27.31
315.933	10.92
316.146	-3.41
316.36	2.73
316.573	-44.37
316.787	70.31
317.001	15.02
317.214	-48.47
317.428	0.68
317.641	-30.04
317.855	-9.56
318.068	-7.51
318.282	25.26
318.495	80.55
318.709	-27.99
318.922	-15.7
319.136	66.22
319.349	92.84
319.563	17.07
319.776	72.36
319.99	72.36
320.203	62.12
320.417	21.16
320.63	41.64
320.843	37.55
321.057	-1.37
321.27	-5.46
321.483	66.22
321.697	31.4
321.91	62.12
322.124	49.83
322.337	-5.46
322.55	15.02
322.763	35.5
322.977	-34.13
323.19	6.83
323.403	25.26
323.617	35.5
323.83	51.88
324.043	19.11
324.256	2.73
324.469	-9.56
324.683	17.07
324.896	27.31
325.109	-5.46
325.322	-50.52
325.535	35.5
325.748	-5.46
325.962	60.07
326.175	74.41
326.388	-1.37
326.601	29.35
326.814	41.64
327.027	17.07
327.24	62.12
327.453	-34.13
327.666	47.79
327.879	-15.7
328.092	-40.28
328.305	8.87
328.518	-7.51
328.731	-11.61
328.944	-25.94
329.157	-95.57
329.37	29.35
329.583	60.07
329.796	66.22
330.009	-5.46
330.222	47.79
330.435	-5.46
330.648	12.97
330.861	-3.41
331.073	35.5
331.286	41.64
331.499	-9.56
331.712	4.78
331.925	0.68
332.138	8.87
332.35	35.5
332.563	17.07
332.776	45.74
332.989	19.11
333.202	53.93
333.414	19.11
333.627	-19.8
333.84	66.22
334.053	29.35
334.265	17.07
334.478	-21.85
334.691	-27.99
334.903	-23.89
335.116	29.35
335.329	37.55
335.541	68.27
335.754	94.89
335.966	-21.85
336.179	58.03
336.392	0.68
336.604	39.59
336.817	23.21
337.029	37.55
337.242	-5.46
337.454	62.12
337.667	47.79
337.88	49.83
338.092	33.45
338.305	17.07
338.517	21.16
338.729	43.69
338.942	37.55
339.154	-36.18
339.367	-38.23
339.579	84.65
339.792	-3.41
340.004	49.83
340.217	-17.75
340.429	-1.37
340.641	47.79
340.854	-52.56
341.066	27.31
341.278	41.64
341.491	2.73
341.703	55.98
341.915	4.78
342.128	76.46
342.34	113.32
342.552	60.07
342.764	-38.23
342.977	-30.04
343.189	70.31
343.401	-36.18
343.613	51.88
343.826	21.16
344.038	-3.41
344.25	27.31
344.462	-1.37
344.674	10.92
344.886	-42.32
345.099	10.92
345.311	19.11
345.523	-3.41
345.735	-50.52
345.947	-1.37
346.159	19.11
346.371	-13.65
346.583	29.35
346.795	51.88
347.007	-5.46
347.219	-17.75
347.431	-30.04
347.643	133.8
347.855	-7.51
348.067	62.12
348.279	80.55
348.491	80.55
348.703	-3.41
348.915	-50.52
349.127	-27.99
349.339	12.97
349.551	31.4
349.763	53.93
349.975	53.93
350.187	84.65
350.399	45.74
350.61	35.5
350.822	39.59
351.034	58.03
351.246	33.45
351.458	12.97
351.669	80.55
351.881	51.88
352.093	15.02
352.305	72.36
352.517	17.07
352.728	33.45
352.94	103.08
353.152	10.92
353.363	6.83
353.575	25.26
353.787	119.46
353.999	-3.41
354.21	41.64
354.422	84.65
354.633	35.5
354.845	64.17
355.057	66.22
355.268	21.16
355.48	37.55
355.692	62.12
355.903	27.31
356.115	29.35
356.326	27.31
356.538	17.07
356.749	45.74
356.961	84.65
357.172	-1.37
357.384	-25.94
357.595	88.75
357.807	27.31
358.018	25.26
358.23	33.45
358.441	51.88
358.653	76.46
358.864	94.89
359.075	41.64
359.287	-19.8
359.498	-5.46
359.709	41.64
359.921	74.41
360.132	23.21
360.344	98.99
360.555	15.02
360.766	-32.08
360.977	35.5
361.189	23.21
361.4	17.07
361.611	84.65
361.823	-11.61
362.034	70.31
362.245	10.92
362.456	53.93
362.667	-15.7
362.879	-7.51
363.09	31.4
363.301	-13.65
363.512	45.74
363.723	6.83
363.935	12.97
364.146	-13.65
364.357	12.97
364.568	-62.8
364.779	0.68
364.99	88.75
365.201	-5.46
365.412	64.17
365.623	-13.65
365.834	84.65
366.045	29.35
366.256	45.74
366.467	115.37
366.678	101.03
366.889	0.68
367.1	62.12
367.311	37.55
367.522	-9.56
367.733	88.75
367.944	2.73
368.155	19.11
368.366	39.59
368.577	82.6
368.788	39.59
368.999	-40.28
369.209	-13.65
369.42	29.35
369.631	58.03
369.842	12.97
370.053	12.97
370.264	-30.04
370.474	64.17
370.685	-3.41
370.896	-27.99
371.107	76.46
371.317	80.55
371.528	86.7
371.739	82.6
371.95	6.83
372.16	23.21
372.371	49.83
372.582	70.31
372.792	35.5
373.003	-17.75
373.214	-25.94
373.424	68.27
373.635	82.6
373.846	21.16
374.056	25.26
374.267	-11.61
374.477	37.55
374.688	39.59
374.898	-38.23
375.109	27.31
375.319	33.45
375.53	127.66
375.74	10.92
375.951	29.35
376.161	25.26
376.372	117.42
376.582	45.74
376.793	21.16
377.003	23.21
377.214	-36.18
377.424	-15.7
377.635	-27.99
377.845	-52.56
378.055	92.84
378.266	-34.13
378.476	-30.04
378.686	37.55
378.897	53.93
379.107	31.4
379.317	12.97
379.528	23.21
379.738	72.36
379.948	27.31
380.158	51.88
380.369	35.5
380.579	76.46
380.789	72.36
380.999	47.79
381.21	-15.7
381.42	139.94
381.63	6.83
381.84	25.26
382.05	51.88
382.261	72.36
382.471	41.64
382.681	45.74
382.891	74.41
383.101	-13.65
383.311	12.97
383.521	4.78
383.731	49.83
383.941	8.87
384.151	33.45
384.361	29.35
384.571	47.79
384.781	21.16
384.991	121.51
385.201	103.08
385.411	49.83
385.621	45.74
385.831	53.93
386.041	37.55
386.251	60.07
386.461	29.35
386.671	29.35
386.881	72.36
387.091	17.07
387.301	62.12
387.511	109.22
387.72	45.74
387.93	29.35
388.14	-11.61
388.35	45.74
388.56	39.59
388.769	148.14
388.979	115.37
389.189	19.11
389.399	66.22
389.609	90.79
389.818	55.98
390.028	70.31
390.238	94.89
390.447	68.27
390.657	47.79
390.867	-3.41
391.076	12.97
391.286	119.46
391.496	53.93
391.705	29.35
391.915	15.02
392.125	66.22
392.334	92.84
392.544	35.5
392.753	-9.56
392.963	-68.95
393.172	33.45
393.382	27.31
393.591	68.27
393.801	4.78
394.01	101.03
394.22	19.11
394.429	68.27
394.639	23.21
394.848	27.31
395.058	98.99
395.267	96.94
395.477	94.89
395.686	10.92
395.895	154.28
396.105	41.64
396.314	10.92
396.524	19.11
396.733	47.79
396.942	72.36
397.152	74.41
397.361	53.93
397.57	123.56
397.78	68.27
397.989	25.26
398.198	156.33
398.407	121.51
398.617	55.98
398.826	66.22
399.035	55.98
399.244	8.87
399.453	141.99
399.663	123.56
399.872	53.93
400.081	51.88
400.29	49.83
400.499	86.7
400.708	86.7
400.917	101.03
401.127	19.11
401.336	-15.7
401.545	53.93
401.754	141.99
401.963	70.31
402.172	187.05
402.381	55.98
402.59	23.21
402.799	47.79
403.008	43.69
403.217	103.08
403.426	64.17
403.635	125.61
403.844	45.74
404.053	105.13
404.262	127.66
404.471	191.14
404.68	80.55
404.888	125.61
405.097	127.66
405.306	109.22
405.515	144.04
405.724	111.27
405.933	139.94
406.142	90.79
406.35	139.94
406.559	137.9
406.768	117.42
406.977	250.53
407.185	158.38
407.394	154.28
407.603	191.14
407.812	172.71
408.02	260.77
408.229	146.09
408.438	144.04
408.646	144.04
408.855	191.14
409.064	193.19
409.272	225.96
409.481	230.06
409.69	185
409.898	250.53
410.107	232.1
410.315	150.18
410.524	273.06
410.733	320.17
410.941	207.53
411.15	316.07
411.358	330.41
411.567	359.08
411.775	291.49
411.984	404.13
412.192	275.11
412.401	293.54
412.609	385.7
412.818	391.84
413.026	320.17
413.234	359.08
413.443	363.17
413.651	393.89
413.86	494.24
414.068	504.48
414.276	510.63
414.485	467.62
414.693	529.06
414.901	570.02
415.11	535.2
415.318	561.83
415.526	545.44
415.734	633.51
415.943	641.7
416.151	627.36
416.359	639.65
416.567	631.46
416.776	719.52
416.984	701.09
417.192	834.21
417.4	735.9
417.608	776.86
417.817	770.72
418.025	785.05
418.233	893.6
418.441	879.26
418.649	864.93
418.857	1055.39
419.065	993.95
419.273	987.8
419.481	1086.11
419.689	1098.39
419.897	1247.9
420.105	1172.12
420.313	1108.63
420.521	1243.8
420.729	1389.21
420.937	1342.1
421.145	1368.73
421.353	1493.65
421.561	1338.01
421.769	1546.9
421.977	1591.95
422.185	1606.29
422.393	1651.35
422.601	1739.41
422.809	1831.57
423.017	1772.18
423.224	1874.57
423.432	1966.73
423.64	1981.07
423.848	2167.43
424.056	2108.04
424.263	2316.94
424.471	2329.22
424.679	2247.3
424.887	2415.24
425.094	2534.02
425.302	2435.72
425.51	2617.99
425.718	2671.23
425.925	2652.8
426.133	2767.49
426.341	3048.06
426.548	3078.78
426.756	3119.74
426.964	3111.55
427.171	3273.34
427.379	3414.65
427.586	3402.36
427.794	3586.68
428.001	3625.59
428.209	3938.93
428.417	3768.95
428.624	4254.31
428.832	4082.28
429.039	4063.85
429.247	4082.28
429.454	4487.78
429.662	4743.78
429.869	4383.34
430.076	4866.66
430.284	4440.68
430.491	4786.79
430.699	5130.84
430.906	5079.65
431.114	5175.9
431.321	5276.25
431.528	5458.52
431.736	5794.39
431.943	6023.76
432.15	5993.04
432.358	5988.94
432.565	6189.64
432.772	6201.93
432.979	6660.68
433.187	6775.36
433.394	6810.18
433.601	7328.31
433.808	7258.68
434.016	7404.09
434.223	7512.63
434.43	8110.64
434.637	7754.29
434.844	8333.87
435.052	8421.93
435.259	8360.49
435.466	8438.31
435.673	8528.42
435.88	9024.03
436.087	9531.93
436.294	9523.74
436.501	9302.56
436.708	9468.44
436.915	9765.4
437.122	10054.16
437.329	10105.36
437.537	10498.57
437.743	10715.66
437.95	10611.21
438.157	11155.97
438.364	11448.83
438.571	11661.82
438.778	11680.25
438.985	12655.08
439.192	12036.59
439.399	12560.88
439.606	12384.75
439.813	12980.71
440.02	13877.72
440.227	13599.2
440.433	13277.66
440.64	14092.76
440.847	13758.94
441.054	14105.04
441.261	14977.48
441.467	14635.47
441.674	15204.8
441.881	15897.02
442.088	15704.51
442.294	15411.65
442.501	15823.29
442.708	16329.14
442.914	16820.65
443.121	17844.63
443.328	17215.91
443.534	18403.73
443.741	17742.24
443.948	17527.2
444.154	19138.95
444.361	18860.43
444.568	19122.57
444.774	19179.91
444.981	19181.96
445.187	19708.29
445.394	20568.43
445.6	20590.96
445.807	22266.2
446.013	21338.47
446.22	21864.8
446.426	22604.11
446.633	23071.05
446.839	23540.04
447.046	22634.83
447.252	23947.58
447.459	24353.08
447.665	23972.16
447.871	24750.39
448.078	25762.08
448.284	25012.53
448.491	25512.23
448.697	26237.21
448.903	26808.59
449.11	27121.93
449.316	26564.89
449.522	27289.87
449.728	27681.03
449.935	28195.07
450.141	27828.48
450.347	28580.09
450.553	27607.3
450.76	27965.7
450.966	28664.05
451.172	28893.43
451.378	29354.22
451.584	28834.03
451.791	29460.71
451.997	29491.43
452.203	30052.58
452.409	30075.1
452.615	30048.48
452.821	28569.85
453.027	28645.62
453.233	30009.57
453.44	28602.61
453.646	29176.05
453.852	28885.23
454.058	29462.76
454.264	28713.2
454.47	29581.54
454.676	28897.52
454.882	29747.43
455.088	26902.8
455.294	27621.64
455.5	28332.28
455.705	28305.66
455.911	27230.48
456.117	26700.05
456.323	26353.94
456.529	25059.63
456.735	26282.27
456.941	25364.78
457.147	24957.23
457.352	24234.3
457.558	24019.26
457.764	23845.18
457.97	23775.55
458.176	22915.4
458.381	22853.97
458.587	21961.05
458.793	22143.32
458.999	20644.21
459.204	22366.55
459.41	21465.44
459.616	20441.46
459.821	20062.58
460.027	20248.95
460.233	19532.16
460.438	18512.27
460.644	18964.87
460.85	18241.94
461.055	17742.24
461.261	17803.67
461.466	16400.82
461.672	15890.87
461.878	17156.52
462.083	15880.63
462.289	15911.35
462.494	15440.32
462.7	14514.64
462.905	14420.43
463.111	14901.7
463.316	15061.44
463.522	14549.45
463.727	14592.46
463.932	14623.18
464.138	14320.08
464.343	14698.95
464.549	14287.31
464.754	14709.19
464.959	14463.44
465.165	14311.89
465.37	13803.99
465.575	13314.53
465.781	14025.17
465.986	13832.66
466.191	13601.24
466.397	13253.09
466.602	12409.33
466.807	13169.12
467.012	13216.22
467.218	13005.28
467.423	12845.54
467.628	13079.01
467.833	13447.65
468.038	13193.7
468.244	12542.44
468.449	13216.22
468.654	12706.28
468.859	12583.4
469.064	12351.98
469.269	12126.71
469.474	12034.55
469.679	12200.43
469.885	12087.79
470.09	12268.02
470.295	12308.97
470.5	11821.56
470.705	11948.53
470.91	11653.62
471.115	11598.33
471.32	11751.93
471.525	11803.13
471.73	11452.92
471.935	11401.72
472.139	10832.39
472.344	11168.26
472.549	10971.65
472.754	10867.2
472.959	10789.38
473.164	10258.96
473.369	10299.92
473.574	10736.13
473.778	10654.22
473.983	10549.77
474.188	10398.22
474.393	9814.55
474.598	9912.85
474.802	9861.65
475.007	9863.7
475.212	9875.99
475.417	9579.03
475.621	9462.3
475.826	9458.2
476.031	9212.45
476.235	9198.11
476.44	9194.01
476.645	9275.93
476.849	9263.65
477.054	8903.2
477.259	8944.16
477.463	8927.78
477.668	8690.21
477.872	8895.01
478.077	8765.99
478.282	8333.87
478.486	8432.17
478.691	8311.34
478.895	8186.41
479.1	8180.27
479.304	8311.34
479.509	7936.56
479.713	8077.87
479.918	7899.7
480.122	7832.12
480.326	7899.7
480.531	8047.15
480.735	7780.92
480.94	7748.15
481.144	8088.11
481.348	7797.3
481.553	7883.31
481.757	7705.14
481.961	7682.61
482.166	7807.54
482.37	7522.87
482.574	7506.49
482.778	7641.65
482.983	7723.57
483.187	7668.28
483.391	7723.57
483.595	7694.9
483.8	7604.79
484.004	7754.29
484.208	7858.74
484.412	7512.63
484.616	7617.08
484.821	7739.96
485.025	7475.77
485.229	7653.94
485.433	7578.17
485.637	7782.96
485.841	7678.52
486.045	7467.58
486.249	7748.15
486.453	7586.36
486.657	7608.89
486.861	7629.37
487.065	7461.43
487.269	7565.88
487.473	7496.25
487.677	7447.1
487.881	7713.33
488.085	7377.47
488.289	7440.95
488.493	7801.4
488.697	7662.13
488.901	7760.44
489.105	7832.12
489.309	7762.48
489.512	7690.81
489.716	7707.19
489.92	7690.81
490.124	7821.88
490.328	7782.96
490.531	7688.76
490.735	7844.4
490.939	7918.13
491.143	7770.68
491.346	7721.52
491.55	8032.82
491.754	7944.75
491.958	7901.75
492.161	8092.21
492.365	7965.23
492.569	8022.58
492.772	8034.86
492.976	8221.23
493.18	8147.5
493.383	8133.17
493.587	8153.65
493.79	8395.31
493.994	8145.45
494.197	8458.79
494.401	8401.45
494.605	8639.01
494.808	8503.85
495.012	8694.31
495.215	8534.57
495.419	8852
495.622	8415.79
495.825	8694.31
496.029	8950.31
496.232	8876.58
496.436	9101.86
496.639	9300.51
496.843	9005.6
497.046	9501.21
497.249	9439.77
497.453	9417.24
497.656	9667.1
497.859	9599.51
498.063	9556.5
498.266	9990.67
498.469	9669.14
498.673	9763.35
498.876	10007.06
499.079	10134.03
499.282	10181.14
499.485	10392.08
499.689	10543.63
499.892	10566.15
500.095	10674.7
500.298	10777.09
500.501	10820.1
500.705	11067.91
500.908	11211.26
501.111	11350.53
501.314	11465.21
501.517	11479.55
501.72	11667.96
501.923	11600.38
502.126	12005.88
502.329	12132.85
502.532	12184.05
502.735	12147.19
502.938	12556.78
503.141	12573.16
503.344	12653.03
503.547	12743.14
503.75	12911.08
503.953	13138.4
504.156	13390.3
504.359	13416.93
504.562	13492.7
504.765	13818.33
504.968	13951.45
505.17	14027.22
505.373	14109.14
505.576	14234.07
505.779	14363.09
505.982	14602.7
506.185	14854.6
506.387	14946.76
506.59	14920.14
506.793	15137.22
506.996	15190.47
507.198	15677.88
507.401	15489.47
507.604	15813.05
507.807	15915.45
508.009	16298.42
508.212	16036.28
508.415	16357.81
508.617	16691.63
508.82	16589.23
509.022	16738.73
509.225	17162.66
509.428	17279.39
509.63	17236.39
509.833	17381.79
510.035	17586.59
510.238	17768.86
510.44	17949.08
510.643	17994.14
510.845	18260.37
511.048	18350.48
511.25	18444.69
511.453	18768.27
511.655	19435.91
511.858	18956.68
512.06	19171.72
512.262	19415.43
512.465	19646.85
512.667	19777.92
512.87	19689.85
513.072	20445.55
513.274	20412.79
513.477	20801.9
513.679	20875.63
513.881	20828.52
514.084	21270.89
514.286	20967.79
514.488	21315.94
514.69	22096.22
514.893	22042.97
515.095	21784.93
515.297	22288.73
515.499	22393.17
515.701	22708.56
515.904	22927.69
516.106	22792.53
516.308	23550.28
516.51	23316.81
516.712	23372.1
516.914	23664.96
517.116	24248.63
517.318	24236.34
517.52	24115.51
517.722	24375.61
517.925	24678.71
518.127	24736.05
518.329	24940.85
518.531	25334.06
518.733	25792.8
518.935	25567.52
519.136	25762.08
519.338	26288.41
519.54	26169.63
519.742	26188.06
519.944	26591.51
520.146	27091.21
520.348	27007.25
520.55	26984.72
520.752	27291.91
520.954	28213.5
521.155	27832.58
521.357	28420.35
521.559	28160.25
521.761	28508.41
521.963	28424.44
522.164	28584.18
522.366	28958.96
522.568	29012.21
522.77	29292.78
522.971	29448.43
523.173	29536.49
523.375	29757.67
523.576	29935.84
523.778	29866.21
523.98	30372.06
524.181	30300.38
524.383	30556.38
524.584	30378.2
524.786	30806.23
524.988	30755.03
525.189	31094.99
525.391	31516.87
525.592	31469.77
525.794	31555.79
525.995	31574.22
526.197	31656.14
526.398	31514.83
526.6	31789.25
526.801	31961.28
527.003	32016.58
527.204	31768.77
527.406	32415.93
527.607	32510.14
527.808	32835.77
528.01	31975.62
528.211	32469.18
528.412	33378.48
528.614	33003.7
528.815	33228.98
529.016	33620.14
529.218	33104.05
529.419	33128.63
529.62	33255.6
529.822	33507.5
530.023	33052.85
530.224	33251.5
530.425	33484.97
530.626	33271.98
530.828	33175.73
531.029	33994.92
531.23	33689.77
531.431	33286.32
531.632	33525.93
531.833	33851.56
532.035	33685.67
532.236	34078.88
532.437	33847.46
532.638	33767.59
532.839	33611.95
533.04	34052.26
533.241	33597.61
533.442	34293.92
533.643	34318.49
533.844	33847.46
534.045	34328.73
534.246	34138.27
534.447	34424.99
534.648	33898.66
534.849	34349.21
535.05	34078.88
535.251	34113.7
535.451	33953.96
535.652	33982.63
535.853	34277.54
536.054	34279.58
536.255	34027.68
536.456	34267.3
536.657	34441.37
536.857	34152.61
537.058	34410.65
537.259	34441.37
537.46	34351.26
537.66	34269.34
537.861	34400.41
538.062	34146.47
538.263	34068.64
538.463	34121.89
538.664	34089.12
538.865	34416.8
539.065	34457.76
539.266	33951.91
539.466	34517.15
539.667	34011.3
539.868	34599.07
540.068	34003.11
540.269	34361.5
540.469	34488.48
540.67	34285.73
540.87	34154.66
541.071	34058.4
541.271	34642.07
541.472	34332.83
541.672	33900.71
541.873	34042.02
542.073	33468.59
542.274	34498.72
542.474	34082.98
542.675	34072.74
542.875	34453.66
543.075	34242.72
543.276	33644.71
543.476	34334.88
543.676	34134.18
543.877	34277.54
544.077	34293.92
544.277	34072.74
544.478	33775.78
544.678	34064.55
544.878	34482.33
545.078	34195.62
545.279	33999.01
545.479	33886.37
545.679	34263.2
545.879	34191.52
546.079	34130.08
546.28	34072.74
546.48	33999.01
546.68	34109.6
546.88	34168.99
547.08	33958.05
547.28	34091.17
547.48	33884.33
547.68	34353.31
547.88	33808.55
548.081	33826.98
548.281	34042.02
548.481	34013.35
548.681	34244.77
548.881	33999.01
549.081	34132.13
549.28	33890.47
549.48	34107.55
549.68	33659.05
549.88	34187.42
550.08	34078.88
550.28	34351.26
550.48	34007.2
550.68	34132.13
550.88	33738.92
551.08	33826.98
551.279	33999.01
551.479	33753.26
551.679	33968.29
551.879	33943.72
552.079	33966.24
552.278	33859.75
552.478	33806.5
552.678	34023.59
552.878	34119.84
553.077	33708.2
553.277	33413.29
553.477	34085.03
553.676	33609.9
553.876	33708.2
554.076	33536.17
554.275	33314.99
554.475	33349.81
554.674	33644.71
554.874	33568.94
555.074	33810.6
555.273	33657
555.473	33765.54
555.672	33267.89
555.872	33861.8
556.071	33853.61
556.271	33597.61
556.47	33106.1
556.67	33345.71
556.869	33149.1
557.068	33243.31
557.268	33106.1
557.467	33519.79
557.667	33345.71
557.866	33384.62
558.065	33239.22
558.265	33175.73
558.464	33147.06
558.663	33548.46
558.863	32936.12
559.062	33456.3
559.261	32657.59
559.461	33159.34
559.66	32768.18
559.859	32868.53
560.058	32917.68
560.258	32647.35
560.457	32352.44
560.656	32684.22
560.855	32581.82
561.054	32682.17
561.253	32602.3
561.453	32600.25
561.652	32608.44
561.851	32422.08
562.05	32434.36
562.249	32000.19
562.448	33058.99
562.647	32667.83
562.846	32186.56
563.045	32501.95
563.244	32147.65
563.443	32592.06
563.642	31871.17
563.841	32415.93
564.04	31682.76
564.239	32381.12
564.438	31662.28
564.637	32172.22
564.836	32094.4
565.035	31658.18
565.234	32137.41
565.432	31570.12
565.631	31928.52
565.83	31733.96
566.029	31701.19
566.228	31260.88
566.427	31371.47
566.625	31316.17
566.824	31029.46
567.023	31598.79
567.222	31209.68
567.42	31453.39
567.619	31244.49
567.818	31154.38
568.016	30863.57
568.215	31398.09
568.414	30877.91
568.612	31303.88
568.811	30773.46
569.01	30929.11
569.208	30718.17
569.407	30746.84
569.605	30957.78
569.804	31058.13
570.002	30175.45
570.201	30978.26
570.4	30583
570.598	30382.3
570.797	30212.32
570.995	30191.84
571.193	29989.09
571.392	30275.8
571.59	29880.55
571.789	29972.71
571.987	30128.35
572.186	30066.91
572.384	29726.95
572.582	30173.41
572.781	30025.95
572.979	29178.09
573.177	29958.37
573.376	29991.14
573.574	29133.04
573.772	29612.26
573.971	28838.13
574.169	29133.04
574.367	29268.2
574.565	29413.61
574.763	29014.26
574.962	29096.17
575.16	28997.87
575.358	29073.65
575.556	28795.12
575.754	29077.74
575.952	28283.13
576.151	29077.74
576.349	28313.85
576.547	28414.2
576.745	28856.56
576.943	28696.82
577.141	28449.02
577.339	28625.14
577.537	28360.95
577.735	28559.61
577.933	28084.48
578.131	28137.73
578.329	28166.4
578.527	28141.82
578.725	27861.25
578.923	28172.54
579.121	27693.32
579.319	27613.45
579.516	27791.62
579.714	27941.12
579.912	27619.59
580.11	27451.66
580.308	27470.09
580.506	27410.7
580.704	27113.74
580.901	27375.88
581.099	27228.43
581.297	27175.18
581.495	26986.77
581.692	27040.01
581.89	26812.69
582.088	26880.27
582.285	26906.9
582.483	27046.16
582.681	26857.74
582.878	26630.42
583.076	26695.96
583.274	26683.67
583.471	26634.52
583.669	26417.43
583.866	26513.69
584.064	26755.35
584.262	26347.8
584.459	26652.95
584.657	26312.99
584.854	26390.81
585.052	26028.32
585.249	26032.41
585.447	25954.59
585.644	25628.96
585.841	25731.36
586.039	26296.6
586.236	25362.73
586.434	25700.64
586.631	25375.02
586.828	25600.29
587.026	25491.75
587.223	25280.81
587.42	25475.37
587.618	25567.52
587.815	25039.15
588.012	25137.45
588.21	24897.84
588.407	25501.99
588.604	25035.05
588.801	24863.02
588.999	25184.55
589.196	25137.45
589.393	24742.19
589.59	24756.53
589.787	24631.6
589.984	24602.93
590.182	24095.03
590.379	24684.85
590.576	24275.26
590.773	24480.05
590.97	24162.62
591.167	24545.59
591.364	24009.02
591.561	24000.83
591.758	23615.81
591.955	24076.6
592.152	24285.5
592.349	23644.48
592.546	23941.44
592.743	23914.81
592.94	23525.7
593.137	23662.91
593.334	23580.99
593.531	23277.9
593.727	23693.63
593.924	23236.94
594.121	23241.03
594.318	23015.76
594.515	23308.61
594.712	23482.69
594.908	23136.59
595.105	23456.07
595.302	22473.04
595.499	22849.87
595.696	22722.9
595.892	22528.34
596.089	22817.1
596.286	22532.43
596.482	22522.19
596.679	22530.39
596.876	22890.83
597.072	22059.35
597.269	22184.28
597.466	21897.56
597.662	22073.69
597.859	22149.46
598.055	22305.11
598.252	21940.57
598.448	22128.99
598.645	22081.88
598.841	21660
599.038	21637.47
599.234	21813.6
599.431	21588.32
599.627	21516.64
599.824	21668.19
600.02	21262.69
600.217	21621.09
600.413	21211.49
600.609	21277.03
600.806	21459.3
601.002	21451.11
601.198	21105
601.395	21055.85
601.591	20896.11
601.787	20867.44
601.984	21123.43
602.18	21131.62
602.376	21236.07
602.572	20570.48
602.769	20822.38
602.965	20574.58
603.161	20812.14
603.357	20468.08
603.553	20490.61
603.75	20679.02
603.946	20418.93
604.142	20470.13
604.338	20248.95
604.534	20222.33
604.73	19990.91
604.926	20033.91
605.122	20169.08
605.318	20148.6
605.514	20029.82
605.71	19980.67
605.906	19650.94
606.102	19730.81
606.298	19718.53
606.494	19753.34
606.69	19505.54
606.886	19753.34
607.082	19609.98
607.278	19632.51
607.474	19255.68
607.67	19380.61
607.866	19286.4
608.062	19472.77
608.257	19300.74
608.453	19521.92
608.649	19456.39
608.845	19267.97
609.041	18944.39
609.236	19032.46
609.432	18981.26
609.628	18833.8
609.824	19257.73
610.019	18897.29
610.215	18872.71
610.411	18948.49
610.606	18751.88
610.802	19089.8
610.998	18817.42
611.193	18581.9
611.389	19038.6
611.584	18669.97
611.78	18428.31
611.976	18532.75
612.171	18463.12
612.367	18651.53
612.562	18604.43
612.758	18229.65
612.953	18284.95
613.149	18764.17
613.344	18545.04
613.539	18375.06
613.735	18520.46
613.93	18270.61
614.126	18491.79
614.321	18502.03
614.517	18379.15
614.712	18278.8
614.907	18180.5
615.103	18473.36
615.298	17998.23
615.493	18407.83
615.688	17979.8
615.884	18491.79
616.079	18084.25
616.274	18153.88
616.47	17998.23
616.665	17934.75
616.86	18024.86
617.055	17641.89
617.25	17729.95
617.445	17826.2
617.641	17645.98
617.836	17684.89
618.031	17635.74
618.226	17781.15
618.421	17686.94
618.616	17609.12
618.811	17265.06
619.006	17478.05
619.201	17220
619.396	17052.07
619.591	17217.96
619.786	17316.26
619.981	16927.14
620.176	17086.89
620.371	17084.84
620.566	16935.34
620.761	16720.3
620.956	16980.39
621.151	16667.05
621.346	16576.94
621.541	16560.56
621.735	16673.2
621.93	16193.97
622.125	16581.04
622.32	16214.45
622.515	16146.87
622.709	16075.19
622.904	15972.79
623.099	16015.8
623.294	15907.26
623.488	15575.48
623.683	15944.12
623.878	15237.57
624.072	15544.77
624.267	15473.09
624.462	15655.36
624.656	15344.06
624.851	15354.3
625.046	15043.01
625.24	15430.08
625.435	15145.41
625.629	15190.47
625.824	14948.81
626.018	14823.88
626.213	14524.88
626.407	14565.84
626.602	14592.46
626.796	14514.64
626.991	14494.16
627.185	14598.6
627.38	14242.26
627.574	14125.52
627.768	14033.36
627.963	14160.34
628.157	14082.52
628.352	13830.62
628.546	13679.07
628.74	14002.64
628.935	13709.79
629.129	13986.26
629.323	13621.72
629.517	13537.76
629.712	13455.84
629.906	13494.75
630.1	13138.4
630.294	13244.9
630.489	13136.35
630.683	13353.44
630.877	13025.76
631.071	13083.11
631.265	12820.97
631.459	12939.75
631.653	12937.7
631.848	12751.34
632.042	12524.01
632.236	12702.18
632.43	12487.15
632.624	12579.31
632.818	12585.45
633.012	12276.21
633.206	12362.22
633.4	12214.77
633.594	12005.88
633.788	12050.93
633.982	12233.2
634.176	12098.03
634.369	11794.93
634.563	11932.15
634.757	11856.37
634.951	11667.96
635.145	11667.96
635.339	11926
635.533	11500.03
635.726	11813.37
635.92	11420.16
636.114	11418.11
636.308	11426.3
636.501	11092.48
636.695	11336.19
636.889	11121.15
637.083	11284.99
637.276	11012.61
637.47	10910.21
637.664	11043.33
637.857	10930.69
638.051	11035.14
638.244	10877.44
638.438	10885.64
638.632	10594.82
638.825	10443.28
639.019	10574.35
639.212	10422.8
639.406	10473.99
639.599	10527.24
639.793	10281.49
639.986	10222.09
640.18	10416.65
640.373	10304.01
640.567	10103.31
640.76	10058.26
640.954	10218
641.147	10103.31
641.34	9867.8
641.534	9773.59
641.727	9708.05
641.92	9955.86
642.114	9740.82
642.307	9701.91
642.5	9822.74
642.694	9667.1
642.887	9331.23
643.08	9677.33
643.273	9368.09
643.467	9437.72
643.66	9382.43
643.853	9347.61
644.046	9126.43
644.239	9155.1
644.432	9110.05
644.626	9110.05
644.819	9005.6
645.012	9095.71
645.205	8989.22
645.398	9021.98
645.591	8813.09
645.784	8751.65
645.977	8704.55
646.17	8837.67
646.363	8804.9
646.556	8618.54
646.749	8882.72
646.942	8628.77
647.135	8530.47
647.328	8647.21
647.521	8612.39
647.714	8528.42
647.907	8278.57
648.099	8448.55
648.292	8217.13
648.485	8618.54
648.678	7985.71
648.871	8102.45
649.064	7950.9
649.256	8165.93
649.449	8110.64
649.642	8333.87
649.835	7979.57
650.027	7957.04
650.22	7875.12
650.413	7653.94
650.605	7934.51
650.798	7834.16
650.991	7881.27
651.183	7678.52
651.376	7547.45
651.568	7619.13
651.761	7756.34
651.954	7776.82
652.146	7541.3
652.339	7594.55
652.531	7541.3
652.724	7500.34
652.916	7373.37
653.109	7412.28
653.301	7619.13
653.494	7281.21
653.686	7209.53
653.879	7270.97
654.071	7236.16
654.263	7129.66
654.456	7107.13
654.648	7277.12
654.84	7006.78
655.033	6957.63
655.225	6877.76
655.417	6910.53
655.61	6943.3
655.802	6926.91
655.994	6808.13
656.186	7047.74
656.379	6810.18
656.571	6754.88
656.763	6488.65
656.955	6607.43
657.148	6554.18
657.34	6488.65
657.532	6570.57
657.724	6578.76
657.916	6416.97
658.108	6435.4
658.3	6431.3
658.492	6464.07
658.684	6341.19
658.876	6208.08
659.068	6474.31
659.26	6367.82
659.452	6244.94
659.644	6300.23
659.836	6064.72
660.028	6269.51
660.22	5995.09
660.412	6103.63
660.604	6009.42
660.796	6019.66
660.988	5904.98
661.18	5841.49
661.372	5898.83
661.563	5923.41
661.755	5790.29
661.947	5859.92
662.139	5712.47
662.331	5730.9
662.522	5743.19
662.714	5745.23
662.906	5560.92
663.097	5724.76
663.289	5681.75
663.481	5571.16
663.673	5632.6
663.864	5794.39
664.056	5540.44
664.247	5573.21
664.439	5491.29
664.631	5444.18
664.822	5360.22
665.014	5388.89
665.205	5386.84
665.397	5290.59
665.588	5360.22
665.78	5345.88
665.971	5306.97
666.163	5298.78
666.354	5368.41
666.546	5319.26
666.737	5055.07
666.929	5278.3
667.12	5102.17
667.311	5139.04
667.503	5206.62
667.694	5048.93
667.885	5081.69
668.077	5067.36
668.268	5028.45
668.459	5077.6
668.651	5059.17
668.842	5132.89
669.033	5024.35
669.224	4848.22
669.416	4983.39
669.607	4991.58
669.798	4911.71
669.989	4954.72
670.18	4721.25
670.371	4741.73
670.563	4637.28
670.754	4737.63
670.945	4801.12
671.136	4862.56
671.327	4735.59
671.518	4610.66
671.709	4721.25
671.9	4772.45
672.091	4719.2
672.282	4633.19
672.473	4696.68
672.664	4577.89
672.855	4596.32
673.046	4590.18
673.237	4598.37
673.428	4498.02
673.619	4649.57
673.809	4508.26
674	4518.5
674.191	4541.03
674.382	4321.9
674.573	4532.84
674.764	4299.37
674.954	4395.62
675.145	4319.85
675.336	4473.45
675.527	4334.18
675.717	4215.4
675.908	4369
676.099	4379.24
676.289	4289.13
676.48	4168.3
676.671	4252.27
676.861	4291.18
677.052	4229.74
677.243	4239.98
677.433	4188.78
677.624	4225.64
677.814	4196.97
678.005	4092.52
678.195	4143.72
678.386	4219.5
678.576	4010.61
678.767	4184.68
678.957	4199.02
679.148	4192.87
679.338	4178.54
679.529	4029.04
679.719	4031.09
679.909	4176.49
680.1	4037.23
680.29	4035.18
680.481	4199.02
680.671	3983.98
680.861	4029.04
681.052	3977.84
681.242	4018.8
681.432	4094.57
681.622	3914.35
681.813	3877.49
682.003	3963.5
682.193	3902.06
682.383	4008.56
682.573	3936.88
682.764	3830.38
682.954	3914.35
683.144	3994.22
683.334	3838.58
683.524	3983.98
683.714	3787.38
683.904	3787.38
684.094	3824.24
684.284	3846.77
684.474	3971.69
684.664	3859.06
684.854	3732.08
685.044	3848.82
685.234	3768.95
685.424	3678.83
685.614	3859.06
685.804	3725.94
685.994	3619.44
686.184	3496.57
686.374	3721.84
686.564	3603.06
686.753	3545.72
686.943	3555.96
687.133	3615.35
687.323	3619.44
687.513	3592.82
687.702	3478.13
687.892	3619.44
688.082	3498.61
688.272	3562.1
688.461	3418.74
688.651	3398.26
688.841	3408.5
689.03	3486.33
689.22	3500.66
689.41	3428.98
689.599	3437.17
689.789	3422.84
689.979	3443.32
690.168	3390.07
690.358	3351.16
690.547	3316.34
690.737	3371.64
690.926	3392.12
691.116	3304.06
691.305	3168.89
691.495	3242.62
691.684	3142.27
691.874	3191.42
692.063	3254.9
692.252	3195.51
692.442	3224.19
692.631	3215.99
692.82	3164.79
693.01	3029.63
693.199	3068.54
693.388	3093.12
693.578	3191.42
693.767	3007.1
693.956	3029.63
694.146	3048.06
694.335	2916.99
694.524	3005.05
694.713	2957.95
694.902	2994.81
695.092	2902.65
695.281	3000.96
695.47	2867.84
695.659	2916.99
695.848	2962.05
696.037	2990.72
696.226	2992.76
696.415	2835.07
696.604	2833.02
696.793	2814.59
696.982	3011.2
697.171	2896.51
697.36	2910.85
697.549	2749.06
697.738	2830.98
697.927	2658.95
698.116	2790.02
698.305	2812.54
698.494	2812.54
698.683	2785.92
698.872	2826.88
699.061	2722.43
699.25	2810.5
699.438	2822.78
699.627	2683.52
699.816	2716.29
700.005	2712.19
700.193	2615.94
700.382	2638.47
700.571	2794.11
700.76	2699.91
700.948	2667.14
701.137	2527.88
701.326	2785.92
701.514	2624.13
701.703	2749.06
701.892	2658.95
702.08	2708.1
702.269	2534.02
702.457	2658.95
702.646	2728.58
702.834	2663.04
703.023	2644.61
703.212	2787.97
703.4	2644.61
703.589	2491.01
703.777	2640.51
703.965	2708.1
704.154	2675.33
704.342	2562.69
704.531	2515.59
704.719	2570.88
704.907	2615.94
705.096	2599.56
705.284	2581.12
705.472	2554.5
705.661	2579.08
705.849	2568.84
706.037	2560.64
706.226	2620.03
706.414	2574.98
706.602	2656.9
706.79	2620.03
706.979	2697.86
707.167	2529.92
707.355	2617.99
707.543	2609.79
707.731	2699.91
707.919	2552.45
708.107	2617.99
708.296	2579.08
708.484	2511.49
708.672	2646.66
708.86	2579.08
709.048	2484.87
709.236	2728.58
709.424	2595.46
709.612	2525.83
709.8	2462.34
709.988	2534.02
710.176	2534.02
710.364	2591.36
710.551	2617.99
710.739	2509.44
710.927	2499.2
711.115	2513.54
711.303	2630.27
711.491	2669.19
711.679	2390.66
711.866	2427.53
712.054	2505.35
712.242	2513.54
712.43	2660.99
712.617	2589.32
712.805	2491.01
712.993	2417.29
713.181	2523.78
713.368	2550.4
713.556	2523.78
713.744	2505.35
713.931	2511.49
714.119	2468.48
714.306	2562.69
714.494	2495.11
714.682	2540.16
714.869	2419.33
715.057	2542.21
715.244	2527.88
715.432	2566.79
715.619	2472.58
715.807	2611.84
715.994	2456.2
716.182	2564.74
716.369	2546.31
716.556	2546.31
716.744	2491.01
716.931	2548.36
717.119	2523.78
717.306	2452.1
717.493	2454.15
717.681	2523.78
717.868	2439.81
718.055	2529.92
718.242	2511.49
718.43	2624.13
718.617	2566.79
718.804	2517.64
718.991	2517.64
719.179	2589.32
719.366	2540.16
719.553	2566.79
719.74	2456.2
719.927	2495.11
720.114	2595.46
720.301	2587.27
720.488	2679.43
720.676	2521.73
720.863	2497.16
721.05	2544.26
721.237	2511.49
721.424	2585.22
721.611	2482.82
721.798	2419.33
721.985	2427.53
722.172	2497.16
722.358	2425.48
722.545	2523.78
722.732	2521.73
722.919	2538.12
723.106	2540.16
723.293	2534.02
723.48	2593.41
723.667	2493.06
723.853	2515.59
724.04	2540.16
724.227	2472.58
724.414	2527.88
724.6	2525.83
724.787	2554.5
724.974	2513.54
725.161	2384.52
725.347	2517.64
725.534	2607.75
725.72	2542.21
725.907	2402.95
726.094	2581.12
726.28	2507.4
726.467	2574.98
726.653	2491.01
726.84	2505.35
727.027	2505.35
727.213	2531.97
727.4	2550.4
727.586	2613.89
727.773	2550.4
727.959	2558.6
728.145	2536.07
728.332	2595.46
728.518	2417.29
728.705	2386.57
728.891	2519.68
729.077	2519.68
729.264	2361.99
729.45	2454.15
729.636	2382.47
729.823	2486.92
730.009	2538.12
730.195	2560.64
730.382	2429.57
730.568	2460.29
730.754	2374.28
730.94	2476.68
731.126	2595.46
731.313	2329.22
731.499	2509.44
731.685	2556.55
731.871	2562.69
732.057	2497.16
732.243	2525.83
732.429	2611.84
732.615	2515.59
732.801	2484.87
732.987	2517.64
733.173	2458.25
733.359	2507.4
733.545	2456.2
733.731	2509.44
733.917	2499.2
734.103	2622.08
734.289	2638.47
734.475	2515.59
734.661	2493.06
734.847	2579.08
735.033	2364.04
735.219	2470.53
735.404	2445.96
735.59	2507.4
735.776	2488.96
735.962	2542.21
736.148	2525.83
736.333	2460.29
736.519	2450.05
736.705	2568.84
736.89	2458.25
737.076	2396.81
737.262	2523.78
737.447	2464.39
737.633	2491.01
737.819	2353.8
738.004	2452.1
738.19	2456.2
738.375	2343.56
738.561	2474.63
738.747	2511.49
738.932	2228.87
739.118	2456.2
739.303	2304.65
739.489	2409.09
739.674	2323.08
739.859	2382.47
740.045	2439.81
740.23	2372.23
740.416	2386.57
740.601	2437.77
740.786	2351.75
740.972	2341.51
741.157	2310.79
741.342	2335.37
741.528	2282.12
741.713	2249.35
741.898	2200.2
742.084	2314.89
742.269	2241.16
742.454	2339.46
742.639	2296.46
742.824	2245.26
743.01	2343.56
743.195	2271.88
743.38	2339.46
743.565	2341.51
743.75	2267.78
743.935	2263.69
744.12	2312.84
744.305	2095.75
744.49	2169.48
744.675	2177.67
744.86	2132.62
745.045	2110.09
745.23	2142.86
745.415	2136.71
745.6	2241.16
745.785	2169.48
745.97	2159.24
746.155	2112.14
746.34	2124.43
746.525	2095.75
746.71	2069.13
746.895	2077.32
747.079	1991.31
747.264	1999.5
747.449	2091.66
747.634	2077.32
747.819	1997.45
748.003	1938.06
748.188	2026.12
748.373	1923.73
748.557	2001.55
748.742	2052.75
748.927	1893.01
749.111	1870.48
749.296	1989.26
749.481	1909.39
749.665	1899.15
749.85	1757.84
750.034	1929.87
750.219	1782.42
750.404	1929.87
750.588	1772.18
750.773	1823.37
750.957	1845.9
751.141	1759.89
751.326	1802.9
751.51	1751.7
751.695	1661.59
751.879	1772.18
752.064	1702.54
752.248	1665.68
752.432	1739.41
752.617	1696.4
752.801	1682.07
752.985	1673.87
753.17	1723.02
753.354	1528.47
753.538	1655.44
753.722	1657.49
753.907	1573.52
754.091	1579.67
754.275	1591.95
754.459	1604.24
754.643	1452.69
754.828	1637.01
755.012	1561.23
755.196	1600.15
755.38	1485.46
755.564	1473.17
755.748	1462.93
755.932	1491.6
756.116	1448.6
756.3	1495.7
756.484	1413.78
756.668	1489.56
756.852	1469.08
757.036	1514.13
757.22	1524.37
757.404	1497.75
757.588	1376.92
757.772	1376.92
757.956	1389.21
758.14	1381.01
758.323	1292.95
758.507	1389.21
758.691	1307.29
758.875	1311.38
759.059	1401.49
759.242	1446.55
759.426	1342.1
759.61	1288.86
759.794	1321.62
759.977	1297.05
760.161	1292.95
760.345	1317.53
760.528	1264.28
760.712	1274.52
760.895	1200.79
761.079	1262.23
761.263	1278.62
761.446	1262.23
761.63	1155.74
761.813	1338.01
761.997	1245.85
762.18	1120.92
762.364	1163.93
762.547	1127.07
762.731	1096.35
762.914	1163.93
763.098	1133.21
763.281	1249.94
763.464	1211.03
763.648	1163.93
763.831	1094.3
764.015	1088.15
764.198	1116.83
764.381	1125.02
764.564	1208.98
764.748	961.18
764.931	1178.26
765.114	1098.39
765.297	1116.83
765.481	1022.62
765.664	1100.44
765.847	1127.07
766.03	1075.87
766.213	1178.26
766.397	1141.4
766.58	1063.58
766.763	1047.19
766.946	1116.83
767.129	1002.14
767.312	1090.2
767.495	987.8
767.678	1016.48
767.861	1020.57
768.044	1073.82
768.227	1102.49
768.41	1086.11
768.593	1032.86
768.776	1004.19
768.959	1000.09
769.142	1014.43
769.324	967.32
769.507	1036.95
769.69	955.04
769.873	1018.52
770.056	1065.63
770.239	979.61
770.421	1020.57
770.604	940.7
770.787	934.56
770.97	866.97
771.152	873.12
771.335	864.93
771.518	907.93
771.7	852.64
771.883	920.22
772.066	862.88
772.248	897.69
772.431	830.11
772.613	866.97
772.796	801.44
772.978	873.12
773.161	922.27
773.343	950.94
773.526	717.47
773.708	811.68
773.891	780.96
774.073	860.83
774.256	887.45
774.438	836.25
774.621	823.97
774.803	885.41
774.985	776.86
775.168	778.91
775.35	807.58
775.532	778.91
775.715	787.1
775.897	836.25
776.079	805.53
776.261	807.58
776.444	780.96
776.626	740
776.808	735.9
776.99	731.81
777.173	785.05
777.355	690.85
777.537	813.73
777.719	758.43
777.901	682.66
778.083	684.7
778.265	606.88
778.447	711.33
778.629	764.57
778.811	711.33
778.993	668.32
779.175	725.66
779.357	637.6
779.539	688.8
779.721	639.65
779.903	631.46
780.085	670.37
780.267	623.27
780.449	596.64
780.631	660.13
780.812	684.7
780.994	660.13
781.176	684.7
781.358	520.87
781.54	535.2
781.721	635.55
781.903	623.27
782.085	494.24
782.267	514.72
782.448	504.48
782.63	543.39
782.812	631.46
782.993	555.68
783.175	582.31
783.357	553.63
783.538	582.31
783.72	402.08
783.901	500.39
784.083	520.87
784.264	496.29
784.446	457.38
784.627	397.99
784.809	475.81
784.99	391.84
785.172	412.32
785.353	553.63
785.535	504.48
785.716	555.68
785.897	463.52
786.079	432.8
786.26	486.05
786.441	488.1
786.623	373.41
786.804	447.14
786.985	420.52
787.167	436.9
787.348	465.57
787.529	434.85
787.71	520.87
787.891	397.99
788.073	449.19
788.254	406.18
788.435	397.99
788.616	365.22
788.797	361.13
788.978	428.71
789.159	381.6
789.34	426.66
789.522	346.79
789.703	441
789.884	385.7
790.065	445.09
790.246	459.43
790.427	379.56
790.607	383.65
790.788	359.08
790.969	369.32
791.15	404.13
791.331	350.89
791.512	393.89
791.693	430.76
791.874	428.71
792.054	488.1
792.235	389.8
792.416	367.27
792.597	320.17
792.778	371.37
792.958	348.84
793.139	371.37
793.32	371.37
793.5	301.73
793.681	391.84
793.862	447.14
794.042	344.74
794.223	277.16
794.404	336.55
794.584	258.73
794.765	277.16
794.945	389.8
795.126	311.97
795.306	326.31
795.487	365.22
795.667	271.01
795.848	311.97
796.028	299.69
796.209	377.51
796.389	324.26
796.57	279.21
796.75	291.49
796.93	373.41
797.111	303.78
797.291	342.69
797.471	318.12
797.652	260.77
797.832	365.22
798.012	230.06
798.192	242.34
798.373	262.82
798.553	213.67
798.733	248.49
798.913	332.45
799.093	225.96
799.274	314.02
799.454	238.25
799.634	336.55
799.814	324.26
799.994	230.06
800.174	277.16
800.354	311.97
800.534	205.48
800.714	219.82
800.894	314.02
801.074	230.06
801.254	262.82
801.434	254.63
801.614	273.06
801.794	168.62
801.974	764.57
802.154	258.73
802.334	262.82
802.514	211.62
802.693	301.73
802.873	195.24
803.053	320.17
803.233	264.87
803.413	258.73
803.592	279.21
803.772	219.82
803.952	172.71
804.131	211.62
804.311	193.19
804.491	225.96
804.67	117.42
804.85	158.38
805.03	213.67
805.209	264.87
805.389	152.23
805.568	160.42
805.748	256.68
805.928	244.39
806.107	240.3
806.287	201.38
806.466	225.96
806.646	195.24
806.825	242.34
807.004	197.29
807.184	203.43
807.363	234.15
807.543	256.68
807.722	160.42
807.901	219.82
808.081	203.43
808.26	234.15
808.439	354.98
808.619	232.1
808.798	150.18
808.977	96.94
809.156	193.19
809.336	133.8
809.515	182.95
809.694	180.9
809.873	174.76
810.052	168.62
810.231	137.9
810.411	252.58
810.59	246.44
810.769	225.96
810.948	199.34
811.127	180.9
811.306	213.67
811.485	96.94
811.664	225.96
811.843	178.86
812.022	135.85
812.201	213.67
812.38	68.27
812.559	154.28
812.737	209.58
812.916	107.18
813.095	119.46
813.274	107.18
813.453	135.85
813.632	129.7
813.811	189.1
813.989	98.99
814.168	139.94
814.347	191.14
814.526	148.14
814.704	180.9
814.883	113.32
815.062	90.79
815.24	185
815.419	119.46
815.598	94.89
815.776	133.8
815.955	109.22
816.133	113.32
816.312	144.04
816.49	146.09
816.669	158.38
816.847	62.12
817.026	160.42
817.204	117.42
817.383	144.04
817.561	96.94
817.74	123.56
817.918	162.47
818.097	144.04
818.275	207.53
818.453	187.05
818.632	123.56
818.81	113.32
818.988	146.09
819.167	123.56
819.345	58.03
819.523	141.99
819.701	129.7
819.879	131.75
820.058	135.85
820.236	117.42
820.414	158.38
820.592	129.7
820.77	47.79
820.948	72.36
821.127	123.56
821.305	133.8
821.483	74.41
821.661	94.89
821.839	92.84
822.017	101.03
822.195	131.75
822.373	113.32
822.551	121.51
822.729	96.94
822.907	47.79
823.085	105.13
823.262	137.9
823.44	74.41
823.618	103.08
823.796	103.08
823.974	131.75
824.152	92.84
824.329	19.11
824.507	55.98
824.685	152.23
824.863	88.75
825.04	94.89
825.218	141.99
825.396	49.83
825.574	68.27
825.751	105.13
825.929	115.37
826.107	90.79
826.284	111.27
826.462	185
826.639	80.55
826.817	39.59
826.994	37.55
827.172	86.7
827.349	141.99
827.527	111.27
827.704	74.41
827.882	123.56
828.059	88.75
828.237	135.85
828.414	166.57
828.591	31.4
828.769	90.79
828.946	80.55
829.124	90.79
829.301	119.46
829.478	117.42
829.655	96.94
829.833	123.56
830.01	137.9
830.187	37.55
830.364	47.79
830.542	135.85
830.719	115.37
830.896	17.07
831.073	96.94
831.25	146.09
831.427	51.88
831.604	137.9
831.782	121.51
831.959	135.85
832.136	103.08
832.313	98.99
832.49	109.22
832.667	160.42
832.844	88.75
833.021	37.55
833.198	33.45
833.374	43.69
833.551	82.6
833.728	64.17
833.905	111.27
834.082	53.93
834.259	23.21
834.436	90.79
834.612	58.03
834.789	127.66
834.966	-5.46
835.143	86.7
835.319	60.07
835.496	12.97
835.673	94.89
835.85	37.55
836.026	70.31
836.203	64.17
836.38	-3.41
836.556	78.51
836.733	60.07
836.909	2.73
837.086	58.03
837.262	84.65
837.439	23.21
837.616	64.17
837.792	86.7
837.968	103.08
838.145	25.26
838.321	82.6
838.498	98.99
838.674	125.61
838.851	15.02
839.027	76.46
839.203	45.74
839.38	70.31
839.556	64.17
839.732	111.27
839.909	55.98
840.085	107.18
840.261	4.78
840.437	37.55
840.614	37.55
840.79	21.16
840.966	60.07
841.142	66.22
841.318	-23.89
841.494	82.6
841.671	53.93
841.847	80.55
842.023	31.4
842.199	74.41
842.375	2.73
842.551	31.4
842.727	12.97
842.903	117.42
843.079	37.55
843.255	60.07
843.431	39.59
843.607	49.83
843.783	47.79
843.959	68.27
844.134	-7.51
844.31	150.18
844.486	6.83
844.662	96.94
844.838	45.74
845.013	37.55
845.189	86.7
845.365	-44.37
845.541	80.55
845.716	33.45
845.892	62.12
846.068	29.35
846.244	31.4
846.419	84.65
846.595	-62.8
846.77	68.27
846.946	60.07
847.122	45.74
847.297	-23.89
847.473	72.36
847.648	19.11
847.824	70.31
847.999	17.07
848.175	31.4
848.35	-3.41
848.526	62.12
848.701	62.12
848.876	41.64
849.052	-3.41
849.227	-5.46
849.403	10.92
849.578	25.26
849.753	58.03
849.929	27.31
850.104	43.69
850.279	33.45
850.454	15.02
850.63	74.41
850.805	58.03
850.98	53.93
851.155	45.74
851.33	21.16
851.505	-1.37
851.681	96.94
851.856	49.83
852.031	55.98
852.206	-38.23
852.381	23.21
852.556	111.27
852.731	4.78
852.906	94.89
853.081	29.35
853.256	217.77
853.431	21.16
853.606	-30.04
853.781	31.4
853.956	33.45
854.131	27.31
854.305	-1.37
854.48	53.93
854.655	94.89
854.83	55.98
855.005	58.03
855.18	68.27
855.354	-36.18
855.529	72.36
855.704	49.83
855.879	45.74
856.053	19.11
856.228	45.74
856.403	51.88
856.577	10.92
856.752	-19.8
856.926	-19.8
857.101	-9.56
857.276	-34.13
857.45	27.31
857.625	68.27
857.799	10.92
857.974	-1.37
858.148	33.45
858.323	66.22
858.497	90.79
858.672	19.11
858.846	45.74
859.02	98.99
859.195	17.07
859.369	31.4
859.543	37.55
859.718	2.73
859.892	53.93
860.066	2.73
860.241	27.31
860.415	-30.04
860.589	2.73
860.763	-1.37
860.938	-1.37
861.112	82.6
861.286	-13.65
861.46	60.07
861.634	19.11
861.808	15.02
861.982	-27.99
862.157	8.87
862.331	-11.61
862.505	43.69
862.679	-58.71
862.853	29.35
863.027	-25.94
863.201	47.79
863.375	35.5
863.549	68.27
863.722	-9.56
863.896	55.98
864.07	41.64
864.244	29.35
864.418	82.6
864.592	68.27
864.766	53.93
864.939	53.93
865.113	68.27
865.287	33.45
865.461	17.07
865.634	12.97
865.808	31.4
865.982	-9.56
866.156	-36.18
866.329	-15.7
866.503	37.55
866.676	-13.65
866.85	0.68
867.024	25.26
867.197	21.16
867.371	17.07
867.544	29.35
867.718	4.78
867.891	-11.61
868.065	-27.99
868.238	33.45
868.412	72.36
868.585	94.89
868.759	62.12
868.932	-7.51
869.105	-83.28
869.279	-21.85
869.452	-23.89
869.625	-103.76
869.799	27.31
869.972	29.35
870.145	66.22
870.319	2.73
870.492	0.68
870.665	15.02
870.838	2.73
871.011	-7.51
871.185	49.83
871.358	-60.76
871.531	-19.8
871.704	37.55
871.877	33.45
872.05	-52.56
872.223	-48.47
872.396	27.31
872.569	12.97
872.742	-15.7
872.915	33.45
873.088	8.87
873.261	-25.94
873.434	117.42
873.607	-11.61
873.78	-44.37
873.953	-19.8
874.126	43.69
874.299	15.02
874.471	49.83
874.644	66.22
874.817	-50.52
874.99	23.21
875.163	-44.37
875.335	4.78
875.508	0.68
875.681	23.21
875.853	-73.04
876.026	-1.37
876.199	74.41
876.371	-17.75
876.544	-11.61
876.717	-17.75
876.889	21.16
877.062	39.59
877.234	2.73
877.407	-32.08
877.579	-46.42
877.752	-9.56
877.924	29.35
878.097	10.92
878.269	0.68
878.442	51.88
878.614	58.03
878.786	-17.75
878.959	-27.99
879.131	-23.89
879.303	8.87
879.476	39.59
879.648	27.31
879.82	74.41
879.993	-3.41
880.165	-5.46
880.337	-64.85
880.509	29.35
880.681	-71
880.854	21.16
881.026	-27.99
881.198	-23.89
881.37	-52.56
881.542	0.68
881.714	25.26
881.886	60.07
882.058	8.87
882.23	21.16
882.402	-34.13
882.574	-46.42
882.746	-13.65
882.918	27.31
883.09	-15.7
883.262	41.64
883.434	-81.24
883.606	-21.85
883.778	-42.32
883.95	6.83
884.122	-30.04
884.293	51.88
884.465	15.02
884.637	6.83
884.809	21.16
884.98	27.31
885.152	41.64
885.324	33.45
885.496	2.73
885.667	21.16
885.839	-21.85
886.011	41.64
886.182	-56.66
886.354	-15.7
886.525	-68.95
886.697	-3.41
886.869	-3.41
887.04	2.73
887.212	19.11
887.383	49.83
887.555	10.92
887.726	23.21
887.897	-23.89
888.069	27.31
888.24	-64.85
888.412	-58.71
888.583	33.45
888.754	-17.75
888.926	-21.85
889.097	15.02
889.268	-15.7
889.44	15.02
889.611	-64.85
889.782	-9.56
889.953	-13.65
890.125	-25.94
890.296	-11.61
890.467	64.17
890.638	2.73
890.809	-5.46
890.98	-9.56
891.151	-3.41
891.323	-23.89
891.494	-7.51
891.665	-13.65
891.836	27.31
892.007	8.87
892.178	-32.08
892.349	-40.28
892.52	-50.52
892.691	-79.19
892.862	37.55
893.032	-66.9
893.203	0.68
893.374	70.31
893.545	82.6
893.716	-27.99
893.887	33.45
894.057	-34.13
894.228	2.73
894.399	-15.7
894.57	-1.37
894.74	12.97
894.911	4.78
895.082	-17.75
895.253	31.4
895.423	-42.32
895.594	-25.94
895.764	8.87
895.935	-32.08
896.106	-62.8
896.276	37.55
896.447	19.11
896.617	2.73
896.788	15.02
896.958	-3.41
897.129	-19.8
897.299	-7.51
897.47	43.69
897.64	19.11
897.81	21.16
897.981	12.97
898.151	4.78
898.322	-27.99
898.492	-19.8
898.662	-11.61
898.832	-40.28
899.003	-42.32
899.173	-11.61
899.343	-19.8
899.513	23.21
