Data from USB4F104151__31__12-27-14-603.txt Node

Date: Fri Mar 14 12:27:14 EDT 2025
User: louis
Spectrometer: USB4F10415
Trigger mode: 4
Integration Time (sec): 2.000000E-2
Scans to average: 1
Electric dark correction enabled: true
Nonlinearity correction enabled: false
Boxcar width: 0
XAxis mode: Wavelengths
Number of Pixels in Spectrum: 3648
>>>>>Begin Spectral Data<<<<<
178.204	-90.11
178.424	-90.11
178.644	-90.11
178.864	-88.06
179.084	-104.45
179.304	-32.77
179.524	-71.68
179.744	34.82
179.964	0
180.184	-30.72
180.404	57.34
180.624	-36.86
180.844	32.77
181.064	-63.49
181.283	22.53
181.503	38.91
181.723	49.15
181.943	-32.77
182.163	43.01
182.383	-28.67
182.602	49.15
182.822	26.62
183.042	-16.38
183.262	32.77
183.482	12.29
183.701	-20.48
183.921	-8.19
184.141	-34.82
184.361	71.68
184.58	12.29
184.8	14.34
185.02	16.38
185.239	69.63
185.459	47.1
185.679	-14.34
185.898	24.58
186.118	83.97
186.338	24.58
186.557	36.86
186.777	36.86
186.997	28.67
187.216	-32.77
187.436	38.91
187.655	38.91
187.875	12.29
188.095	16.38
188.314	75.77
188.534	49.15
188.753	22.53
188.973	-20.48
189.192	4.1
189.412	-16.38
189.631	26.62
189.851	77.82
190.07	34.82
190.29	22.53
190.509	40.96
190.729	28.67
190.948	36.86
191.168	161.79
191.387	118.78
191.607	16.38
191.826	61.44
192.045	8.19
192.265	47.1
192.484	14.34
192.704	30.72
192.923	-14.34
193.142	75.77
193.362	36.86
193.581	57.34
193.8	8.19
194.02	38.91
194.239	120.83
194.458	-10.24
194.678	-4.1
194.897	81.92
195.116	51.2
195.335	51.2
195.555	28.67
195.774	24.58
195.993	32.77
196.212	61.44
196.432	-24.58
196.651	8.19
196.87	57.34
197.089	75.77
197.308	40.96
197.528	55.3
197.747	20.48
197.966	2.05
198.185	6.14
198.404	-59.39
198.623	49.15
198.842	34.82
199.062	61.44
199.281	10.24
199.5	-30.72
199.719	47.1
199.938	2.05
200.157	10.24
200.376	18.43
200.595	69.63
200.814	59.39
201.033	22.53
201.252	96.25
201.471	-12.29
201.69	67.58
201.909	47.1
202.128	75.77
202.347	30.72
202.566	88.06
202.785	40.96
203.004	-71.68
203.223	90.11
203.442	-6.14
203.661	61.44
203.879	0
204.098	75.77
204.317	53.25
204.536	98.3
204.755	-8.19
204.974	83.97
205.193	47.1
205.411	61.44
205.63	43.01
205.849	77.82
206.068	133.12
206.287	-6.14
206.505	-6.14
206.724	28.67
206.943	108.54
207.162	-20.48
207.381	30.72
207.599	4.1
207.818	24.58
208.037	-4.1
208.255	40.96
208.474	32.77
208.693	53.25
208.911	65.53
209.13	4.1
209.349	32.77
209.567	51.2
209.786	18.43
210.005	71.68
210.223	59.39
210.442	14.34
210.661	49.15
210.879	24.58
211.098	-6.14
211.316	36.86
211.535	75.77
211.753	79.87
211.972	30.72
212.191	12.29
212.409	-10.24
212.628	86.01
212.846	30.72
213.065	-6.14
213.283	77.82
213.502	16.38
213.72	34.82
213.938	63.49
214.157	4.1
214.375	75.77
214.594	16.38
214.812	65.53
215.031	75.77
215.249	81.92
215.467	16.38
215.686	69.63
215.904	73.73
216.122	-4.1
216.341	90.11
216.559	79.87
216.778	34.82
216.996	110.59
217.214	2.05
217.432	-32.77
217.651	43.01
217.869	28.67
218.087	77.82
218.306	-14.34
218.524	45.06
218.742	14.34
218.96	159.74
219.179	-30.72
219.397	20.48
219.615	10.24
219.833	73.73
220.051	-71.68
220.27	28.67
220.488	145.41
220.706	36.86
220.924	12.29
221.142	81.92
221.36	108.54
221.578	88.06
221.796	-10.24
222.015	24.58
222.233	106.49
222.451	92.16
222.669	-4.1
222.887	90.11
223.105	-51.2
223.323	-32.77
223.541	81.92
223.759	24.58
223.977	-20.48
224.195	38.91
224.413	16.38
224.631	-43.01
224.849	90.11
225.067	51.2
225.285	14.34
225.503	73.73
225.721	8.19
225.939	34.82
226.157	22.53
226.375	86.01
226.592	-20.48
226.81	83.97
227.028	59.39
227.246	65.53
227.464	4.1
227.682	90.11
227.9	57.34
228.117	4.1
228.335	75.77
228.553	-12.29
228.771	36.86
228.989	38.91
229.206	98.3
229.424	-12.29
229.642	53.25
229.86	36.86
230.077	36.86
230.295	30.72
230.513	67.58
230.731	90.11
230.948	114.69
231.166	24.58
231.384	26.62
231.601	-12.29
231.819	24.58
232.037	-2.05
232.254	-10.24
232.472	47.1
232.689	-10.24
232.907	59.39
233.125	65.53
233.342	77.82
233.56	45.06
233.777	12.29
233.995	73.73
234.213	40.96
234.43	65.53
234.648	8.19
234.865	34.82
235.083	4.1
235.3	34.82
235.518	32.77
235.735	45.06
235.953	18.43
236.17	59.39
236.388	67.58
236.605	69.63
236.822	47.1
237.04	92.16
237.257	8.19
237.475	32.77
237.692	4.1
237.909	-10.24
238.127	65.53
238.344	61.44
238.562	20.48
238.779	61.44
238.996	2.05
239.214	-8.19
239.431	47.1
239.648	81.92
239.865	-18.43
240.083	28.67
240.3	24.58
240.517	2.05
240.735	36.86
240.952	45.06
241.169	20.48
241.386	83.97
241.603	108.54
241.821	53.25
242.038	53.25
242.255	36.86
242.472	16.38
242.689	79.87
242.907	98.3
243.124	-55.3
243.341	-2.05
243.558	53.25
243.775	-12.29
243.992	28.67
244.209	28.67
244.426	38.91
244.643	40.96
244.86	8.19
245.078	-30.72
245.295	18.43
245.512	18.43
245.729	14.34
245.946	45.06
246.163	22.53
246.38	0
246.597	24.58
246.814	47.1
247.031	6.14
247.248	4.1
247.464	22.53
247.681	18.43
247.898	63.49
248.115	12.29
248.332	49.15
248.549	22.53
248.766	24.58
248.983	51.2
249.2	0
249.417	16.38
249.633	-12.29
249.85	45.06
250.067	20.48
250.284	40.96
250.501	124.93
250.717	40.96
250.934	14.34
251.151	88.06
251.368	59.39
251.585	71.68
251.801	106.49
252.018	2.05
252.235	34.82
252.451	18.43
252.668	10.24
252.885	96.25
253.102	28.67
253.318	36.86
253.535	-2.05
253.752	81.92
253.968	79.87
254.185	18.43
254.401	30.72
254.618	2.05
254.835	90.11
255.051	86.01
255.268	96.25
255.484	98.3
255.701	69.63
255.917	69.63
256.134	104.45
256.351	61.44
256.567	28.67
256.784	51.2
257	-88.06
257.217	0
257.433	18.43
257.65	100.35
257.866	79.87
258.082	81.92
258.299	10.24
258.515	102.4
258.732	-32.77
258.948	71.68
259.165	69.63
259.381	69.63
259.597	14.34
259.814	8.19
260.03	-16.38
260.246	57.34
260.463	-8.19
260.679	53.25
260.895	-36.86
261.112	4.1
261.328	0
261.544	22.53
261.761	110.59
261.977	20.48
262.193	51.2
262.409	22.53
262.626	36.86
262.842	36.86
263.058	98.3
263.274	96.25
263.49	-14.34
263.707	20.48
263.923	-2.05
264.139	-47.1
264.355	-8.19
264.571	61.44
264.787	47.1
265.004	75.77
265.22	22.53
265.436	8.19
265.652	16.38
265.868	12.29
266.084	30.72
266.3	47.1
266.516	18.43
266.732	73.73
266.948	36.86
267.164	47.1
267.38	77.82
267.596	53.25
267.812	16.38
268.028	79.87
268.244	79.87
268.46	45.06
268.676	65.53
268.892	10.24
269.108	6.14
269.324	65.53
269.54	45.06
269.756	71.68
269.972	2.05
270.188	16.38
270.403	8.19
270.619	81.92
270.835	139.26
271.051	30.72
271.267	40.96
271.483	28.67
271.698	100.35
271.914	81.92
272.13	24.58
272.346	43.01
272.562	71.68
272.777	88.06
272.993	16.38
273.209	59.39
273.425	6.14
273.64	90.11
273.856	79.87
274.072	43.01
274.287	53.25
274.503	96.25
274.719	20.48
274.934	-10.24
275.15	-14.34
275.366	36.86
275.581	61.44
275.797	24.58
276.012	2.05
276.228	32.77
276.444	-6.14
276.659	18.43
276.875	-16.38
277.09	-2.05
277.306	40.96
277.521	38.91
277.737	69.63
277.952	61.44
278.168	-6.14
278.383	61.44
278.599	116.73
278.814	120.83
279.03	53.25
279.245	34.82
279.461	18.43
279.676	94.21
279.892	18.43
280.107	14.34
280.322	-8.19
280.538	61.44
280.753	53.25
280.969	28.67
281.184	63.49
281.399	24.58
281.615	40.96
281.83	55.3
282.045	38.91
282.26	30.72
282.476	24.58
282.691	86.01
282.906	51.2
283.122	18.43
283.337	47.1
283.552	67.58
283.767	4.1
283.983	51.2
284.198	36.86
284.413	-14.34
284.628	-24.58
284.843	18.43
285.058	59.39
285.274	-8.19
285.489	10.24
285.704	28.67
285.919	-2.05
286.134	108.54
286.349	18.43
286.564	49.15
286.779	53.25
286.995	2.05
287.21	40.96
287.425	92.16
287.64	-32.77
287.855	61.44
288.07	6.14
288.285	53.25
288.5	47.1
288.715	55.3
288.93	63.49
289.145	106.49
289.36	120.83
289.575	57.34
289.79	45.06
290.004	53.25
290.219	79.87
290.434	61.44
290.649	22.53
290.864	51.2
291.079	40.96
291.294	43.01
291.509	30.72
291.724	16.38
291.938	-10.24
292.153	61.44
292.368	53.25
292.583	75.77
292.798	104.45
293.012	30.72
293.227	83.97
293.442	53.25
293.657	45.06
293.871	86.01
294.086	45.06
294.301	4.1
294.516	45.06
294.73	2.05
294.945	30.72
295.16	71.68
295.374	47.1
295.589	77.82
295.804	26.62
296.018	120.83
296.233	20.48
296.447	-28.67
296.662	114.69
296.877	36.86
297.091	38.91
297.306	79.87
297.52	16.38
297.735	110.59
297.949	69.63
298.164	22.53
298.378	86.01
298.593	69.63
298.807	8.19
299.022	122.88
299.236	32.77
299.451	18.43
299.665	67.58
299.88	96.25
300.094	34.82
300.309	34.82
300.523	-4.1
300.737	63.49
300.952	49.15
301.166	53.25
301.381	-12.29
301.595	108.54
301.809	-22.53
302.024	61.44
302.238	20.48
302.452	135.17
302.667	96.25
302.881	124.93
303.095	81.92
303.309	73.73
303.524	22.53
303.738	57.34
303.952	69.63
304.166	120.83
304.381	-4.1
304.595	98.3
304.809	4.1
305.023	12.29
305.237	10.24
305.452	36.86
305.666	16.38
305.88	114.69
306.094	38.91
306.308	20.48
306.522	69.63
306.736	79.87
306.95	96.25
307.164	-16.38
307.379	43.01
307.593	45.06
307.807	-30.72
308.021	55.3
308.235	24.58
308.449	36.86
308.663	36.86
308.877	-6.14
309.091	30.72
309.305	-14.34
309.519	-40.96
309.733	110.59
309.947	8.19
310.161	47.1
310.374	104.45
310.588	81.92
310.802	28.67
311.016	-24.58
311.23	36.86
311.444	86.01
311.658	12.29
311.872	6.14
312.085	75.77
312.299	32.77
312.513	24.58
312.727	51.2
312.941	-10.24
313.154	22.53
313.368	14.34
313.582	112.64
313.796	51.2
314.009	53.25
314.223	79.87
314.437	51.2
314.651	110.59
314.864	86.01
315.078	71.68
315.292	53.25
315.505	34.82
315.719	49.15
315.933	38.91
316.146	-22.53
316.36	75.77
316.573	96.25
316.787	28.67
317.001	90.11
317.214	2.05
317.428	47.1
317.641	49.15
317.855	96.25
318.068	6.14
318.282	83.97
318.495	79.87
318.709	79.87
318.922	100.35
319.136	43.01
319.349	71.68
319.563	122.88
319.776	53.25
319.99	36.86
320.203	88.06
320.417	102.4
320.63	-20.48
320.843	81.92
321.057	2.05
321.27	34.82
321.483	34.82
321.697	55.3
321.91	73.73
322.124	61.44
322.337	40.96
322.55	-16.38
322.763	65.53
322.977	49.15
323.19	88.06
323.403	53.25
323.617	90.11
323.83	57.34
324.043	10.24
324.256	102.4
324.469	59.39
324.683	112.64
324.896	67.58
325.109	83.97
325.322	81.92
325.535	20.48
325.748	10.24
325.962	77.82
326.175	32.77
326.388	53.25
326.601	47.1
326.814	10.24
327.027	36.86
327.24	96.25
327.453	-14.34
327.666	79.87
327.879	69.63
328.092	81.92
328.305	63.49
328.518	65.53
328.731	63.49
328.944	53.25
329.157	20.48
329.37	22.53
329.583	24.58
329.796	79.87
330.009	-12.29
330.222	94.21
330.435	98.3
330.648	-20.48
330.861	75.77
331.073	28.67
331.286	34.82
331.499	34.82
331.712	120.83
331.925	163.84
332.138	30.72
332.35	88.06
332.563	34.82
332.776	77.82
332.989	43.01
333.202	0
333.414	51.2
333.627	53.25
333.84	-28.67
334.053	61.44
334.265	57.34
334.478	-6.14
334.691	18.43
334.903	120.83
335.116	14.34
335.329	-16.38
335.541	10.24
335.754	18.43
335.966	12.29
336.179	36.86
336.392	26.62
336.604	67.58
336.817	45.06
337.029	73.73
337.242	-26.62
337.454	2.05
337.667	180.22
337.88	90.11
338.092	141.31
338.305	51.2
338.517	12.29
338.729	63.49
338.942	34.82
339.154	53.25
339.367	14.34
339.579	98.3
339.792	43.01
340.004	65.53
340.217	77.82
340.429	-18.43
340.641	90.11
340.854	75.77
341.066	32.77
341.278	30.72
341.491	61.44
341.703	51.2
341.915	86.01
342.128	77.82
342.34	47.1
342.552	43.01
342.764	65.53
342.977	73.73
343.189	118.78
343.401	104.45
343.613	24.58
343.826	63.49
344.038	24.58
344.25	98.3
344.462	49.15
344.674	57.34
344.886	22.53
345.099	-10.24
345.311	51.2
345.523	100.35
345.735	-6.14
345.947	18.43
346.159	-24.58
346.371	36.86
346.583	45.06
346.795	55.3
347.007	43.01
347.219	94.21
347.431	18.43
347.643	49.15
347.855	10.24
348.067	86.01
348.279	-45.06
348.491	47.1
348.703	63.49
348.915	20.48
349.127	20.48
349.339	61.44
349.551	57.34
349.763	106.49
349.975	-10.24
350.187	59.39
350.399	51.2
350.61	53.25
350.822	51.2
351.034	8.19
351.246	30.72
351.458	77.82
351.669	36.86
351.881	40.96
352.093	47.1
352.305	10.24
352.517	83.97
352.728	106.49
352.94	28.67
353.152	2.05
353.363	49.15
353.575	69.63
353.787	47.1
353.999	59.39
354.21	73.73
354.422	-4.1
354.633	51.2
354.845	110.59
355.057	43.01
355.268	86.01
355.48	43.01
355.692	12.29
355.903	120.83
356.115	26.62
356.326	10.24
356.538	45.06
356.749	79.87
356.961	65.53
357.172	49.15
357.384	59.39
357.595	120.83
357.807	43.01
358.018	57.34
358.23	36.86
358.441	65.53
358.653	30.72
358.864	30.72
359.075	24.58
359.287	51.2
359.498	114.69
359.709	36.86
359.921	124.93
360.132	0
360.344	12.29
360.555	26.62
360.766	10.24
360.977	51.2
361.189	43.01
361.4	63.49
361.611	40.96
361.823	106.49
362.034	53.25
362.245	0
362.456	51.2
362.667	57.34
362.879	63.49
363.09	43.01
363.301	34.82
363.512	34.82
363.723	65.53
363.935	43.01
364.146	69.63
364.357	47.1
364.568	61.44
364.779	-8.19
364.99	126.97
365.201	47.1
365.412	38.91
365.623	8.19
365.834	118.78
366.045	94.21
366.256	88.06
366.467	55.3
366.678	36.86
366.889	51.2
367.1	-12.29
367.311	26.62
367.522	30.72
367.733	71.68
367.944	-10.24
368.155	131.07
368.366	129.02
368.577	4.1
368.788	61.44
368.999	18.43
369.209	73.73
369.42	77.82
369.631	129.02
369.842	79.87
370.053	53.25
370.264	131.07
370.474	94.21
370.685	104.45
370.896	118.78
371.107	104.45
371.317	12.29
371.528	67.58
371.739	16.38
371.95	67.58
372.16	79.87
372.371	36.86
372.582	45.06
372.792	69.63
373.003	75.77
373.214	43.01
373.424	71.68
373.635	83.97
373.846	8.19
374.056	38.91
374.267	61.44
374.477	34.82
374.688	40.96
374.898	71.68
375.109	79.87
375.319	61.44
375.53	45.06
375.74	69.63
375.951	67.58
376.161	92.16
376.372	36.86
376.582	8.19
376.793	57.34
377.003	75.77
377.214	36.86
377.424	90.11
377.635	53.25
377.845	71.68
378.055	75.77
378.266	69.63
378.476	61.44
378.686	75.77
378.897	49.15
379.107	120.83
379.317	145.41
379.528	32.77
379.738	26.62
379.948	-4.1
380.158	104.45
380.369	40.96
380.579	112.64
380.789	14.34
380.999	28.67
381.21	49.15
381.42	83.97
381.63	-12.29
381.84	96.25
382.05	12.29
382.261	112.64
382.471	71.68
382.681	63.49
382.891	104.45
383.101	63.49
383.311	45.06
383.521	-24.58
383.731	153.6
383.941	40.96
384.151	12.29
384.361	8.19
384.571	96.25
384.781	69.63
384.991	45.06
385.201	108.54
385.411	122.88
385.621	88.06
385.831	96.25
386.041	79.87
386.251	55.3
386.461	106.49
386.671	22.53
386.881	63.49
387.091	28.67
387.301	-10.24
387.511	124.93
387.72	12.29
387.93	30.72
388.14	69.63
388.35	-32.77
388.56	45.06
388.769	124.93
388.979	53.25
389.189	77.82
389.399	104.45
389.609	86.01
389.818	106.49
390.028	47.1
390.238	71.68
390.447	104.45
390.657	47.1
390.867	118.78
391.076	83.97
391.286	26.62
391.496	81.92
391.705	51.2
391.915	110.59
392.125	61.44
392.334	55.3
392.544	49.15
392.753	67.58
392.963	51.2
393.172	75.77
393.382	100.35
393.591	53.25
393.801	81.92
394.01	102.4
394.22	188.41
394.429	51.2
394.639	63.49
394.848	176.13
395.058	131.07
395.267	133.12
395.477	79.87
395.686	196.61
395.895	133.12
396.105	131.07
396.314	147.45
396.524	135.17
396.733	106.49
396.942	81.92
397.152	174.08
397.361	110.59
397.57	73.73
397.78	102.4
397.989	57.34
398.198	167.93
398.407	106.49
398.617	102.4
398.826	98.3
399.035	94.21
399.244	88.06
399.453	116.73
399.663	172.03
399.872	122.88
400.081	141.31
400.29	165.89
400.499	100.35
400.708	145.41
400.917	-12.29
401.127	167.93
401.336	47.1
401.545	137.21
401.754	153.6
401.963	40.96
402.172	126.97
402.381	147.45
402.59	131.07
402.799	192.51
403.008	102.4
403.217	98.3
403.426	212.99
403.635	204.8
403.844	217.08
404.053	180.22
404.262	143.36
404.471	81.92
404.68	149.5
404.888	163.84
405.097	249.85
405.306	258.04
405.515	161.79
405.724	174.08
405.933	217.08
406.142	202.75
406.35	157.69
406.559	247.8
406.768	204.8
406.977	237.56
407.185	299
407.394	243.71
407.603	200.7
407.812	288.76
408.02	270.33
408.229	272.38
408.438	190.46
408.646	249.85
408.855	335.87
409.064	264.19
409.272	221.18
409.481	299
409.69	417.79
409.898	303.1
410.107	415.74
410.315	407.55
410.524	327.67
410.733	366.59
410.941	409.59
411.15	450.55
411.358	436.22
411.567	471.03
411.775	473.08
411.984	475.13
412.192	555
412.401	434.17
412.609	509.94
412.818	598.01
413.026	620.53
413.234	522.23
413.443	628.73
413.651	610.29
413.86	696.31
414.068	671.73
414.276	702.45
414.485	577.53
414.693	710.65
414.901	802.8
415.11	806.9
415.318	747.51
415.526	876.53
415.734	843.76
415.943	903.15
416.151	862.19
416.359	991.22
416.567	1007.6
416.776	964.59
416.984	1017.84
417.192	1112.05
417.4	1122.29
417.608	1146.86
417.817	1187.82
418.025	1224.69
418.233	1316.84
418.441	1345.52
418.649	1394.67
418.857	1411.05
419.065	1548.26
419.273	1409
419.481	1581.03
419.689	1605.61
419.897	1814.5
420.105	1712.1
420.313	1843.17
420.521	1802.21
420.729	1787.88
420.937	1888.23
421.145	2002.91
421.353	2007.01
421.561	2232.29
421.769	2363.36
421.977	2316.25
422.185	2344.92
422.393	2582.49
422.601	2504.67
422.809	2609.11
423.017	2691.03
423.224	2846.68
423.432	2838.48
423.64	2850.77
423.848	3078.1
424.056	2910.16
424.263	3336.14
424.471	3239.89
424.679	3346.38
424.887	3526.6
425.094	3678.15
425.302	3606.47
425.51	3813.32
425.718	3921.86
425.925	3950.53
426.133	3993.54
426.341	4255.68
426.548	4489.15
426.756	4431.8
426.964	4571.07
427.171	4847.54
427.379	4995
427.586	5132.21
427.794	5203.89
428.001	5449.64
428.209	5707.69
428.417	5660.59
428.624	6074.28
428.832	6031.27
429.039	6033.32
429.247	5986.21
429.454	6551.45
429.662	6868.89
429.869	6483.87
430.076	7032.72
430.284	6754.2
430.491	7059.35
430.699	7360.4
430.906	7491.47
431.114	7511.95
431.321	8056.71
431.528	8093.57
431.736	8454.01
431.943	8771.45
432.15	8609.66
432.358	8796.03
432.565	9109.36
432.772	9383.79
432.979	9598.83
433.187	10067.81
433.394	9860.97
433.601	10358.63
433.808	10551.14
434.016	10348.39
434.223	11075.41
434.43	11706.19
434.637	11157.33
434.844	12453.7
435.052	12308.29
435.259	12306.24
435.466	12334.92
435.673	12533.57
435.88	13100.86
436.087	13631.28
436.294	13813.55
436.501	13598.51
436.708	13672.24
436.915	14313.25
437.122	14939.93
437.329	14784.29
437.537	15417.11
437.743	15712.02
437.95	15441.68
438.157	16181
438.364	16953.09
438.571	16727.81
438.778	16826.11
438.985	18542.31
439.192	17819.38
439.399	18202.35
439.606	18110.19
439.813	18956
440.02	20215.5
440.227	19599.06
440.433	19519.19
440.64	20256.46
440.847	19920.59
441.054	20850.37
441.261	21819.06
441.467	21833.39
441.674	22339.24
441.881	23115.42
442.088	23226.01
442.294	22900.39
442.501	23299.74
442.708	23768.73
442.914	24534.67
443.121	25597.56
443.328	24829.57
443.534	27080.29
443.741	25978.48
443.948	25738.87
444.154	27655.77
444.361	27297.38
444.568	27840.09
444.774	27434.59
444.981	28280.4
445.187	28565.07
445.394	30133.81
445.6	29847.1
445.807	32413.2
446.013	31563.29
446.22	31546.91
446.426	32990.73
446.633	33295.88
446.839	34418.16
447.046	32986.63
447.252	35007.98
447.459	35034.6
447.665	34776.56
447.871	36273.62
448.078	37955
448.284	36062.68
448.491	37164.49
448.697	38534.58
448.903	39341.48
449.11	38983.09
449.316	38612.4
449.522	39486.89
449.728	40775.06
449.935	40621.46
450.141	40738.19
450.347	41678.21
450.553	40138.14
450.76	41041.29
450.966	42313.08
451.172	41727.36
451.378	42546.55
451.584	41864.58
451.791	42728.82
451.997	42605.94
452.203	43838.82
452.409	43728.23
452.615	43746.66
452.821	41649.54
453.027	41536.9
453.233	43515.24
453.44	41565.57
453.646	42374.52
453.852	42378.62
454.058	43259.24
454.264	41770.37
454.47	42679.67
454.676	41932.16
454.882	43046.26
455.088	39611.81
455.294	40076.7
455.5	40869.26
455.705	41340.3
455.911	39685.54
456.117	38989.23
456.323	38501.81
456.529	36539.86
456.735	37854.65
456.941	36922.83
457.147	36388.31
457.352	35081.7
457.558	34891.24
457.764	34924.01
457.97	33983.99
458.176	33472
458.381	33504.77
458.587	31694.36
458.793	31858.2
458.999	30563.89
459.204	32415.25
459.41	31720.99
459.616	29441.6
459.821	29511.23
460.027	29077.06
460.233	28669.51
460.438	27219.55
460.644	28124.75
460.85	26357.36
461.055	26099.31
461.261	26011.25
461.466	23975.57
461.672	23264.92
461.878	25042.56
462.083	23381.66
462.289	22832.8
462.494	22541.99
462.7	21630.65
462.905	20938.43
463.111	21782.2
463.316	21778.1
463.522	21225.15
463.727	21354.17
463.932	21538.49
464.138	21046.97
464.343	21401.27
464.549	20551.37
464.754	21397.18
464.959	21055.17
465.165	20917.95
465.37	20100.81
465.575	19764.95
465.781	20385.48
465.986	20459.21
466.191	19764.95
466.397	19338.97
466.602	18417.38
466.807	19318.49
467.012	19224.28
467.218	19289.82
467.423	18845.41
467.628	18933.47
467.833	19523.29
468.038	18953.95
468.244	18384.62
468.449	19232.47
468.654	18575.08
468.859	18636.52
469.064	18257.64
469.269	17850.1
469.474	17805.04
469.679	18300.65
469.885	17534.71
470.09	17946.35
470.295	17682.16
470.5	17381.11
470.705	17469.17
470.91	17037.05
471.115	17112.83
471.32	17125.11
471.525	17020.67
471.73	16703.23
471.935	16508.68
472.139	16037.64
472.344	16178.95
472.549	16080.65
472.754	16094.99
472.959	15492.88
473.164	15384.34
473.369	15062.81
473.574	15511.32
473.778	15345.43
473.983	15046.43
474.188	15116.06
474.393	14683.94
474.598	14587.68
474.802	14462.76
475.007	14288.68
475.212	14403.36
475.417	13733.68
475.621	13827.88
475.826	13932.33
476.031	13598.51
476.235	13426.48
476.44	13584.18
476.645	13440.82
476.849	13469.49
477.054	13381.43
477.259	12838.72
477.463	13197.11
477.668	12674.88
477.872	12789.56
478.077	12627.78
478.282	12275.52
478.486	12382.02
478.691	12007.24
478.895	12097.35
479.1	11953.99
479.304	12005.19
479.509	11530.06
479.713	11847.5
479.918	11728.72
480.122	11632.46
480.326	11800.4
480.531	11544.4
480.735	11528.02
480.94	11413.33
481.144	11698
481.348	11306.84
481.553	11362.13
481.757	11235.16
481.961	11245.4
482.166	11442
482.37	11401.04
482.574	11214.68
482.778	11186.01
482.983	11452.24
483.187	11200.34
483.391	10923.87
483.595	11372.37
483.8	11016.02
484.004	11220.82
484.208	11212.63
484.412	10921.82
484.616	11183.96
484.821	11163.48
485.025	11028.31
485.229	11235.16
485.433	11196.25
485.637	11042.65
485.841	11145.05
486.045	11143
486.249	11214.68
486.453	11255.64
486.657	11288.4
486.861	11542.35
487.065	10938.2
487.269	10970.97
487.473	10864.47
487.677	11196.25
487.881	11384.66
488.085	11149.14
488.289	11136.85
488.493	11173.72
488.697	11241.3
488.901	11224.92
489.105	11323.22
489.309	11366.23
489.512	11294.55
489.716	11276.12
489.92	11208.53
490.124	11335.51
490.328	11552.59
490.531	11274.07
490.735	11571.02
490.939	11585.36
491.143	11478.86
491.346	11249.49
491.55	11849.55
491.754	11628.37
491.958	11652.94
492.161	11671.37
492.365	11888.46
492.569	11722.57
492.772	11630.41
492.976	11663.18
493.18	11972.43
493.383	12257.09
493.587	11964.23
493.79	12332.87
493.994	12244.81
494.197	12117.83
494.401	12611.39
494.605	12500.8
494.808	12818.24
495.012	12527.42
495.215	12621.63
495.419	12844.86
495.622	12726.08
495.825	12945.21
496.029	13100.86
496.232	13059.9
496.436	13254.45
496.639	13426.48
496.843	13365.04
497.046	13735.73
497.249	14061.35
497.453	13954.86
497.656	13995.82
497.859	14036.78
498.063	14303.01
498.266	14491.43
498.469	14434.08
498.673	14604.07
498.876	14616.35
499.079	14907.16
499.282	14755.61
499.485	15175.45
499.689	15441.68
499.892	15546.13
500.095	15757.07
500.298	15965.96
500.501	15785.74
500.705	16172.81
500.908	16412.42
501.111	16697.09
501.314	16942.85
501.517	16912.13
501.72	17096.44
501.923	17174.27
502.126	17577.72
502.329	17745.65
502.532	17784.56
502.735	18171.63
502.938	18339.56
503.141	18126.57
503.344	18835.17
503.547	18745.06
503.75	18894.56
503.953	19216.09
504.156	19441.37
504.359	19748.56
504.562	19889.87
504.765	20231.88
504.968	20346.57
505.17	20668.1
505.373	20418.25
505.576	20969.15
505.779	21366.46
505.982	21147.33
506.185	21694.13
506.387	21679.8
506.59	21829.3
506.793	22384.3
506.996	22152.88
507.198	22730.41
507.401	22722.21
507.604	22935.2
507.807	23447.19
508.009	23484.06
508.212	23938.71
508.415	24379.02
508.617	24399.5
508.82	24669.83
509.022	24626.82
509.225	25009.79
509.428	25345.66
509.63	25507.45
509.833	25433.72
510.035	25974.39
510.238	25921.14
510.44	26060.4
510.643	26900.07
510.845	26701.42
511.048	27117.15
511.25	27362.91
511.453	27465.31
511.655	28534.35
511.858	27844.18
512.06	28427.85
512.262	28524.11
512.465	28499.53
512.667	29206.08
512.87	29396.54
513.072	29273.67
513.274	29972.02
513.477	29926.97
513.679	30389.81
513.881	30752.3
514.084	31082.02
514.286	30998.05
514.488	31278.63
514.69	32112.15
514.893	32071.19
515.095	32167.45
515.297	32867.85
515.499	32679.44
515.701	32970.25
515.904	33220.1
516.106	33711.61
516.308	34129.4
516.51	34407.92
516.712	34051.58
516.914	34694.64
517.116	35286.5
517.318	35112.42
517.52	35456.48
517.722	35495.39
517.925	35704.29
518.127	36382.16
518.329	36873.68
518.531	36554.19
518.733	36963.79
518.935	37692.86
519.136	37545.41
519.338	38102.46
519.54	37594.56
519.742	38313.4
519.944	38448.57
520.146	39169.45
520.348	39323.05
520.55	39613.86
520.752	39636.39
520.954	40011.17
521.155	40029.6
521.357	40469.91
521.559	40687
521.761	41422.22
521.963	41315.72
522.164	41627.01
522.366	41610.63
522.568	42108.29
522.77	41960.83
522.971	43001.2
523.173	42763.64
523.375	42927.47
523.576	42843.51
523.778	42921.33
523.98	43818.34
524.181	43746.66
524.383	44152.16
524.584	44152.16
524.786	44113.25
524.988	43779.43
525.189	44901.71
525.391	44905.81
525.592	44701.01
525.794	45159.76
525.995	45557.06
526.197	45469
526.398	45888.84
526.6	45694.28
526.801	46114.11
527.003	46560.57
527.204	46138.69
527.406	46822.71
527.607	46615.86
527.808	46765.37
528.01	46535.99
528.211	46837.05
528.412	47031.6
528.614	47211.82
528.815	47220.02
529.016	47656.23
529.218	46916.92
529.419	47412.52
529.62	47709.48
529.822	47322.41
530.023	47938.85
530.224	47967.52
530.425	47705.38
530.626	46957.88
530.828	47695.14
531.029	48121.12
531.23	47553.83
531.431	48184.61
531.632	48200.99
531.833	48303.39
532.035	48037.15
532.236	47732.01
532.437	48561.43
532.638	48141.6
532.839	48682.27
533.04	48667.93
533.241	48063.78
533.442	49026.32
533.643	48522.52
533.844	48379.17
534.045	48661.79
534.246	48211.23
534.447	48514.33
534.648	48399.65
534.849	48624.92
535.05	48319.77
535.251	48497.95
535.451	48624.92
535.652	48882.97
535.853	48657.69
536.054	48581.91
536.255	48844.05
536.456	48358.69
536.657	49167.63
536.857	48612.63
537.058	48401.69
537.259	48870.68
537.46	48649.5
537.66	48530.72
537.861	48846.1
538.062	48225.57
538.263	48852.25
538.463	48661.79
538.664	48289.06
538.865	48561.43
539.065	48753.94
539.266	48268.58
539.466	48618.78
539.667	47977.76
539.868	48909.59
540.068	48454.94
540.269	48227.62
540.469	49022.23
540.67	48520.48
540.87	48049.44
541.071	48770.33
541.271	48518.43
541.472	48096.55
541.672	48346.4
541.873	48356.64
542.073	47838.5
542.274	49016.08
542.474	48631.07
542.675	48411.93
542.875	48930.07
543.075	48440.6
543.276	47940.9
543.476	48735.51
543.676	48368.93
543.877	48299.29
544.077	48186.66
544.277	48407.84
544.478	48559.39
544.678	48530.72
544.878	48215.33
545.078	48182.56
545.279	47830.31
545.479	47981.86
545.679	48360.73
545.879	48375.07
546.079	47883.56
546.28	48260.38
546.48	48059.68
546.68	48489.76
546.88	48112.93
547.08	48215.33
547.28	48127.27
547.48	47850.79
547.68	48256.29
547.88	47744.3
548.081	48090.4
548.281	48104.74
548.481	47955.24
548.681	48342.3
548.881	48076.07
549.081	48149.79
549.28	47967.52
549.48	48473.37
549.68	47414.57
549.88	48307.49
550.08	47674.66
550.28	47826.21
550.48	47756.58
550.68	48192.8
550.88	47523.11
551.08	47695.14
551.279	48194.85
551.479	47615.27
551.679	47783.21
551.879	47848.74
552.079	48174.37
552.278	47686.95
552.478	47955.24
552.678	47408.43
552.878	48334.11
553.077	47025.46
553.277	47406.38
553.477	48205.09
553.676	47754.54
553.876	47445.29
554.076	47600.94
554.275	47420.72
554.475	47279.41
554.674	47492.4
554.874	47609.13
555.074	47447.34
555.273	47631.66
555.473	47516.97
555.672	47131.95
555.872	47174.96
556.071	47146.29
556.271	48016.68
556.47	47316.27
556.67	47101.23
556.869	47641.9
557.068	46921.01
557.268	47181.1
557.467	47297.84
557.667	47142.19
557.866	47152.43
558.065	47072.56
558.265	46832.95
558.464	46933.3
558.663	47226.16
558.863	46732.6
559.062	47183.15
559.261	46394.68
559.461	46966.07
559.66	46253.37
559.859	46853.43
560.058	46576.95
560.258	46421.31
560.457	45921.6
560.656	46380.35
560.855	46239.04
561.054	46394.68
561.253	45761.86
561.453	46212.41
561.652	46402.88
561.851	47015.22
562.05	45655.37
562.249	45725
562.448	46544.19
562.647	46017.86
562.846	46021.95
563.045	46001.47
563.244	45421.9
563.443	45972.8
563.642	45528.39
563.841	45583.69
564.04	45675.85
564.239	45849.92
564.438	44928.34
564.637	45557.06
564.836	45647.18
565.035	45368.65
565.234	45143.38
565.432	45090.13
565.631	45317.45
565.83	44959.06
566.029	44684.63
566.228	45176.14
566.427	45186.38
566.625	44981.59
566.824	44457.31
567.023	45176.14
567.222	44115.29
567.42	44766.55
567.619	44684.63
567.818	44359
568.016	44375.39
568.215	44750.17
568.414	44463.45
568.612	44615
568.811	44086.62
569.01	44158.3
569.208	43543.91
569.407	44207.45
569.605	43631.97
569.804	44189.02
570.002	43222.38
570.201	43363.69
570.4	43695.46
570.598	43208.04
570.797	43322.73
570.995	43181.42
571.193	43222.38
571.392	43486.57
571.59	43064.69
571.789	43036.02
571.987	42667.38
572.186	42755.44
572.384	43005.3
572.582	42771.83
572.781	42734.96
572.979	42419.58
573.177	42622.33
573.376	42616.18
573.574	41958.78
573.772	42669.43
573.971	42050.94
574.169	42171.77
574.367	41899.39
574.565	42169.72
574.763	41592.2
574.962	41850.24
575.16	41411.98
575.358	41819.52
575.556	41325.96
575.754	42163.58
575.952	41342.35
576.151	41584.01
576.349	40850.83
576.547	41092.49
576.745	41203.08
576.943	41385.35
577.141	40844.69
577.339	40918.42
577.537	40576.4
577.735	40955.28
577.933	40340.89
578.131	40928.66
578.329	40541.59
578.527	39953.82
578.725	40326.55
578.923	40261.02
579.121	39886.24
579.319	40158.62
579.516	40146.33
579.714	40000.93
579.912	39962.01
580.11	39757.22
580.308	39603.62
580.506	39347.62
580.704	39071.15
580.901	39591.33
581.099	39249.32
581.297	39237.03
581.495	38909.36
581.692	39124.39
581.89	38888.88
582.088	39173.55
582.285	38499.76
582.483	39120.3
582.681	39159.21
582.878	38536.63
583.076	38503.86
583.274	38731.18
583.471	37680.58
583.669	38155.71
583.866	38344.12
584.064	38127.03
584.262	37752.26
584.459	38307.26
584.657	37762.5
584.854	38151.61
585.052	37365.19
585.249	37787.07
585.447	37791.17
585.644	37338.57
585.841	37713.34
586.039	37479.88
586.236	36855.25
586.434	37080.52
586.631	37029.32
586.828	36849.1
587.026	37162.44
587.223	36871.63
587.42	36558.29
587.618	36355.54
587.815	36294.1
588.012	36173.27
588.21	36386.26
588.407	36210.14
588.604	36410.84
588.801	35835.36
588.999	35911.13
589.196	35806.69
589.393	35974.62
589.59	35589.6
589.787	35788.25
589.984	35595.74
590.182	34934.25
590.379	35542.5
590.576	35167.72
590.773	35339.75
590.97	34825.71
591.167	35237.35
591.364	34737.65
591.561	35010.03
591.758	34334.2
591.955	34659.82
592.152	34776.56
592.349	34313.72
592.546	34684.4
592.743	34602.48
592.94	34084.34
593.137	33889.79
593.334	34178.55
593.531	33635.84
593.727	34039.29
593.924	33775.1
594.121	33439.23
594.318	33580.54
594.515	33441.28
594.712	33916.41
594.908	33424.9
595.105	33244.68
595.302	32908.81
595.499	33379.84
595.696	33394.18
595.892	32736.78
596.089	33197.57
596.286	32937.48
596.482	32626.19
596.679	32437.78
596.876	32816.65
597.072	32407.06
597.269	32232.98
597.466	31663.64
597.662	32300.56
597.859	32351.76
598.055	32030.23
598.252	31551.01
598.448	31755.8
598.645	31321.63
598.841	31378.98
599.038	31583.77
599.234	31229.48
599.431	31137.32
599.627	31415.84
599.824	31149.6
600.02	30846.51
600.217	31077.93
600.413	30580.27
600.609	30535.21
600.806	30727.72
601.002	30848.55
601.198	30537.26
601.395	30404.14
601.591	30268.98
601.787	30412.34
601.984	30021.17
602.18	30391.86
602.376	30105.14
602.572	29922.87
602.769	29933.11
602.965	29881.91
603.161	29984.31
603.357	29380.16
603.553	29251.14
603.75	29881.91
603.946	29519.42
604.142	29396.54
604.338	28980.81
604.534	29294.14
604.73	28610.12
604.926	29038.15
605.122	29122.12
605.318	28520.01
605.514	28671.56
605.71	28749.39
605.906	28526.16
606.102	28452.43
606.298	28751.43
606.494	28530.25
606.69	28556.88
606.886	28292.69
607.082	27790.94
607.278	28300.88
607.474	28094.04
607.67	28288.59
607.866	27532.89
608.062	28046.93
608.257	27864.66
608.453	27727.45
608.649	27817.56
608.845	27424.35
609.041	27729.5
609.236	27602.52
609.432	27534.94
609.628	27278.94
609.824	27324
610.019	27506.27
610.215	27410.01
610.411	27649.63
610.606	27012.71
610.802	27205.22
610.998	27293.28
611.193	26969.7
611.389	27043.43
611.584	26838.63
611.78	26736.23
611.976	26975.84
612.171	27309.66
612.367	26699.37
612.562	26725.99
612.758	26355.31
612.953	26429.04
613.149	26738.28
613.344	26461.8
613.539	26816.1
613.735	26564.2
613.93	26801.77
614.126	26316.4
614.321	26744.42
614.517	26535.53
614.712	26519.15
614.907	26091.12
615.103	26410.6
615.298	26168.94
615.493	26320.49
615.688	25943.67
615.884	26441.32
616.079	25878.13
616.274	25966.2
616.47	26015.35
616.665	25925.24
616.86	25765.49
617.055	25794.17
617.25	25591.42
617.445	26060.4
617.641	25208.45
617.836	25706.1
618.031	25253.5
618.226	25441.92
618.421	25452.16
618.616	25509.5
618.811	25165.44
619.006	25548.41
619.201	24675.98
619.396	24856.2
619.591	24530.57
619.786	24884.87
619.981	24266.38
620.176	24745.61
620.371	24514.19
620.566	24426.12
620.761	24364.68
620.956	24376.97
621.151	24069.78
621.346	24157.84
621.541	23651.99
621.735	23817.88
621.93	23336.6
622.125	23774.87
622.32	23049.89
622.515	23453.34
622.709	23135.9
622.904	23187.1
623.099	23004.83
623.294	23000.74
623.488	22816.42
623.683	22812.32
623.878	22329
624.072	22437.55
624.267	22339.24
624.462	22120.11
624.656	21876.4
624.851	22001.33
625.046	21765.81
625.24	21610.17
625.435	21601.97
625.629	21593.78
625.824	21415.61
626.018	21280.44
626.213	20917.95
626.407	21262.01
626.602	20745.92
626.796	21006.02
626.991	20975.3
627.185	20934.34
627.38	20487.88
627.574	20506.31
627.768	20532.93
627.963	20082.38
628.157	20154.06
628.352	19871.44
628.546	19597.01
628.74	20063.95
628.935	19662.55
629.129	19412.7
629.323	19308.25
629.517	19277.53
629.712	19246.81
629.906	19381.98
630.1	18968.29
630.294	18972.38
630.489	18855.65
630.683	18876.13
630.877	18366.18
631.071	18675.43
631.265	18648.8
631.459	18233.07
631.653	18220.78
631.848	18372.33
632.042	18036.46
632.236	18331.37
632.43	17882.86
632.624	17985.26
632.818	17962.73
633.012	17614.58
633.206	17536.76
633.4	17622.77
633.594	17331.96
633.788	17520.37
633.982	17377.01
634.176	17209.08
634.369	17102.59
634.563	16893.69
634.757	16799.49
634.951	16838.4
635.145	16922.37
635.339	16725.76
635.533	16625.41
635.726	16590.59
635.92	16336.65
636.114	16572.16
636.308	16236.3
636.501	16246.54
636.695	15970.06
636.889	16172.81
637.083	15838.99
637.276	15703.82
637.47	15662.86
637.664	15628.05
637.857	15798.03
638.051	15486.74
638.244	15474.45
638.438	15505.17
638.632	15400.72
638.825	15347.48
639.019	15157.02
639.212	15144.73
639.406	15058.71
639.599	15032.09
639.793	14944.03
639.986	14477.09
640.18	14905.12
640.373	14657.31
640.567	14454.56
640.76	14581.54
640.954	14434.08
641.147	14405.41
641.34	14454.56
641.534	14440.23
641.727	14038.83
641.92	14139.18
642.114	13956.91
642.307	13864.75
642.5	13809.45
642.694	13702.96
642.887	13672.24
643.08	13979.43
643.273	13524.79
643.467	13569.84
643.66	13395.76
643.853	13233.97
644.046	13225.78
644.239	13279.03
644.432	13229.88
644.626	13242.17
644.819	12863.29
645.012	13102.9
645.205	13211.45
645.398	12795.71
645.591	12879.68
645.784	12828.48
645.977	12494.66
646.17	12597.06
646.363	12427.07
646.556	12339.01
646.749	12533.57
646.942	12607.3
647.135	12396.35
647.328	12363.59
647.521	12226.37
647.714	11900.75
647.907	12029.77
648.099	11935.56
648.292	11984.71
648.485	11638.61
648.678	11790.16
648.871	11583.31
649.064	11614.03
649.256	11771.72
649.449	11661.13
649.642	11380.56
649.835	11448.15
650.027	11358.03
650.22	11335.51
650.413	11136.85
650.605	11384.66
650.798	11087.7
650.991	11063.13
651.183	11104.09
651.376	10960.73
651.568	10872.67
651.761	10800.99
651.954	10764.12
652.146	10827.61
652.339	10600.29
652.531	10774.36
652.724	10501.98
652.916	10471.26
653.109	10461.02
653.301	10348.39
653.494	10547.04
653.686	10334.05
653.879	10174.31
654.071	10346.34
654.263	10170.21
654.456	10225.51
654.648	10100.58
654.84	9895.78
655.033	9910.12
655.225	9756.52
655.417	9791.34
655.61	9807.72
655.802	9777
655.994	9609.07
656.186	9682.8
656.379	9512.81
656.571	9738.09
656.763	9447.28
656.955	9453.42
657.148	9443.18
657.34	9422.7
657.532	9432.94
657.724	9262.96
657.916	9305.97
658.108	9318.26
658.3	9176.95
658.492	9269.11
658.684	8849.27
658.876	8865.66
659.068	8974.2
659.26	8865.66
659.452	8886.14
659.644	8748.92
659.836	8619.9
660.028	8773.5
660.22	8419.2
660.412	8572.8
660.604	8533.89
660.796	8601.47
660.988	8437.63
661.18	8535.93
661.372	8484.73
661.563	8443.78
661.755	8241.03
661.947	8277.89
662.139	8034.18
662.331	8277.89
662.522	8179.59
662.714	7876.49
662.906	8118.15
663.097	8238.98
663.289	7929.73
663.481	7821.19
663.673	7872.39
663.864	7708.55
664.056	7804.81
664.247	7808.9
664.439	7651.21
664.631	7698.31
664.822	7683.98
665.014	7595.92
665.205	7702.41
665.397	7692.17
665.588	7673.74
665.78	7538.57
665.971	7376.78
666.163	7292.82
666.354	7389.07
666.546	7335.82
666.737	7223.19
666.929	7313.3
667.12	7217.04
667.311	7161.75
667.503	7165.84
667.694	7045.01
667.885	6903.7
668.077	7036.82
668.268	6997.91
668.459	7040.92
668.651	6956.95
668.842	6954.9
669.033	6915.99
669.224	6963.09
669.416	6932.37
669.607	6809.5
669.798	6877.08
669.989	6766.49
670.18	6739.87
670.371	6647.71
670.563	6625.18
670.754	6674.33
670.945	6598.56
671.136	6713.24
671.327	6651.8
671.518	6514.59
671.709	6600.6
671.9	6545.31
672.091	6377.37
672.282	6328.22
672.473	6326.18
672.664	6272.93
672.855	6281.12
673.046	6293.41
673.237	6317.98
673.428	6229.92
673.619	6229.92
673.809	6096.8
674	6074.28
674.191	6156.19
674.382	6160.29
674.573	5994.4
674.764	6078.37
674.954	6145.95
675.145	6039.46
675.336	5967.78
675.527	5885.86
675.717	6035.36
675.908	5726.12
676.099	5957.54
676.289	5818.28
676.48	5912.49
676.671	5736.36
676.861	5826.47
677.052	5787.56
677.243	5664.68
677.433	5783.46
677.624	5834.66
677.814	5754.79
678.005	5644.2
678.195	5699.5
678.386	5691.31
678.576	5484.46
678.767	5539.76
678.957	5492.65
679.148	5586.86
679.338	5588.91
679.529	5539.76
679.719	5498.8
679.909	5490.6
680.1	5490.6
680.29	5332.91
680.481	5365.68
680.671	5377.97
680.861	5431.21
681.052	5330.86
681.242	5322.67
681.432	5412.78
681.622	5455.79
681.813	5314.48
682.003	5416.88
682.193	5255.09
682.383	5343.15
682.573	5148.59
682.764	5160.88
682.954	5238.7
683.144	5113.78
683.334	5105.59
683.524	5179.31
683.714	5089.2
683.904	5052.34
684.094	5044.15
684.284	5109.68
684.474	5115.83
684.664	5017.52
684.854	4894.65
685.044	5015.48
685.234	5011.38
685.424	4872.12
685.614	4968.37
685.804	4949.94
685.994	4913.08
686.184	4943.8
686.374	4853.69
686.564	4794.29
686.753	4960.18
686.943	4915.12
687.133	4749.24
687.323	4691.9
687.513	4646.84
687.702	4736.95
687.892	4577.21
688.082	4652.98
688.272	4599.74
688.461	4452.28
688.651	4667.32
688.841	4556.73
689.03	4618.17
689.22	4403.13
689.41	4540.35
689.599	4532.15
689.789	4472.76
689.979	4558.78
690.168	4407.23
690.358	4280.25
690.547	4378.56
690.737	4394.94
690.926	4462.52
691.116	4224.96
691.305	4229.06
691.495	4337.6
691.684	4210.62
691.874	4298.69
692.063	4177.86
692.252	4071.36
692.442	4218.82
692.631	4032.45
692.82	4016.07
693.01	4106.18
693.199	4018.11
693.388	4001.73
693.578	4001.73
693.767	4057.03
693.956	4022.21
694.146	3860.42
694.335	3907.52
694.524	3891.14
694.713	3997.63
694.902	4067.27
695.092	4067.27
695.281	3821.51
695.47	3880.9
695.659	3885
695.848	3762.12
696.037	3753.93
696.226	3747.78
696.415	3674.06
696.604	3780.55
696.793	3780.55
696.982	3768.26
697.171	3737.54
697.36	3721.16
697.549	3618.76
697.738	3659.72
697.927	3438.54
698.116	3674.06
698.305	3608.52
698.494	3651.53
698.683	3581.9
698.872	3596.23
699.061	3583.95
699.25	3532.75
699.438	3536.84
699.627	3526.6
699.816	3487.69
700.005	3538.89
700.193	3518.41
700.382	3653.58
700.571	3434.44
700.76	3495.88
700.948	3348.43
701.137	3506.12
701.326	3452.88
701.514	3403.72
701.703	3422.16
701.892	3416.01
702.08	3512.27
702.269	3540.94
702.457	3377.1
702.646	3430.35
702.834	3358.67
703.023	3330
703.212	3483.59
703.4	3397.58
703.589	3456.97
703.777	3409.87
703.965	3280.85
704.154	3467.21
704.342	3313.61
704.531	3346.38
704.719	3358.67
704.907	3493.83
705.096	3442.64
705.284	3319.76
705.472	3319.76
705.661	3311.57
705.849	3139.54
706.037	3243.98
706.226	3241.93
706.414	3262.41
706.602	3299.28
706.79	3366.86
706.979	3262.41
707.167	3114.96
707.355	3112.91
707.543	3426.25
707.731	3172.3
707.919	3239.89
708.107	3219.41
708.296	3395.53
708.484	3137.49
708.672	3166.16
708.86	3231.69
709.048	3145.68
709.236	3133.39
709.424	3225.55
709.612	3131.34
709.8	3264.46
709.988	3151.82
710.176	3262.41
710.364	3190.74
710.551	3106.77
710.739	3160.02
710.927	3250.13
711.115	3092.43
711.303	3241.93
711.491	3145.68
711.679	3102.67
711.866	3061.71
712.054	3207.12
712.242	3129.3
712.43	3272.65
712.617	3108.82
712.805	3000.27
712.993	3276.75
713.181	3071.95
713.368	3123.15
713.556	3157.97
713.744	2987.99
713.931	3090.38
714.119	2996.18
714.306	3004.37
714.494	3117.01
714.682	3008.47
714.869	3024.85
715.057	3059.67
715.244	3063.76
715.432	3065.81
715.619	3155.92
715.807	3106.77
715.994	3055.57
716.182	3133.39
716.369	3192.78
716.556	3094.48
716.744	2961.36
716.931	3063.76
717.119	3112.91
717.306	3139.54
717.493	3143.63
717.681	3022.8
717.868	3100.62
718.055	3053.52
718.242	3076.05
718.43	2975.7
718.617	2916.31
718.804	3035.09
718.991	2934.74
719.179	3026.9
719.366	2959.31
719.553	2973.65
719.74	2942.93
719.927	3186.64
720.114	3043.28
720.301	2930.64
720.488	2912.21
720.676	2967.51
720.863	2951.12
721.05	3035.09
721.237	3033.04
721.424	2967.51
721.611	2959.31
721.798	2844.63
721.985	2924.5
722.172	2949.07
722.358	2918.36
722.545	2940.88
722.732	2867.16
722.919	2981.84
723.106	3022.8
723.293	2967.51
723.48	3057.62
723.667	2983.89
723.853	2932.69
724.04	2953.17
724.227	3037.14
724.414	2965.46
724.6	3020.75
724.787	2906.07
724.974	2953.17
725.161	2850.77
725.347	2869.2
725.534	2947.03
725.72	3082.19
725.907	2897.88
726.094	2965.46
726.28	2856.92
726.467	2820.05
726.653	2985.94
726.84	2953.17
727.027	2979.79
727.213	2805.72
727.4	2998.23
727.586	2897.88
727.773	2983.89
727.959	2910.16
728.145	2881.49
728.332	2891.73
728.518	2985.94
728.705	2834.39
728.891	2809.81
729.077	2885.59
729.264	2928.6
729.45	2879.44
729.636	3020.75
729.823	2805.72
730.009	2987.99
730.195	2779.09
730.382	2947.03
730.568	2787.29
730.754	2856.92
730.94	2830.29
731.126	2879.44
731.313	2904.02
731.499	2793.43
731.685	2852.82
731.871	2795.48
732.057	2895.83
732.243	2901.97
732.429	2901.97
732.615	2731.99
732.801	2861.01
732.987	2848.72
733.173	2914.26
733.359	2789.33
733.545	2824.15
733.731	2672.6
733.917	2846.68
734.103	2719.7
734.289	2930.64
734.475	2828.24
734.661	2885.59
734.847	2871.25
735.033	2887.64
735.219	2828.24
735.404	2750.42
735.59	2791.38
735.776	2764.76
735.962	2797.53
736.148	2768.85
736.333	2715.61
736.519	2840.53
736.705	2654.17
736.89	2779.09
737.076	2779.09
737.262	2779.09
737.447	2746.33
737.633	2648.02
737.819	2631.64
738.004	2748.37
738.19	2676.7
738.375	2820.05
738.561	2727.89
738.747	2779.09
738.932	2908.12
739.118	2703.32
739.303	2721.75
739.489	2617.3
739.674	2516.95
739.859	2758.61
740.045	2697.17
740.23	2725.85
740.416	2543.58
740.601	2578.39
740.786	2648.02
740.972	2574.3
741.157	2596.82
741.342	2605.02
741.528	2494.43
741.713	2584.54
741.898	2652.12
742.084	2562.01
742.269	2527.19
742.454	2629.59
742.639	2586.58
742.824	2531.29
743.01	2543.58
743.195	2488.28
743.38	2461.66
743.565	2582.49
743.75	2451.42
743.935	2514.91
744.12	2529.24
744.305	2459.61
744.49	2410.46
744.675	2471.9
744.86	2357.21
745.045	2402.27
745.23	2496.47
745.415	2426.84
745.6	2336.73
745.785	2447.32
745.97	2289.63
746.155	2371.55
746.34	2293.72
746.525	2306.01
746.71	2467.8
746.895	2150.37
747.079	2295.77
747.264	2318.3
747.449	2256.86
747.634	2357.21
747.819	2256.86
748.003	2271.2
748.188	2187.23
748.373	2154.46
748.557	2191.33
748.742	2158.56
748.927	2174.94
749.111	2244.57
749.296	2203.61
749.481	2082.78
749.665	2123.74
749.85	2076.64
750.034	2088.93
750.219	1976.29
750.404	2088.93
750.588	2109.41
750.773	1972.19
750.957	2076.64
751.141	2054.11
751.326	1927.14
751.51	1984.48
751.695	2015.2
751.879	2078.69
752.064	2043.87
752.248	1986.53
752.432	1937.38
752.617	1961.95
752.801	1884.13
752.985	1800.16
753.17	1851.36
753.354	1892.32
753.538	1863.65
753.722	1781.73
753.907	1650.66
754.091	1753.06
754.275	1826.79
754.459	1701.86
754.643	1763.3
754.828	1738.73
755.012	1814.5
755.196	1742.82
755.38	1757.16
755.564	1734.63
755.748	1726.44
755.932	1708.01
756.116	1630.18
756.3	1671.14
756.484	1669.09
756.668	1648.61
756.852	1533.93
757.036	1621.99
757.22	1558.5
757.404	1527.78
757.588	1566.7
757.772	1566.7
757.956	1531.88
758.14	1505.26
758.323	1497.07
758.507	1486.83
758.691	1566.7
758.875	1562.6
759.059	1564.65
759.242	1425.39
759.426	1566.7
759.61	1433.58
759.794	1560.55
759.977	1419.24
760.161	1423.34
760.345	1441.77
760.528	1384.43
760.712	1411.05
760.895	1370.09
761.079	1396.71
761.263	1411.05
761.446	1339.37
761.63	1390.57
761.813	1411.05
761.997	1390.57
762.18	1234.93
762.364	1425.39
762.547	1400.81
762.731	1298.41
762.914	1394.67
763.098	1261.55
763.281	1343.47
763.464	1245.16
763.648	1318.89
763.831	1312.75
764.015	1327.08
764.198	1263.6
764.381	1286.12
764.564	1413.1
764.748	1249.26
764.931	1275.88
765.114	1284.08
765.297	1265.64
765.481	1339.37
765.664	1241.07
765.847	1245.16
766.03	1165.29
766.213	1130.48
766.397	1302.51
766.58	1206.25
766.763	1208.3
766.946	1177.58
767.129	1239.02
767.312	1185.77
767.495	1216.49
767.678	1193.97
767.861	1167.34
768.044	1052.66
768.227	1171.44
768.41	1146.86
768.593	1071.09
768.776	1079.28
768.959	1157.1
769.142	1040.37
769.324	1093.62
769.507	1048.56
769.69	1011.7
769.873	1087.47
770.056	1150.96
770.239	1038.32
770.421	1062.9
770.604	1073.14
770.787	1144.81
770.97	1081.33
771.152	1044.46
771.335	1036.27
771.518	972.79
771.7	1124.33
771.883	1042.42
772.066	1026.03
772.248	1017.84
772.431	1046.51
772.613	1019.89
772.796	1032.18
772.978	1032.18
773.161	1009.65
773.343	962.55
773.526	993.26
773.708	925.68
773.891	876.53
774.073	1003.5
774.256	892.91
774.438	976.88
774.621	956.4
774.803	1036.27
774.985	964.59
775.168	915.44
775.35	923.63
775.532	892.91
775.715	964.59
775.897	802.8
776.079	872.43
776.261	827.38
776.444	948.21
776.626	792.56
776.808	849.91
776.99	921.59
777.173	864.24
777.355	847.86
777.537	882.67
777.719	858.1
777.901	884.72
778.083	804.85
778.265	806.9
778.447	823.28
778.629	813.04
778.811	870.39
778.993	741.36
779.175	763.89
779.357	835.57
779.539	739.32
779.721	765.94
779.903	811
780.085	770.04
780.267	774.13
780.449	733.17
780.631	710.65
780.812	663.54
780.994	688.12
781.176	757.75
781.358	669.69
781.54	647.16
781.721	733.17
781.903	706.55
782.085	641.01
782.267	702.45
782.448	665.59
782.63	737.27
782.812	708.6
782.993	733.17
783.175	524.28
783.357	612.34
783.538	583.67
783.72	677.88
783.901	694.26
784.083	690.17
784.264	581.62
784.446	589.82
784.627	548.86
784.809	653.3
784.99	575.48
785.172	614.39
785.353	550.9
785.535	565.24
785.716	475.13
785.897	595.96
786.079	550.9
786.26	573.43
786.441	593.91
786.623	471.03
786.804	524.28
786.985	561.14
787.167	577.53
787.348	602.1
787.529	442.36
787.71	497.66
787.891	624.63
788.073	464.89
788.254	514.04
788.435	571.38
788.616	413.69
788.797	509.94
788.978	438.27
789.159	569.34
789.34	511.99
789.522	538.62
789.703	438.27
789.884	516.09
790.065	475.13
790.246	485.37
790.427	417.79
790.607	405.5
790.788	509.94
790.969	466.94
791.15	485.37
791.331	464.89
791.512	387.07
791.693	440.31
791.874	387.07
792.054	561.14
792.235	423.93
792.416	419.83
792.597	444.41
792.778	491.51
792.958	456.7
793.139	415.74
793.32	354.3
793.5	342.01
793.681	462.84
793.862	385.02
794.042	413.69
794.223	360.44
794.404	403.45
794.584	393.21
794.765	327.67
794.945	346.11
795.126	425.98
795.306	333.82
795.487	446.46
795.667	405.5
795.848	421.88
796.028	290.81
796.209	280.57
796.389	335.87
796.57	391.16
796.75	354.3
796.93	323.58
797.111	358.39
797.291	360.44
797.471	290.81
797.652	337.91
797.832	344.06
798.012	356.35
798.192	264.19
798.373	339.96
798.553	348.15
798.733	378.87
798.913	327.67
799.093	284.67
799.274	442.36
799.454	317.44
799.634	323.58
799.814	329.72
799.994	344.06
800.174	325.63
800.354	319.48
800.534	253.95
800.714	256
800.894	245.76
801.074	245.76
801.254	342.01
801.434	360.44
801.614	333.82
801.794	278.52
801.974	755.7
802.154	301.05
802.334	339.96
802.514	247.8
802.693	286.72
802.873	270.33
803.053	311.29
803.233	294.91
803.413	303.1
803.592	303.1
803.772	344.06
803.952	239.61
804.131	272.38
804.311	276.48
804.491	327.67
804.67	227.32
804.85	294.91
805.03	200.7
805.209	301.05
805.389	266.24
805.568	229.37
805.748	235.52
805.928	278.52
806.107	225.28
806.287	200.7
806.466	307.2
806.646	282.62
806.825	204.8
807.004	243.71
807.184	231.42
807.363	221.18
807.543	243.71
807.722	288.76
807.901	274.43
808.081	198.65
808.26	247.8
808.439	280.57
808.619	180.22
808.798	266.24
808.977	229.37
809.156	260.09
809.336	194.56
809.515	303.1
809.694	180.22
809.873	215.04
810.052	243.71
810.231	266.24
810.411	221.18
810.59	159.74
810.769	253.95
810.948	221.18
811.127	139.26
811.306	215.04
811.485	256
811.664	235.52
811.843	200.7
812.022	198.65
812.201	219.13
812.38	217.08
812.559	233.47
812.737	184.32
812.916	135.17
813.095	288.76
813.274	188.41
813.453	231.42
813.632	202.75
813.811	247.8
813.989	110.59
814.168	196.61
814.347	208.89
814.526	102.4
814.704	174.08
814.883	215.04
815.062	204.8
815.24	217.08
815.419	155.65
815.598	147.45
815.776	176.13
815.955	135.17
816.133	157.69
816.312	182.27
816.49	167.93
816.669	178.17
816.847	196.61
817.026	172.03
817.204	180.22
817.383	53.25
817.561	151.55
817.74	129.02
817.918	163.84
818.097	157.69
818.275	169.98
818.453	155.65
818.632	208.89
818.81	169.98
818.988	149.5
819.167	149.5
819.345	169.98
819.523	153.6
819.701	176.13
819.879	194.56
820.058	149.5
820.236	120.83
820.414	157.69
820.592	151.55
820.77	155.65
820.948	141.31
821.127	90.11
821.305	149.5
821.483	100.35
821.661	167.93
821.839	120.83
822.017	208.89
822.195	145.41
822.373	155.65
822.551	153.6
822.729	116.73
822.907	141.31
823.085	202.75
823.262	159.74
823.44	151.55
823.618	81.92
823.796	137.21
823.974	186.37
824.152	122.88
824.329	149.5
824.507	167.93
824.685	100.35
824.863	151.55
825.04	83.97
825.218	227.32
825.396	129.02
825.574	153.6
825.751	141.31
825.929	129.02
826.107	90.11
826.284	106.49
826.462	124.93
826.639	129.02
826.817	143.36
826.994	223.23
827.172	69.63
827.349	161.79
827.527	79.87
827.704	100.35
827.882	110.59
828.059	139.26
828.237	112.64
828.414	131.07
828.591	14.34
828.769	186.37
828.946	71.68
829.124	104.45
829.301	75.77
829.478	176.13
829.655	122.88
829.833	79.87
830.01	114.69
830.187	124.93
830.364	96.25
830.542	86.01
830.719	83.97
830.896	110.59
831.073	157.69
831.25	167.93
831.427	110.59
831.604	38.91
831.782	151.55
831.959	28.67
832.136	110.59
832.313	40.96
832.49	75.77
832.667	133.12
832.844	32.77
833.021	98.3
833.198	139.26
833.374	51.2
833.551	104.45
833.728	98.3
833.905	163.84
834.082	98.3
834.259	16.38
834.436	182.27
834.612	69.63
834.789	122.88
834.966	114.69
835.143	61.44
835.319	40.96
835.496	124.93
835.673	143.36
835.85	59.39
836.026	114.69
836.203	141.31
836.38	90.11
836.556	75.77
836.733	90.11
836.909	184.32
837.086	34.82
837.262	20.48
837.439	104.45
837.616	55.3
837.792	59.39
837.968	88.06
838.145	36.86
838.321	102.4
838.498	108.54
838.674	71.68
838.851	43.01
839.027	135.17
839.203	81.92
839.38	61.44
839.556	47.1
839.732	77.82
839.909	86.01
840.085	88.06
840.261	49.15
840.437	145.41
840.614	83.97
840.79	65.53
840.966	102.4
841.142	28.67
841.318	55.3
841.494	71.68
841.671	94.21
841.847	71.68
842.023	45.06
842.199	104.45
842.375	24.58
842.551	69.63
842.727	8.19
842.903	137.21
843.079	90.11
843.255	71.68
843.431	67.58
843.607	96.25
843.783	79.87
843.959	67.58
844.134	-12.29
844.31	120.83
844.486	77.82
844.662	-2.05
844.838	-12.29
845.013	161.79
845.189	73.73
845.365	18.43
845.541	57.34
845.716	90.11
845.892	100.35
846.068	-2.05
846.244	18.43
846.419	49.15
846.595	96.25
846.77	100.35
846.946	75.77
847.122	-8.19
847.297	-14.34
847.473	86.01
847.648	-24.58
847.824	51.2
847.999	4.1
848.175	63.49
848.35	34.82
848.526	47.1
848.701	151.55
848.876	141.31
849.052	98.3
849.227	86.01
849.403	30.72
849.578	45.06
849.753	129.02
849.929	53.25
850.104	45.06
850.279	45.06
850.454	90.11
850.63	77.82
850.805	8.19
850.98	81.92
851.155	71.68
851.33	98.3
851.505	79.87
851.681	139.26
851.856	79.87
852.031	79.87
852.206	86.01
852.381	75.77
852.556	2.05
852.731	4.1
852.906	40.96
853.081	114.69
853.256	102.4
853.431	51.2
853.606	26.62
853.781	59.39
853.956	92.16
854.131	34.82
854.305	61.44
854.48	79.87
854.655	63.49
854.83	-49.15
855.005	75.77
855.18	98.3
855.354	73.73
855.529	32.77
855.704	38.91
855.879	47.1
856.053	65.53
856.228	61.44
856.403	-16.38
856.577	71.68
856.752	14.34
856.926	47.1
857.101	69.63
857.276	-34.82
857.45	75.77
857.625	88.06
857.799	49.15
857.974	26.62
858.148	-32.77
858.323	28.67
858.497	0
858.672	79.87
858.846	-20.48
859.02	86.01
859.195	-18.43
859.369	-24.58
859.543	-34.82
859.718	47.1
859.892	40.96
860.066	77.82
860.241	75.77
860.415	8.19
860.589	-30.72
860.763	59.39
860.938	43.01
861.112	36.86
861.286	47.1
861.46	69.63
861.634	30.72
861.808	69.63
861.982	12.29
862.157	45.06
862.331	86.01
862.505	67.58
862.679	-6.14
862.853	0
863.027	26.62
863.201	34.82
863.375	38.91
863.549	-16.38
863.722	79.87
863.896	26.62
864.07	53.25
864.244	26.62
864.418	59.39
864.592	-6.14
864.766	26.62
864.939	8.19
865.113	-28.67
865.287	71.68
865.461	43.01
865.634	83.97
865.808	-8.19
865.982	63.49
866.156	49.15
866.329	18.43
866.503	-18.43
866.676	59.39
866.85	67.58
867.024	-47.1
867.197	49.15
867.371	-4.1
867.544	30.72
867.718	77.82
867.891	45.06
868.065	63.49
868.238	28.67
868.412	112.64
868.585	24.58
868.759	55.3
868.932	24.58
869.105	43.01
869.279	61.44
869.452	-47.1
869.625	-16.38
869.799	20.48
869.972	4.1
870.145	-2.05
870.319	32.77
870.492	8.19
870.665	28.67
870.838	12.29
871.011	-32.77
871.185	49.15
871.358	38.91
871.531	-30.72
871.704	36.86
871.877	75.77
872.05	14.34
872.223	20.48
872.396	12.29
872.569	51.2
872.742	-20.48
872.915	36.86
873.088	69.63
873.261	10.24
873.434	22.53
873.607	28.67
873.78	-6.14
873.953	-8.19
874.126	22.53
874.299	57.34
874.471	26.62
874.644	-34.82
874.817	-2.05
874.99	61.44
875.163	4.1
875.335	69.63
875.508	18.43
875.681	102.4
875.853	8.19
876.026	22.53
876.199	-4.1
876.371	-32.77
876.544	81.92
876.717	4.1
876.889	-2.05
877.062	71.68
877.234	-32.77
877.407	20.48
877.579	32.77
877.752	6.14
877.924	30.72
878.097	26.62
878.269	30.72
878.442	-10.24
878.614	-14.34
878.786	30.72
878.959	43.01
879.131	51.2
879.303	-32.77
879.476	-22.53
879.648	67.58
879.82	30.72
879.993	24.58
880.165	61.44
880.337	53.25
880.509	18.43
880.681	-20.48
880.854	40.96
881.026	47.1
881.198	36.86
881.37	53.25
881.542	-10.24
881.714	38.91
881.886	61.44
882.058	-30.72
882.23	-6.14
882.402	47.1
882.574	-43.01
882.746	16.38
882.918	71.68
883.09	63.49
883.262	32.77
883.434	-8.19
883.606	28.67
883.778	14.34
883.95	135.17
884.122	-30.72
884.293	-6.14
884.465	10.24
884.637	20.48
884.809	55.3
884.98	-59.39
885.152	71.68
885.324	-6.14
885.496	-36.86
885.667	-8.19
885.839	-24.58
886.011	26.62
886.182	32.77
886.354	-20.48
886.525	8.19
886.697	75.77
886.869	24.58
887.04	57.34
887.212	36.86
887.383	-26.62
887.555	-8.19
887.726	65.53
887.897	40.96
888.069	-4.1
888.24	34.82
888.412	6.14
888.583	67.58
888.754	18.43
888.926	38.91
889.097	14.34
889.268	-20.48
889.44	-96.25
889.611	-98.3
889.782	-34.82
889.953	6.14
890.125	69.63
890.296	32.77
890.467	57.34
890.638	28.67
890.809	-12.29
890.98	45.06
891.151	92.16
891.323	6.14
891.494	8.19
891.665	59.39
891.836	47.1
892.007	8.19
892.178	40.96
892.349	-28.67
892.52	4.1
892.691	36.86
892.862	75.77
893.032	32.77
893.203	2.05
893.374	61.44
893.545	88.06
893.716	-16.38
893.887	-16.38
894.057	-4.1
894.228	63.49
894.399	-55.3
894.57	86.01
894.74	8.19
894.911	6.14
895.082	-6.14
895.253	47.1
895.423	32.77
895.594	-14.34
895.764	-10.24
895.935	0
896.106	-6.14
896.276	0
896.447	-2.05
896.617	-2.05
896.788	38.91
896.958	32.77
897.129	16.38
897.299	-6.14
897.47	-34.82
897.64	2.05
897.81	-20.48
897.981	-10.24
898.151	34.82
898.322	106.49
898.492	40.96
898.662	-43.01
898.832	45.06
899.003	67.58
899.173	90.11
899.343	61.44
899.513	-22.53
