Data from USB4F104151__57__12-27-37-572.txt Node

Date: Fri Mar 14 12:27:37 EDT 2025
User: louis
Spectrometer: USB4F10415
Trigger mode: 4
Integration Time (sec): 2.000000E-2
Scans to average: 1
Electric dark correction enabled: true
Nonlinearity correction enabled: false
Boxcar width: 0
XAxis mode: Wavelengths
Number of Pixels in Spectrum: 3648
>>>>>Begin Spectral Data<<<<<
178.204	-86.87
178.424	-86.87
178.644	-86.87
178.864	-37.72
179.084	-50
179.304	-35.67
179.524	21.67
179.744	7.34
179.964	-13.14
180.184	13.48
180.404	83.11
180.624	-50
180.844	72.87
181.064	-64.34
181.283	15.53
181.503	-13.14
181.723	-37.72
181.943	38.06
182.163	66.73
182.383	-11.09
182.602	-13.14
182.822	17.58
183.042	52.39
183.262	3.24
183.482	60.59
183.701	-7
183.921	48.3
184.141	50.35
184.361	-23.38
184.58	15.53
184.8	50.35
185.02	5.29
185.239	7.34
185.459	21.67
185.679	52.39
185.898	13.48
186.118	9.39
186.338	-37.72
186.557	40.11
186.777	-23.38
186.997	54.44
187.216	3.24
187.436	95.4
187.655	27.82
187.875	70.83
188.095	17.58
188.314	7.34
188.534	1.19
188.753	66.73
188.973	17.58
189.192	76.97
189.412	15.53
189.631	50.35
189.851	-21.33
190.07	-31.57
190.29	-15.19
190.509	3.24
190.729	21.67
190.948	11.43
191.168	60.59
191.387	-25.43
191.607	33.96
191.826	48.3
192.045	46.25
192.265	31.91
192.484	-0.85
192.704	-4.95
192.923	-13.14
193.142	66.73
193.362	23.72
193.581	87.21
193.8	-43.86
194.02	-64.34
194.239	7.34
194.458	-9.05
194.678	66.73
194.897	74.92
195.116	56.49
195.335	48.3
195.555	-25.43
195.774	54.44
195.993	42.15
196.212	-97.11
196.432	40.11
196.651	62.63
196.87	-31.57
197.089	60.59
197.308	72.87
197.528	74.92
197.747	29.87
197.966	3.24
198.185	31.91
198.404	40.11
198.623	81.07
198.842	70.83
199.062	19.63
199.281	5.29
199.5	21.67
199.719	62.63
199.938	52.39
200.157	31.91
200.376	-29.52
200.595	83.11
200.814	-17.24
201.033	33.96
201.252	48.3
201.471	-11.09
201.69	99.5
201.909	19.63
202.128	60.59
202.347	48.3
202.566	83.11
202.785	-9.05
203.004	1.19
203.223	68.78
203.442	-7
203.661	-23.38
203.879	17.58
204.098	66.73
204.317	52.39
204.536	29.87
204.755	50.35
204.974	13.48
205.193	-25.43
205.411	15.53
205.63	91.31
205.849	44.2
206.068	40.11
206.287	33.96
206.505	74.92
206.724	56.49
206.943	11.43
207.162	17.58
207.381	68.78
207.599	-19.29
207.818	36.01
208.037	-45.91
208.255	33.96
208.474	60.59
208.693	-31.57
208.911	60.59
209.13	50.35
209.349	76.97
209.567	23.72
209.786	64.68
210.005	44.2
210.223	-33.62
210.442	23.72
210.661	62.63
210.879	76.97
211.098	56.49
211.316	25.77
211.535	-21.33
211.753	17.58
211.972	97.45
212.191	5.29
212.409	70.83
212.628	40.11
212.846	-4.95
213.065	58.54
213.283	146.6
213.502	70.83
213.72	31.91
213.938	25.77
214.157	11.43
214.375	58.54
214.594	27.82
214.812	27.82
215.031	89.26
215.249	5.29
215.467	19.63
215.686	72.87
215.904	44.2
216.122	13.48
216.341	99.5
216.559	33.96
216.778	42.15
216.996	-2.9
217.214	46.25
217.432	40.11
217.651	23.72
217.869	3.24
218.087	62.63
218.306	-23.38
218.524	-25.43
218.742	48.3
218.96	9.39
219.179	46.25
219.397	31.91
219.615	68.78
219.833	64.68
220.051	11.43
220.27	50.35
220.488	36.01
220.706	-0.85
220.924	74.92
221.142	13.48
221.36	68.78
221.578	27.82
221.796	72.87
222.015	132.26
222.233	40.11
222.451	58.54
222.669	68.78
222.887	3.24
223.105	-4.95
223.323	17.58
223.541	-21.33
223.759	7.34
223.977	3.24
224.195	46.25
224.413	-31.57
224.631	46.25
224.849	72.87
225.067	-27.48
225.285	9.39
225.503	70.83
225.721	-13.14
225.939	76.97
226.157	-21.33
226.375	31.91
226.592	27.82
226.81	52.39
227.028	66.73
227.246	23.72
227.464	-15.19
227.682	132.26
227.9	46.25
228.117	42.15
228.335	29.87
228.553	101.55
228.771	97.45
228.989	44.2
229.206	38.06
229.424	48.3
229.642	48.3
229.86	70.83
230.077	52.39
230.295	-45.91
230.513	42.15
230.731	17.58
230.948	9.39
231.166	72.87
231.384	-4.95
231.601	-15.19
231.819	50.35
232.037	56.49
232.254	9.39
232.472	33.96
232.689	-39.76
232.907	-31.57
233.125	13.48
233.342	3.24
233.56	50.35
233.777	25.77
233.995	27.82
234.213	144.55
234.43	109.74
234.648	36.01
234.865	76.97
235.083	81.07
235.3	25.77
235.518	64.68
235.735	27.82
235.953	56.49
236.17	-45.91
236.388	11.43
236.605	50.35
236.822	17.58
237.04	19.63
237.257	66.73
237.475	25.77
237.692	15.53
237.909	-25.43
238.127	3.24
238.344	93.35
238.562	54.44
238.779	23.72
238.996	83.11
239.214	42.15
239.431	89.26
239.648	11.43
239.865	31.91
240.083	3.24
240.3	27.82
240.517	-15.19
240.735	48.3
240.952	-19.29
241.169	29.87
241.386	33.96
241.603	89.26
241.821	29.87
242.038	91.31
242.255	13.48
242.472	-17.24
242.689	66.73
242.907	62.63
243.124	25.77
243.341	23.72
243.558	40.11
243.775	36.01
243.992	56.49
244.209	5.29
244.426	25.77
244.643	76.97
244.86	50.35
245.078	95.4
245.295	11.43
245.512	48.3
245.729	-70.48
245.946	-39.76
246.163	33.96
246.38	-7
246.597	-15.19
246.814	-17.24
247.031	21.67
247.248	44.2
247.464	56.49
247.681	148.65
247.898	-54.1
248.115	42.15
248.332	27.82
248.549	29.87
248.766	-0.85
248.983	103.59
249.2	11.43
249.417	103.59
249.633	40.11
249.85	101.55
250.067	-9.05
250.284	40.11
250.501	128.17
250.717	83.11
250.934	-54.1
251.151	38.06
251.368	44.2
251.585	33.96
251.801	-37.72
252.018	5.29
252.235	9.39
252.451	-31.57
252.668	38.06
252.885	50.35
253.102	-11.09
253.318	64.68
253.535	42.15
253.752	1.19
253.968	5.29
254.185	21.67
254.401	23.72
254.618	33.96
254.835	-39.76
255.051	56.49
255.268	-41.81
255.484	54.44
255.701	42.15
255.917	70.83
256.134	3.24
256.351	58.54
256.567	-35.67
256.784	46.25
257	-13.14
257.217	23.72
257.433	52.39
257.65	29.87
257.866	76.97
258.082	-93.01
258.299	44.2
258.515	40.11
258.732	50.35
258.948	83.11
259.165	29.87
259.381	40.11
259.597	3.24
259.814	15.53
260.03	19.63
260.246	7.34
260.463	126.12
260.679	42.15
260.895	40.11
261.112	31.91
261.328	50.35
261.544	54.44
261.761	89.26
261.977	31.91
262.193	-11.09
262.409	81.07
262.626	42.15
262.842	17.58
263.058	50.35
263.274	126.12
263.49	-0.85
263.707	70.83
263.923	17.58
264.139	70.83
264.355	54.44
264.571	62.63
264.787	52.39
265.004	-0.85
265.22	3.24
265.436	132.26
265.652	-13.14
265.868	33.96
266.084	-4.95
266.3	3.24
266.516	-35.67
266.732	42.15
266.948	-43.86
267.164	-11.09
267.38	-4.95
267.596	-45.91
267.812	31.91
268.028	79.02
268.244	66.73
268.46	81.07
268.676	42.15
268.892	-11.09
269.108	-15.19
269.324	5.29
269.54	97.45
269.756	79.02
269.972	5.29
270.188	-0.85
270.403	3.24
270.619	79.02
270.835	-7
271.051	-0.85
271.267	1.19
271.483	50.35
271.698	38.06
271.914	7.34
272.13	19.63
272.346	40.11
272.562	5.29
272.777	103.59
272.993	1.19
273.209	-33.62
273.425	17.58
273.64	21.67
273.856	5.29
274.072	93.35
274.287	13.48
274.503	89.26
274.719	48.3
274.934	11.43
275.15	9.39
275.366	76.97
275.581	52.39
275.797	23.72
276.012	36.01
276.228	7.34
276.444	-33.62
276.659	62.63
276.875	-2.9
277.09	99.5
277.306	1.19
277.521	54.44
277.737	36.01
277.952	33.96
278.168	87.21
278.383	60.59
278.599	17.58
278.814	93.35
279.03	56.49
279.245	83.11
279.461	-2.9
279.676	36.01
279.892	52.39
280.107	46.25
280.322	-31.57
280.538	-15.19
280.753	42.15
280.969	38.06
281.184	-52.05
281.399	56.49
281.615	81.07
281.83	1.19
282.045	-56.15
282.26	60.59
282.476	19.63
282.691	93.35
282.906	83.11
283.122	107.69
283.337	21.67
283.552	11.43
283.767	-17.24
283.983	23.72
284.198	5.29
284.413	76.97
284.628	31.91
284.843	74.92
285.058	19.63
285.274	11.43
285.489	19.63
285.704	60.59
285.919	-15.19
286.134	-15.19
286.349	38.06
286.564	3.24
286.779	66.73
286.995	3.24
287.21	-9.05
287.425	46.25
287.64	76.97
287.855	46.25
288.07	-31.57
288.285	68.78
288.5	87.21
288.715	-37.72
288.93	-19.29
289.145	62.63
289.36	-60.24
289.575	11.43
289.79	113.83
290.004	23.72
290.219	70.83
290.434	15.53
290.649	-2.9
290.864	-13.14
291.079	-23.38
291.294	140.46
291.509	83.11
291.724	60.59
291.938	70.83
292.153	-0.85
292.368	-31.57
292.583	-11.09
292.798	79.02
293.012	27.82
293.227	31.91
293.442	-15.19
293.657	83.11
293.871	31.91
294.086	42.15
294.301	31.91
294.516	38.06
294.73	60.59
294.945	-15.19
295.16	-4.95
295.374	60.59
295.589	68.78
295.804	17.58
296.018	40.11
296.233	-23.38
296.447	40.11
296.662	-7
296.877	17.58
297.091	23.72
297.306	-7
297.52	25.77
297.735	-11.09
297.949	38.06
298.164	64.68
298.378	-0.85
298.593	-33.62
298.807	29.87
299.022	-19.29
299.236	54.44
299.451	72.87
299.665	-19.29
299.88	17.58
300.094	72.87
300.309	-35.67
300.523	60.59
300.737	33.96
300.952	19.63
301.166	74.92
301.381	21.67
301.595	68.78
301.809	-64.34
302.024	11.43
302.238	-37.72
302.452	81.07
302.667	56.49
302.881	132.26
303.095	50.35
303.309	-15.19
303.524	33.96
303.738	50.35
303.952	56.49
304.166	83.11
304.381	-21.33
304.595	46.25
304.809	-15.19
305.023	81.07
305.237	23.72
305.452	33.96
305.666	-4.95
305.88	56.49
306.094	130.22
306.308	27.82
306.522	89.26
306.736	56.49
306.95	68.78
307.164	42.15
307.379	1.19
307.593	36.01
307.807	83.11
308.021	91.31
308.235	19.63
308.449	33.96
308.663	-56.15
308.877	54.44
309.091	42.15
309.305	33.96
309.519	-2.9
309.733	44.2
309.947	46.25
310.161	25.77
310.374	25.77
310.588	81.07
310.802	1.19
311.016	27.82
311.23	-9.05
311.444	23.72
311.658	-27.48
311.872	97.45
312.085	91.31
312.299	25.77
312.513	50.35
312.727	7.34
312.941	-11.09
313.154	36.01
313.368	56.49
313.582	25.77
313.796	91.31
314.009	89.26
314.223	3.24
314.437	1.19
314.651	25.77
314.864	68.78
315.078	1.19
315.292	1.19
315.505	56.49
315.719	62.63
315.933	66.73
316.146	60.59
316.36	1.19
316.573	46.25
316.787	36.01
317.001	31.91
317.214	42.15
317.428	-4.95
317.641	-19.29
317.855	-2.9
318.068	54.44
318.282	101.55
318.495	33.96
318.709	-13.14
318.922	60.59
319.136	62.63
319.349	56.49
319.563	-2.9
319.776	-82.77
319.99	21.67
320.203	33.96
320.417	3.24
320.63	48.3
320.843	19.63
321.057	11.43
321.27	50.35
321.483	19.63
321.697	76.97
321.91	33.96
322.124	50.35
322.337	97.45
322.55	31.91
322.763	-7
322.977	17.58
323.19	5.29
323.403	25.77
323.617	31.91
323.83	42.15
324.043	60.59
324.256	-7
324.469	74.92
324.683	91.31
324.896	-35.67
325.109	50.35
325.322	40.11
325.535	103.59
325.748	17.58
325.962	31.91
326.175	66.73
326.388	44.2
326.601	85.16
326.814	13.48
327.027	38.06
327.24	154.79
327.453	3.24
327.666	60.59
327.879	119.98
328.092	40.11
328.305	3.24
328.518	79.02
328.731	5.29
328.944	89.26
329.157	3.24
329.37	-11.09
329.583	64.68
329.796	40.11
330.009	60.59
330.222	70.83
330.435	72.87
330.648	52.39
330.861	87.21
331.073	76.97
331.286	72.87
331.499	13.48
331.712	40.11
331.925	83.11
332.138	42.15
332.35	132.26
332.563	27.82
332.776	54.44
332.989	38.06
333.202	33.96
333.414	46.25
333.627	44.2
333.84	48.3
334.053	70.83
334.265	52.39
334.478	48.3
334.691	54.44
334.903	-31.57
335.116	-2.9
335.329	58.54
335.541	27.82
335.754	81.07
335.966	15.53
336.179	38.06
336.392	74.92
336.604	87.21
336.817	-15.19
337.029	56.49
337.242	-0.85
337.454	-23.38
337.667	-15.19
337.88	107.69
338.092	66.73
338.305	9.39
338.517	44.2
338.729	-23.38
338.942	54.44
339.154	5.29
339.367	66.73
339.579	134.31
339.792	76.97
340.004	89.26
340.217	17.58
340.429	40.11
340.641	13.48
340.854	107.69
341.066	-2.9
341.278	76.97
341.491	-15.19
341.703	19.63
341.915	3.24
342.128	58.54
342.34	19.63
342.552	33.96
342.764	52.39
342.977	83.11
343.189	11.43
343.401	70.83
343.613	29.87
343.826	13.48
344.038	56.49
344.25	1.19
344.462	-21.33
344.674	13.48
344.886	48.3
345.099	58.54
345.311	66.73
345.523	25.77
345.735	42.15
345.947	76.97
346.159	52.39
346.371	-23.38
346.583	17.58
346.795	17.58
347.007	-4.95
347.219	107.69
347.431	138.41
347.643	103.59
347.855	46.25
348.067	58.54
348.279	27.82
348.491	-21.33
348.703	101.55
348.915	46.25
349.127	89.26
349.339	-4.95
349.551	44.2
349.763	-29.52
349.975	27.82
350.187	52.39
350.399	25.77
350.61	46.25
350.822	85.16
351.034	38.06
351.246	48.3
351.458	68.78
351.669	36.01
351.881	-2.9
352.093	48.3
352.305	25.77
352.517	66.73
352.728	52.39
352.94	-9.05
353.152	27.82
353.363	42.15
353.575	99.5
353.787	91.31
353.999	46.25
354.21	60.59
354.422	31.91
354.633	42.15
354.845	11.43
355.057	33.96
355.268	-72.53
355.48	11.43
355.692	74.92
355.903	5.29
356.115	54.44
356.326	23.72
356.538	66.73
356.749	-39.76
356.961	79.02
357.172	5.29
357.384	23.72
357.595	52.39
357.807	58.54
358.018	27.82
358.23	25.77
358.441	60.59
358.653	17.58
358.864	46.25
359.075	40.11
359.287	42.15
359.498	119.98
359.709	40.11
359.921	-0.85
360.132	62.63
360.344	-7
360.555	1.19
360.766	38.06
360.977	79.02
361.189	105.64
361.4	60.59
361.611	31.91
361.823	33.96
362.034	58.54
362.245	-7
362.456	38.06
362.667	66.73
362.879	56.49
363.09	11.43
363.301	76.97
363.512	33.96
363.723	81.07
363.935	1.19
364.146	64.68
364.357	-41.81
364.568	144.55
364.779	-31.57
364.99	5.29
365.201	-33.62
365.412	87.21
365.623	21.67
365.834	29.87
366.045	15.53
366.256	38.06
366.467	93.35
366.678	152.74
366.889	48.3
367.1	111.78
367.311	48.3
367.522	1.19
367.733	95.4
367.944	40.11
368.155	19.63
368.366	54.44
368.577	42.15
368.788	25.77
368.999	23.72
369.209	89.26
369.42	74.92
369.631	50.35
369.842	64.68
370.053	40.11
370.264	-9.05
370.474	-2.9
370.685	76.97
370.896	31.91
371.107	126.12
371.317	31.91
371.528	3.24
371.739	48.3
371.95	64.68
372.16	48.3
372.371	-60.24
372.582	7.34
372.792	38.06
373.003	72.87
373.214	-4.95
373.424	68.78
373.635	15.53
373.846	48.3
374.056	29.87
374.267	38.06
374.477	-13.14
374.688	3.24
374.898	89.26
375.109	31.91
375.319	17.58
375.53	56.49
375.74	68.78
375.951	48.3
376.161	113.83
376.372	7.34
376.582	60.59
376.793	54.44
377.003	5.29
377.214	81.07
377.424	50.35
377.635	7.34
377.845	25.77
378.055	54.44
378.266	-0.85
378.476	109.74
378.686	83.11
378.897	64.68
379.107	48.3
379.317	52.39
379.528	89.26
379.738	81.07
379.948	48.3
380.158	19.63
380.369	36.01
380.579	136.36
380.789	23.72
380.999	66.73
381.21	93.35
381.42	5.29
381.63	72.87
381.84	-21.33
382.05	-29.52
382.261	33.96
382.471	101.55
382.681	40.11
382.891	42.15
383.101	54.44
383.311	60.59
383.521	124.07
383.731	87.21
383.941	66.73
384.151	27.82
384.361	117.93
384.571	36.01
384.781	48.3
384.991	181.42
385.201	109.74
385.411	40.11
385.621	25.77
385.831	107.69
386.041	50.35
386.251	93.35
386.461	70.83
386.671	93.35
386.881	81.07
387.091	113.83
387.301	48.3
387.511	27.82
387.72	91.31
387.93	74.92
388.14	66.73
388.35	46.25
388.56	54.44
388.769	50.35
388.979	-25.43
389.189	15.53
389.399	48.3
389.609	60.59
389.818	95.4
390.028	46.25
390.238	83.11
390.447	42.15
390.657	40.11
390.867	81.07
391.076	62.63
391.286	44.2
391.496	97.45
391.705	5.29
391.915	3.24
392.125	103.59
392.334	-29.52
392.544	50.35
392.753	87.21
392.963	44.2
393.172	79.02
393.382	7.34
393.591	52.39
393.801	48.3
394.01	85.16
394.22	132.26
394.429	15.53
394.639	72.87
394.848	68.78
395.058	111.78
395.267	50.35
395.477	29.87
395.686	101.55
395.895	52.39
396.105	113.83
396.314	101.55
396.524	44.2
396.733	179.37
396.942	107.69
397.152	33.96
397.361	72.87
397.57	38.06
397.78	31.91
397.989	220.33
398.198	160.94
398.407	128.17
398.617	150.7
398.826	56.49
399.035	148.65
399.244	95.4
399.453	70.83
399.663	93.35
399.872	83.11
400.081	68.78
400.29	148.65
400.499	25.77
400.708	81.07
400.917	122.02
401.127	70.83
401.336	101.55
401.545	167.08
401.754	132.26
401.963	142.5
402.172	83.11
402.381	105.64
402.59	126.12
402.799	134.31
403.008	72.87
403.217	107.69
403.426	134.31
403.635	93.35
403.844	70.83
404.053	58.54
404.262	97.45
404.471	130.22
404.68	152.74
404.888	144.55
405.097	115.88
405.306	142.5
405.515	175.27
405.724	113.83
405.933	124.07
406.142	197.8
406.35	152.74
406.559	210.09
406.768	167.08
406.977	154.79
407.185	165.03
407.394	160.94
407.603	171.18
407.812	171.18
408.02	234.66
408.229	263.33
408.438	130.22
408.646	238.76
408.855	277.67
409.064	220.33
409.272	187.56
409.481	246.95
409.69	236.71
409.898	255.14
410.107	244.9
410.315	318.63
410.524	296.1
410.733	302.25
410.941	249
411.15	249
411.358	355.49
411.567	380.07
411.775	318.63
411.984	429.22
412.192	359.59
412.401	402.6
412.609	412.84
412.818	531.62
413.026	470.18
413.234	507.04
413.443	468.13
413.651	515.23
413.86	447.65
414.068	511.14
414.276	562.34
414.485	566.43
414.693	603.3
414.901	584.87
415.11	629.92
415.318	631.97
415.526	681.12
415.734	666.78
415.943	674.98
416.151	820.38
416.359	722.08
416.567	777.37
416.776	818.33
416.984	849.05
417.192	908.44
417.4	793.76
417.608	842.91
417.817	971.93
418.025	1016.99
418.233	986.27
418.441	1094.81
418.649	1023.13
418.857	1168.54
419.065	1152.15
419.273	1131.67
419.481	1236.12
419.689	1272.98
419.897	1344.66
420.105	1320.09
420.313	1369.24
420.521	1428.63
420.729	1361.05
420.937	1565.84
421.145	1606.8
421.353	1688.72
421.561	1756.3
421.769	1793.17
421.977	1817.74
422.185	1866.89
422.393	1895.57
422.601	2045.07
422.809	2090.12
423.017	2067.6
423.224	2040.97
423.432	2131.08
423.64	2176.14
423.848	2448.52
424.056	2419.85
424.263	2450.57
424.471	2548.87
424.679	2602.11
424.887	2765.95
425.094	2808.96
425.302	2786.43
425.51	2956.41
425.718	3009.66
425.925	3091.58
426.133	3193.98
426.341	3431.54
426.548	3587.19
426.756	3507.32
426.964	3535.99
427.171	3798.13
427.379	3781.74
427.586	3822.7
427.794	4129.9
428.001	4162.67
428.209	4346.98
428.417	4248.68
428.624	4748.39
428.832	4641.89
429.039	4686.95
429.247	4549.73
429.454	5071.97
429.662	5293.15
429.869	5076.06
430.076	5243.99
430.284	5297.24
430.491	5504.09
430.699	5891.15
430.906	5829.71
431.114	5821.52
431.321	6145.1
431.528	6200.4
431.736	6507.59
431.943	6982.72
432.15	6798.4
432.358	6843.46
432.565	6988.86
432.772	7025.73
432.979	7629.88
433.187	7543.86
433.394	7633.97
433.601	8217.65
433.808	8356.91
434.016	8330.28
434.223	8672.29
434.43	8985.63
434.637	8881.19
434.844	9507.87
435.052	9733.14
435.259	9624.6
435.466	9647.13
435.673	9679.89
435.88	10175.5
436.087	10714.12
436.294	10701.83
436.501	10486.79
436.708	10513.42
436.915	11037.7
437.122	11506.68
437.329	11609.08
437.537	11969.52
437.743	12053.49
437.95	12061.68
438.157	12733.42
438.364	13116.39
438.571	13013.99
438.778	12964.84
438.985	14347.22
439.192	13874.13
439.399	14117.84
439.606	13882.33
439.813	14699.47
440.02	15666.11
440.227	15344.58
440.433	15064
440.64	15764.41
440.847	15471.55
441.054	16028.6
441.261	17056.68
441.467	16823.21
441.674	17259.43
441.881	17765.28
442.088	17765.28
442.294	17677.21
442.501	18076.57
442.708	18484.11
442.914	19229.57
443.121	20093.82
443.328	19417.99
443.534	20738.93
443.741	20132.73
443.948	20388.72
444.154	21394.28
444.361	21283.69
444.568	21699.42
444.774	21627.74
444.981	21617.5
445.187	22197.08
445.394	23487.3
445.6	22932.3
445.807	25156.39
446.013	24281.91
446.22	24730.42
446.426	25723.68
446.633	26077.98
446.839	27159.31
447.046	25725.73
447.252	26694.42
447.459	27263.75
447.665	26946.32
447.871	27955.97
448.078	29354.73
448.284	27917.06
448.491	28730.1
448.697	29928.16
448.903	30550.74
449.11	30374.62
449.316	29860.58
449.522	30358.24
449.728	31341.26
449.935	31789.77
450.141	31771.33
450.347	32322.24
450.553	31419.08
450.76	31611.59
450.966	32844.47
451.172	32645.82
451.378	32973.49
451.584	32703.16
451.791	33526.44
451.997	33284.78
452.203	34069.15
452.409	34034.34
452.615	33512.11
452.821	32592.57
453.027	31988.42
453.233	33845.93
453.44	32422.59
453.646	32807.61
453.852	32959.16
454.058	33596.07
454.264	32457.4
454.47	33061.55
454.676	32402.11
454.882	33440.43
455.088	30542.55
455.294	31218.38
455.5	31939.27
455.705	31990.47
455.911	30403.29
456.117	29815.52
456.323	30042.85
456.529	28183.29
456.735	29563.62
456.941	28474.1
457.147	27984.64
457.352	26895.12
457.558	27018
457.764	27290.38
457.97	26749.71
458.176	26137.37
458.381	25828.13
458.587	24832.82
458.793	24877.87
458.999	23092.04
459.204	25056.04
459.41	24488.76
459.616	22735.7
459.821	22840.14
460.027	22575.95
460.233	22332.25
460.438	21191.53
460.644	21680.99
460.85	20368.24
461.055	20265.85
461.261	20018.04
461.466	18422.67
461.672	18119.57
461.878	19407.75
462.083	17994.65
462.289	17834.91
462.494	17634.21
462.7	16735.15
462.905	16286.64
463.111	16700.33
463.316	16892.84
463.522	16688.04
463.727	16497.58
463.932	16565.17
464.138	16268.21
464.343	16223.16
464.549	16079.8
464.754	16419.76
464.959	16253.87
465.165	16167.86
465.37	15442.88
465.575	15047.62
465.781	15508.41
465.986	15899.58
466.191	15223.75
466.397	14875.59
466.602	14080.98
466.807	14752.71
467.012	14986.18
467.218	14820.3
467.423	14400.46
467.628	14584.78
467.833	15127.49
468.038	14623.69
468.244	14273.49
468.449	14769.1
468.654	14431.18
468.859	14435.28
469.064	13980.63
469.269	13622.23
469.474	13734.87
469.679	13906.9
469.885	13534.17
470.09	13611.99
470.295	13816.79
470.5	13294.56
470.705	13550.56
470.91	13272.03
471.115	13003.75
471.32	13265.89
471.525	13116.39
471.73	12895.21
471.935	12618.73
472.139	12278.77
472.344	12573.67
472.549	12317.68
472.754	12237.81
472.959	11856.89
473.164	11834.36
473.369	11627.51
473.574	11852.79
473.778	11922.42
473.983	11691
474.188	11641.85
474.393	11217.92
474.598	11097.09
474.802	11353.09
475.007	11021.31
475.212	10951.68
475.417	10638.34
475.621	10673.16
475.826	10775.56
476.031	10368.01
476.235	10458.12
476.44	10390.54
476.645	10140.69
476.849	10165.26
477.054	10142.74
477.259	10171.41
477.463	9931.8
477.668	9894.93
477.872	9821.2
478.077	9933.84
478.282	9296.92
478.486	9278.49
478.691	9286.68
478.895	9305.12
479.1	9194.53
479.304	9247.77
479.509	8940.58
479.713	9268.25
479.918	8815.65
480.122	8758.31
480.326	9135.14
480.531	8926.24
480.735	8741.93
480.94	8879.14
481.144	8938.53
481.348	8793.12
481.553	8797.22
481.757	8504.36
481.961	8713.25
482.166	8795.17
482.37	8756.26
482.574	8590.38
482.778	8596.52
482.983	8778.79
483.187	8713.25
483.391	8492.07
483.595	8576.04
483.8	8444.97
484.004	8721.45
484.208	8672.29
484.412	8584.23
484.616	8655.91
484.821	8565.8
485.025	8598.57
485.229	8623.14
485.433	8506.41
485.637	8594.47
485.841	8373.29
486.045	8596.52
486.249	8696.87
486.453	8465.45
486.657	8455.21
486.861	8733.73
487.065	8408.11
487.269	8455.21
487.473	8524.84
487.677	8416.3
487.881	8789.03
488.085	8770.6
488.289	8647.72
488.493	8563.75
488.697	8789.03
488.901	8578.09
489.105	8717.35
489.309	8582.18
489.512	8680.49
489.716	8750.12
489.92	8709.16
490.124	8631.33
490.328	8813.6
490.531	8682.53
490.735	8873
490.939	8682.53
491.143	8741.93
491.346	8897.57
491.55	8963.11
491.754	9045.02
491.958	9063.46
492.161	8901.67
492.365	9212.96
492.569	9032.74
492.772	8905.76
492.976	9157.66
493.18	9245.73
493.383	9231.39
493.587	9217.05
493.79	9454.62
493.994	9155.61
494.197	9460.76
494.401	9458.71
494.605	9417.75
494.808	9610.26
495.012	9749.53
495.215	9767.96
495.419	9813.01
495.622	9872.4
495.825	9911.32
496.029	9966.61
496.232	10189.84
496.436	10146.83
496.639	10185.74
496.843	10224.65
497.046	10624.01
497.249	10615.82
497.453	10671.11
497.656	10691.59
497.859	10763.27
498.063	10990.59
498.266	11017.22
498.469	11170.82
498.673	11168.77
498.876	11494.4
499.079	11584.51
499.282	11639.8
499.485	11777.01
499.689	11783.16
499.892	12004.34
500.095	12211.18
500.298	12524.52
500.501	12071.92
500.705	12567.53
500.908	12696.55
501.111	12846.05
501.314	13065.19
501.517	13114.34
501.72	13263.84
501.923	13005.8
502.126	13573.08
502.329	13837.27
502.532	13704.15
502.735	13900.76
502.938	14109.65
503.141	13990.87
503.344	14433.23
503.547	14412.75
503.75	14404.56
503.953	14676.94
504.156	14914.5
504.359	15000.52
504.562	15008.71
504.765	15303.62
504.968	15403.97
505.17	15817.66
505.373	15637.44
505.576	16137.14
505.779	16368.56
505.982	16288.69
506.185	16380.85
506.387	16636.84
506.59	16935.85
506.793	17060.77
506.996	16993.19
507.198	17689.5
507.401	17386.4
507.604	17595.29
507.807	18000.79
508.009	18443.15
508.212	18279.32
508.415	18461.58
508.617	18754.44
508.82	18942.86
509.022	18523.02
509.225	19141.51
509.428	19489.67
509.63	19790.72
509.833	19467.14
510.035	19964.79
510.238	19786.62
510.44	20124.54
510.643	20495.22
510.845	20603.76
511.048	20726.64
511.25	21011.31
511.453	21107.56
511.655	21603.17
511.858	21324.65
512.06	21543.78
512.262	22023
512.465	21824.35
512.667	22063.96
512.87	22569.81
513.072	22545.23
513.274	22936.4
513.477	23300.94
513.679	23442.24
513.881	23812.93
514.084	23837.5
514.286	23898.94
514.488	24181.56
514.69	24849.2
514.893	24517.43
515.095	24830.77
515.297	25039.66
515.499	24976.17
515.701	25410.34
515.904	25514.79
516.106	25905.95
516.308	26254.11
516.51	26401.56
516.712	25918.24
516.914	26581.78
517.116	27319.05
517.318	27243.27
517.52	27271.95
517.722	27507.46
517.925	27593.48
518.127	27949.82
518.329	28234.49
518.531	28451.58
518.733	28877.55
518.935	28582.65
519.136	28793.59
519.338	29418.22
519.54	29422.31
519.742	29586.15
519.944	29811.43
520.146	30345.95
520.348	30345.95
520.55	30563.03
520.752	30624.47
520.954	31269.58
521.155	30851.8
521.357	31566.54
521.559	31558.35
521.761	32168.64
521.963	31990.47
522.164	32287.42
522.366	32209.6
522.568	32578.23
522.77	32840.37
522.971	33364.65
523.173	33178.29
523.375	33315.5
523.576	33229.49
523.778	33661.61
523.98	33776.3
524.181	34155.17
524.383	34079.39
524.584	34392.73
524.786	34423.45
524.988	34540.19
525.189	35150.48
525.391	35093.14
525.592	35386
525.794	35594.89
525.995	35420.81
526.197	35439.25
526.398	35637.9
526.6	35621.52
526.801	36004.49
527.003	36137.6
527.204	36172.42
527.406	36864.63
527.607	36452.99
527.808	36723.32
528.01	36149.89
528.211	36571.77
528.412	37333.62
528.614	36924.02
528.815	37018.23
529.016	37513.84
529.218	37220.98
529.419	37413.49
529.62	37397.1
529.822	37433.97
530.023	37323.38
530.224	37524.08
530.425	37474.93
530.626	37116.53
530.828	37526.13
531.029	38001.25
531.23	37888.62
531.431	37665.39
531.632	38083.17
531.833	38109.8
532.035	38056.55
532.236	37988.97
532.437	38402.66
532.638	38120.04
532.839	38380.13
533.04	38535.77
533.241	37849.71
533.442	38732.38
533.643	38232.68
533.844	38345.31
534.045	38515.29
534.246	37943.91
534.447	38394.46
534.648	38345.31
534.849	38462.05
535.05	38150.76
535.251	38724.19
535.451	38427.23
535.652	38726.24
535.853	38187.62
536.054	38443.62
536.255	38773.34
536.456	37986.92
536.657	39066.2
536.857	38820.44
537.058	38269.54
537.259	38898.27
537.46	38464.1
537.66	38615.65
537.861	38517.34
538.062	38437.47
538.263	38791.77
538.463	38068.84
538.664	38908.5
538.865	38433.38
539.065	38599.26
539.266	38652.51
539.466	38705.76
539.667	38255.2
539.868	38869.59
540.068	38470.24
540.269	38566.49
540.469	38636.13
540.67	38400.61
540.87	38281.83
541.071	38378.08
541.271	38566.49
541.472	38355.55
541.672	38189.67
541.873	38056.55
542.073	38158.95
542.274	38650.46
542.474	38265.44
542.675	38416.99
542.875	39015
543.075	38488.67
543.276	38021.73
543.476	38957.66
543.676	38539.87
543.877	38402.66
544.077	38756.96
544.277	38576.73
544.478	38414.94
544.678	38617.69
544.878	38179.43
545.078	38419.04
545.279	38249.06
545.479	38345.31
545.679	38093.41
545.879	38320.74
546.079	38310.5
546.28	38068.84
546.48	38279.78
546.68	38285.92
546.88	38234.72
547.08	37972.58
547.28	38234.72
547.48	37808.75
547.68	38480.48
547.88	38255.2
548.081	38525.53
548.281	38146.66
548.481	38271.59
548.681	38378.08
548.881	38533.73
549.081	38292.07
549.28	37724.78
549.48	38337.12
549.68	38161
549.88	38693.47
550.08	37997.16
550.28	37968.49
550.48	38025.83
550.68	38347.36
550.88	37964.39
551.08	38128.23
551.279	38412.9
551.479	37511.79
551.679	38050.41
551.879	37786.22
552.079	38191.72
552.278	38126.18
552.478	37976.68
552.678	37956.2
552.878	38242.92
553.077	37853.8
553.277	37452.4
553.477	38453.86
553.676	37519.98
553.876	38027.88
554.076	37925.48
554.275	37585.52
554.475	37352.05
554.674	37704.3
554.874	37546.61
555.074	37864.04
555.273	37636.72
555.473	37780.07
555.672	37143.16
555.872	37530.22
556.071	37599.85
556.271	38017.64
556.47	37538.41
556.67	37321.33
556.869	37534.32
557.068	37548.65
557.268	37177.97
557.467	37532.27
557.667	37427.82
557.866	37300.85
558.065	36876.92
558.265	36924.02
558.464	36997.75
558.663	37694.06
558.863	36989.56
559.062	37689.96
559.261	37311.09
559.461	37517.93
559.66	36754.04
559.859	37243.51
560.058	36688.51
560.258	36895.35
560.457	36674.17
560.656	37108.34
560.855	36678.27
561.054	37198.45
561.253	36512.38
561.453	36893.3
561.652	36942.45
561.851	36735.61
562.05	36532.86
562.249	36328.06
562.448	36625.02
562.647	36708.99
562.846	35826.31
563.045	36395.65
563.244	36024.96
563.443	37061.24
563.642	36043.4
563.841	35850.89
564.04	36240
564.239	36307.58
564.438	35566.22
564.637	36000.39
564.836	36348.54
565.035	35904.13
565.234	35936.9
565.432	35730.06
565.631	35338.9
565.83	35601.04
566.029	35480.21
566.228	35330.7
566.427	35256.98
566.625	34953.88
566.824	35136.15
567.023	35580.56
567.222	34779.8
567.42	35531.4
567.619	34876.05
567.818	34767.51
568.016	34558.62
568.215	35054.23
568.414	34890.39
568.612	35396.24
568.811	34712.22
569.01	34632.35
569.208	34486.94
569.407	34462.36
569.605	34038.44
569.804	34519.71
570.002	34167.46
570.201	34253.47
570.4	33954.47
570.598	33886.89
570.797	33741.48
570.995	33944.23
571.193	33811.11
571.392	34067.11
571.59	33682.09
571.789	33663.66
571.987	33854.12
572.186	33526.44
572.384	33319.6
572.582	33634.99
572.781	33403.56
572.979	32596.67
573.177	33411.76
573.376	32891.57
573.574	32983.73
573.772	33028.79
573.971	33065.65
574.169	32797.37
574.367	32508.6
574.565	32879.28
574.763	32426.68
574.962	32674.49
575.16	32281.28
575.358	32592.57
575.556	32404.16
575.754	32545.47
575.952	31939.27
576.151	32459.45
576.349	31963.84
576.547	31863.49
576.745	31935.17
576.943	31832.77
577.141	31548.11
577.339	31646.41
577.537	31593.16
577.735	31834.82
577.933	31578.82
578.131	31505.1
578.329	31529.67
578.527	31103.7
578.725	31359.69
578.923	31670.98
579.121	31140.56
579.319	31003.35
579.516	31548.11
579.714	31222.48
579.912	31113.94
580.11	30915.28
580.308	31027.92
580.506	30724.82
580.704	30409.43
580.901	30272.22
581.099	30890.71
581.297	30513.88
581.495	30427.87
581.692	30776.02
581.89	30184.16
582.088	30634.71
582.285	30020.32
582.483	30345.95
582.681	30112.48
582.878	30190.3
583.076	29756.13
583.274	30020.32
583.471	29424.36
583.669	29881.06
583.866	29407.98
584.064	29506.28
584.262	29209.32
584.459	29541.1
584.657	29360.87
584.854	29252.33
585.052	28662.52
585.249	29594.34
585.447	29440.75
585.644	29082.35
585.841	29262.57
586.039	28820.21
586.236	28513.02
586.434	28703.48
586.631	28531.45
586.828	28609.27
587.026	28599.03
587.223	28570.36
587.42	28392.19
587.618	28396.28
587.815	27986.69
588.012	28392.19
588.21	27960.06
588.407	28302.07
588.604	27802.37
588.801	27857.67
588.999	28099.33
589.196	27376.39
589.393	27663.11
589.59	27513.61
589.787	27452.17
589.984	27171.6
590.182	27276.04
590.379	27583.24
590.576	27312.91
590.773	27233.04
590.97	26821.39
591.167	27085.58
591.364	26868.5
591.561	26665.75
591.758	26651.41
591.955	26510.1
592.152	26782.48
592.349	26837.78
592.546	26692.37
592.743	26477.33
592.94	26110.75
593.137	26499.86
593.334	26585.88
593.531	25910.05
593.727	26098.46
593.924	26204.95
594.121	25848.61
594.318	26075.93
594.515	25809.7
594.712	25924.38
594.908	25512.74
595.105	25922.34
595.302	25322.28
595.499	25410.34
595.696	25340.71
595.892	25271.08
596.089	25439.01
596.286	25357.1
596.482	25340.71
596.679	25133.87
596.876	25193.26
597.072	25187.11
597.269	25099.05
597.466	24609.59
597.662	24560.44
597.859	24687.41
598.055	24664.88
598.252	24283.96
598.448	24443.7
598.645	24480.57
598.841	23976.76
599.038	24451.89
599.234	24165.18
599.431	23884.61
599.627	23903.04
599.824	24132.41
600.02	23767.87
600.217	23808.83
600.413	23737.15
600.609	23786.3
600.806	23411.53
601.002	23450.44
601.198	23763.78
601.395	23681.86
601.591	23554.88
601.787	23208.78
601.984	23102.28
602.18	23378.76
602.376	23165.77
602.572	22985.55
602.769	23124.81
602.965	22555.47
603.161	22823.76
603.357	22811.47
603.553	22743.89
603.75	22926.16
603.946	22692.69
604.142	22739.79
604.338	22348.63
604.534	22709.07
604.73	22340.44
604.926	22430.55
605.122	22289.24
605.318	22174.55
605.514	22066.01
605.71	21994.33
605.906	21949.28
606.102	21818.21
606.298	21842.78
606.494	21865.31
606.69	22018.91
606.886	22111.07
607.082	21660.51
607.278	21715.81
607.474	21441.38
607.67	21805.92
607.866	21085.03
608.062	21730.14
608.257	21478.24
608.453	21521.25
608.649	21525.35
608.845	21207.91
609.041	21441.38
609.236	21201.77
609.432	21310.31
609.628	21455.72
609.824	21050.22
610.019	21214.05
610.215	20976.49
610.411	21095.27
610.606	20851.56
610.802	21062.51
610.998	20749.17
611.193	20831.08
611.389	21035.88
611.584	20597.62
611.78	20556.66
611.976	20614
612.171	20861.8
612.367	20493.17
612.562	20839.28
612.758	20323.19
612.953	20167.54
613.149	20271.99
613.344	20300.66
613.539	20761.45
613.735	20546.42
613.93	20583.28
614.126	20468.59
614.321	20566.9
614.517	20345.72
614.712	20343.67
614.907	20114.3
615.103	20515.7
615.298	19942.27
615.493	20321.14
615.688	19940.22
615.884	20441.97
616.079	19907.45
616.274	20222.84
616.47	19997.56
616.665	19833.72
616.86	19835.77
617.055	19590.02
617.25	19872.64
617.445	19925.88
617.641	19430.27
617.836	19856.25
618.031	19555.2
618.226	19792.76
618.421	19368.84
618.616	19827.58
618.811	19379.07
619.006	19463.04
619.201	19045.26
619.396	19280.77
619.591	19063.69
619.786	19112.84
619.981	18643.85
620.176	18916.23
620.371	18826.12
620.566	18887.56
620.761	18629.52
620.956	18781.07
621.151	18338.71
621.346	18307.99
621.541	18389.91
621.735	18262.93
621.93	18207.64
622.125	18197.4
622.32	17951.64
622.515	18209.68
622.709	17910.68
622.904	17927.07
623.099	17623.97
623.294	17712.03
623.488	17527.71
623.683	17519.52
623.878	17175.46
624.072	17343.39
624.267	17290.15
624.462	17120.17
624.656	16923.56
624.851	17046.44
625.046	16763.82
625.24	16788.39
625.435	16440.24
625.629	16528.3
625.824	16360.37
626.018	16491.44
626.213	16124.85
626.407	16358.32
626.602	16063.41
626.796	16112.56
626.991	15965.11
627.185	15639.48
627.38	15555.52
627.574	15782.84
627.768	15662.01
627.963	15614.91
628.157	15279.04
628.352	15483.84
628.546	15307.71
628.74	15365.06
628.935	15233.99
629.129	15383.49
629.323	14949.32
629.517	15004.61
629.712	15176.64
629.906	14711.75
630.1	14560.2
630.294	14601.16
630.489	14388.18
630.683	14570.44
630.877	14449.61
631.071	14472.14
631.265	14330.83
631.459	14158.8
631.653	14115.8
631.848	13980.63
632.042	13861.85
632.236	14111.7
632.43	13870.04
632.624	13911
632.818	13870.04
633.012	13503.45
633.206	13538.27
633.4	13530.08
633.594	13329.38
633.788	13454.3
633.982	13149.15
634.176	13366.24
634.369	13075.43
634.563	13079.52
634.757	13081.57
634.951	13063.14
635.145	12852.2
635.339	12678.12
635.533	12764.14
635.726	12676.07
635.92	12596.2
636.114	12622.83
636.308	12592.11
636.501	12446.7
636.695	12467.18
636.889	12258.29
637.083	12372.97
637.276	12262.38
637.47	12190.7
637.664	12205.04
637.857	12188.66
638.051	12127.22
638.244	11955.19
638.438	11903.99
638.632	11670.52
638.825	11772.92
639.019	11590.65
639.212	11682.81
639.406	11490.3
639.599	11512.83
639.793	11533.31
639.986	11334.65
640.18	11379.71
640.373	11471.87
640.567	11205.63
640.76	11238.4
640.954	10994.69
641.147	10996.74
641.34	10961.92
641.534	11017.22
641.727	10929.16
641.92	10785.8
642.114	10818.57
642.307	10669.06
642.5	10601.48
642.694	10472.46
642.887	10460.17
643.08	10691.59
643.273	10656.78
643.467	10361.87
643.66	10562.57
643.853	10216.46
644.046	10243.09
644.239	10517.51
644.432	10118.16
644.626	9935.89
644.819	9958.42
645.012	10105.87
645.205	9896.98
645.398	9956.37
645.591	9710.61
645.784	9704.47
645.977	9645.08
646.17	9593.88
646.363	9561.11
646.556	9483.29
646.749	9550.87
646.942	9450.52
647.135	9475.1
647.328	9413.66
647.521	9337.88
647.714	9165.85
647.907	9176.09
648.099	9061.41
648.292	9296.92
648.485	9243.68
648.678	9270.3
648.871	9102.37
649.064	8963.11
649.256	9014.31
649.449	8932.39
649.642	8916
649.835	8797.22
650.027	8746.02
650.22	8739.88
650.413	8819.75
650.605	8795.17
650.798	8614.95
650.991	8375.34
651.183	8350.76
651.376	8385.58
651.568	8530.98
651.761	8377.39
651.954	8336.43
652.146	8334.38
652.339	8154.16
652.531	8365.1
652.724	8248.36
652.916	7922.74
653.109	8086.58
653.301	7961.65
653.494	8133.68
653.686	7838.77
653.879	8033.33
654.071	7965.75
654.263	7775.28
654.456	7746.61
654.648	7779.38
654.84	7621.69
655.033	7547.96
655.225	7763
655.417	7586.87
655.61	7842.87
655.802	7664.69
655.994	7377.98
656.186	7537.72
656.379	7523.38
656.571	7541.82
656.763	7238.72
656.955	7273.53
657.148	7294.01
657.34	7230.52
657.532	7183.42
657.724	7089.21
657.916	7062.59
658.108	7136.32
658.3	6999.1
658.492	7076.93
658.684	7074.88
658.876	6913.09
659.068	6798.4
659.26	7015.49
659.452	7031.87
659.644	6802.5
659.836	6870.08
660.028	6757.44
660.22	6603.85
660.412	6632.52
660.604	6483.02
660.796	6493.26
660.988	6538.31
661.18	6663.24
661.372	6454.34
661.563	6644.81
661.755	6571.08
661.947	6607.94
662.139	6437.96
662.331	6313.03
662.522	6337.61
662.714	6278.22
662.906	6349.9
663.097	6188.11
663.289	6263.88
663.481	6200.4
663.673	5999.7
663.864	6108.24
664.056	6184.01
664.247	6284.36
664.439	6028.37
664.631	6063.18
664.822	5952.59
665.014	6018.13
665.205	5825.62
665.397	6100.05
665.588	5944.4
665.78	5833.81
665.971	5893.2
666.163	5794.9
666.354	5719.12
666.546	5741.65
666.737	5735.51
666.929	5672.02
667.12	5508.18
667.311	5571.67
667.503	5663.83
667.694	5608.53
667.885	5504.09
668.077	5491.8
668.268	5493.85
668.459	5495.89
668.651	5504.09
668.842	5526.61
669.033	5495.89
669.224	5291.1
669.416	5395.54
669.607	5295.19
669.798	5354.58
669.989	5434.46
670.18	5178.46
670.371	5266.52
670.563	5358.68
670.754	5239.9
670.945	5272.67
671.136	5147.74
671.327	5145.69
671.518	5215.32
671.709	5119.07
671.9	5092.44
672.091	5252.19
672.282	5164.12
672.473	5104.73
672.664	5045.34
672.855	5168.22
673.046	5022.81
673.237	5053.53
673.428	5022.81
673.619	5084.25
673.809	5014.62
674	4912.22
674.191	4916.32
674.382	4918.37
674.573	4881.5
674.764	4777.06
674.954	4887.65
675.145	4820.07
675.336	4744.29
675.527	4758.63
675.717	4766.82
675.908	4670.56
676.099	4734.05
676.289	4693.09
676.48	4785.25
676.671	4439.14
676.861	4744.29
677.052	4541.54
677.243	4654.18
677.433	4590.69
677.624	4746.34
677.814	4635.75
678.005	4658.28
678.195	4664.42
678.386	4664.42
678.576	4502.63
678.767	4562.02
678.957	4553.83
679.148	4510.82
679.338	4680.8
679.529	4576.36
679.719	4410.47
679.909	4490.34
680.1	4449.38
680.29	4572.26
680.481	4504.68
680.671	4611.17
680.861	4277.35
681.052	4453.48
681.242	4306.02
681.432	4412.52
681.622	4320.36
681.813	4441.19
682.003	4416.62
682.193	4222.06
682.383	4404.33
682.573	4349.03
682.764	4430.95
682.954	4277.35
683.144	4267.11
683.334	4363.37
683.524	4236.39
683.714	4326.5
683.904	4166.76
684.094	4174.95
684.284	4258.92
684.474	4220.01
684.664	4279.4
684.854	4238.44
685.044	4267.11
685.234	4158.57
685.424	4080.75
685.614	4150.38
685.804	4181.1
685.994	4047.98
686.184	4033.65
686.374	4015.21
686.564	3923.05
686.753	4093.04
686.943	3884.14
687.133	4004.97
687.323	4000.88
687.513	4007.02
687.702	3945.58
687.892	3990.64
688.082	3933.29
688.272	3990.64
688.461	3892.34
688.651	3861.62
688.841	3742.83
689.03	3869.81
689.22	3894.38
689.41	3757.17
689.599	3714.16
689.789	3847.28
689.979	3734.64
690.168	3814.51
690.358	3691.63
690.547	3798.13
690.737	3771.51
690.926	3568.76
691.116	3656.82
691.305	3656.82
691.495	3617.91
691.684	3579
691.874	3660.91
692.063	3730.55
692.252	3529.84
692.442	3613.81
692.631	3445.88
692.82	3372.15
693.01	3531.89
693.199	3482.74
693.388	3415.16
693.578	3505.27
693.767	3447.93
693.956	3482.74
694.146	3376.25
694.335	3366.01
694.524	3327.1
694.713	3456.12
694.902	3236.99
695.092	3441.78
695.281	3376.25
695.47	3265.66
695.659	3265.66
695.848	3245.18
696.037	3310.71
696.226	3355.77
696.415	3198.07
696.604	3146.87
696.793	3236.99
696.982	3218.55
697.171	3255.42
697.36	3210.36
697.549	3265.66
697.738	3163.26
697.927	3234.94
698.116	3286.14
698.305	3126.39
698.494	3290.23
698.683	3265.66
698.872	3134.59
699.061	3159.16
699.25	3212.41
699.438	3247.23
699.627	3236.99
699.816	3097.72
700.005	3077.24
700.193	3204.22
700.382	3153.02
700.571	3157.11
700.76	3144.83
700.948	3042.43
701.137	2999.42
701.326	3116.16
701.514	3032.19
701.703	2954.37
701.892	3024
702.08	3073.15
702.269	3056.76
702.457	2897.02
702.646	2960.51
702.834	3032.19
703.023	3028.09
703.212	3024
703.4	2985.09
703.589	3001.47
703.777	3060.86
703.965	2901.12
704.154	2921.6
704.342	2962.56
704.531	3017.85
704.719	3009.66
704.907	2983.04
705.096	2952.32
705.284	3015.8
705.472	3087.48
705.661	2966.65
705.849	3013.76
706.037	2978.94
706.226	2964.61
706.414	3042.43
706.602	3011.71
706.79	3064.96
706.979	2913.41
707.167	2905.21
707.355	2894.97
707.543	3101.82
707.731	2874.49
707.919	2909.31
708.107	3001.47
708.296	2962.56
708.484	2940.03
708.672	2903.17
708.86	3089.53
709.048	2937.98
709.236	2862.21
709.424	2860.16
709.612	2894.97
709.8	2892.93
709.988	2911.36
710.176	2970.75
710.364	3081.34
710.551	2956.41
710.739	2989.18
710.927	3034.24
711.115	3054.72
711.303	2882.69
711.491	2804.86
711.679	2907.26
711.866	2897.02
712.054	2884.73
712.242	2890.88
712.43	2888.83
712.617	2772.1
712.805	2978.94
712.993	2917.5
713.181	2854.02
713.368	3040.38
713.556	2880.64
713.744	2849.92
713.931	2962.56
714.119	2849.92
714.306	2948.22
714.494	2714.75
714.682	3069.05
714.869	2878.59
715.057	2931.84
715.244	2817.15
715.432	2946.17
715.619	2978.94
715.807	3052.67
715.994	2978.94
716.182	2794.62
716.369	2909.31
716.556	3003.52
716.744	2831.49
716.931	2917.5
717.119	2976.89
717.306	2903.17
717.493	2940.03
717.681	2944.13
717.868	2841.73
718.055	2919.55
718.242	2991.23
718.43	2962.56
718.617	2888.83
718.804	2878.59
718.991	3011.71
719.179	2915.45
719.366	2987.13
719.553	2878.59
719.74	2839.68
719.927	2903.17
720.114	2813.06
720.301	2841.73
720.488	2835.58
720.676	2858.11
720.863	3038.33
721.05	2983.04
721.237	3005.56
721.424	2837.63
721.611	2833.54
721.798	2958.46
721.985	2856.06
722.172	2958.46
722.358	2835.58
722.545	2913.41
722.732	2876.54
722.919	2905.21
723.106	2899.07
723.293	2819.2
723.48	2819.2
723.667	2860.16
723.853	2845.82
724.04	3019.9
724.227	2935.93
724.414	2923.65
724.6	2921.6
724.787	2917.5
724.974	2903.17
725.161	2856.06
725.347	2831.49
725.534	2854.02
725.72	2921.6
725.907	2845.82
726.094	2845.82
726.28	2804.86
726.467	2755.71
726.653	2786.43
726.84	2942.08
727.027	2983.04
727.213	2897.02
727.4	2976.89
727.586	2858.11
727.773	2835.58
727.959	2886.78
728.145	2972.8
728.332	2913.41
728.518	2933.89
728.705	2837.63
728.891	2823.3
729.077	2911.36
729.264	2794.62
729.45	2899.07
729.636	2995.32
729.823	2743.42
730.009	2692.23
730.195	2825.34
730.382	2968.7
730.568	2851.97
730.754	2843.78
730.94	2829.44
731.126	2827.39
731.313	2722.95
731.499	2782.34
731.685	2870.4
731.871	2817.15
732.057	2874.49
732.243	2923.65
732.429	2780.29
732.615	2851.97
732.801	2933.89
732.987	2800.77
733.173	2860.16
733.359	2823.3
733.545	2802.82
733.731	2700.42
733.917	2909.31
734.103	2798.72
734.289	2911.36
734.475	2831.49
734.661	2890.88
734.847	2835.58
735.033	2813.06
735.219	2768
735.404	2804.86
735.59	2692.23
735.776	2735.23
735.962	2864.25
736.148	2759.81
736.333	2837.63
736.519	2763.9
736.705	2722.95
736.89	2710.66
737.076	2745.47
737.262	2813.06
737.447	2802.82
737.633	2741.38
737.819	2755.71
738.004	2671.75
738.19	2718.85
738.375	2759.81
738.561	2747.52
738.747	2813.06
738.932	2718.85
739.118	2780.29
739.303	2716.8
739.489	2636.93
739.674	2776.19
739.859	2733.18
740.045	2733.18
740.23	2819.2
740.416	2784.38
740.601	2653.31
740.786	2600.07
740.972	2679.94
741.157	2641.03
741.342	2665.6
741.528	2573.44
741.713	2604.16
741.898	2641.03
742.084	2647.17
742.269	2565.25
742.454	2612.35
742.639	2528.39
742.824	2487.43
743.01	2571.4
743.195	2567.3
743.38	2571.4
743.565	2559.11
743.75	2526.34
743.935	2485.38
744.12	2557.06
744.305	2577.54
744.49	2442.37
744.675	2358.41
744.86	2395.27
745.045	2479.24
745.23	2471.04
745.415	2442.37
745.6	2450.57
745.785	2407.56
745.97	2409.61
746.155	2382.98
746.34	2385.03
746.525	2364.55
746.71	2342.02
746.895	2292.87
747.079	2313.35
747.264	2370.69
747.449	2303.11
747.634	2270.34
747.819	2360.45
748.003	2258.06
748.188	2114.7
748.373	2163.85
748.557	2196.62
748.742	2286.73
748.927	2198.67
749.111	2149.51
749.296	2262.15
749.481	2114.7
749.665	2145.42
749.85	2086.03
750.034	2184.33
750.219	2071.69
750.404	2008.2
750.588	2122.89
750.773	1989.77
750.957	2030.73
751.141	1959.05
751.326	1985.68
751.51	1987.72
751.695	1979.53
751.879	1997.96
752.064	1944.72
752.248	2018.44
752.432	1911.95
752.617	1971.34
752.801	1975.44
752.985	1850.51
753.17	1948.81
753.354	1832.08
753.538	1827.98
753.722	1868.94
753.907	1834.13
754.091	1793.17
754.275	1825.93
754.459	1825.93
754.643	1746.06
754.828	1770.64
755.012	1754.26
755.196	1600.66
755.38	1830.03
755.564	1764.5
755.748	1688.72
755.932	1709.2
756.116	1690.77
756.3	1625.23
756.484	1645.71
756.668	1623.19
756.852	1588.37
757.036	1682.58
757.22	1608.85
757.404	1608.85
757.588	1561.75
757.772	1637.52
757.956	1582.23
758.14	1643.67
758.323	1422.48
758.507	1569.94
758.691	1479.83
758.875	1506.45
759.059	1508.5
759.242	1498.26
759.426	1451.16
759.61	1424.53
759.794	1430.68
759.977	1373.33
760.161	1463.44
760.345	1459.35
760.528	1404.05
760.712	1447.06
760.895	1473.68
761.079	1418.39
761.263	1371.29
761.446	1422.48
761.63	1303.7
761.813	1352.85
761.997	1399.96
762.18	1234.07
762.364	1383.57
762.547	1279.13
762.731	1277.08
762.914	1408.15
763.098	1221.78
763.281	1238.17
763.464	1309.85
763.648	1250.46
763.831	1340.57
764.015	1252.5
764.198	1229.98
764.381	1242.26
764.564	1211.54
764.748	1254.55
764.931	1262.74
765.114	1244.31
765.297	1223.83
765.481	1164.44
765.664	1199.26
765.847	1197.21
766.03	1297.56
766.213	1156.25
766.397	1156.25
766.58	1119.39
766.763	1268.89
766.946	1078.43
767.129	1105.05
767.312	1156.25
767.495	1186.97
767.678	1158.3
767.861	1178.78
768.044	1137.82
768.227	1098.91
768.41	1107.1
768.593	1051.8
768.776	1121.43
768.959	1148.06
769.142	1086.62
769.324	1158.3
769.507	1158.3
769.69	930.97
769.873	986.27
770.056	1141.91
770.239	980.12
770.421	1086.62
770.604	1031.32
770.787	1084.57
770.97	1059.99
771.152	1016.99
771.335	994.46
771.518	1000.6
771.7	1004.7
771.883	1070.23
772.066	1051.8
772.248	969.88
772.431	1066.14
772.613	996.51
772.796	1012.89
772.978	973.98
773.161	1004.7
773.343	945.31
773.526	965.79
773.708	955.55
773.891	955.55
774.073	855.2
774.256	959.64
774.438	986.27
774.621	847.01
774.803	941.21
774.985	912.54
775.168	990.36
775.35	973.98
775.532	892.06
775.715	912.54
775.897	836.77
776.079	767.13
776.261	875.68
776.444	918.68
776.626	793.76
776.808	808.09
776.99	820.38
777.173	863.39
777.355	824.48
777.537	812.19
777.719	722.08
777.901	793.76
778.083	769.18
778.265	844.96
778.447	814.24
778.629	726.18
778.811	760.99
778.993	871.58
779.175	773.28
779.357	681.12
779.539	799.9
779.721	730.27
779.903	765.09
780.085	740.51
780.267	734.37
780.449	830.62
780.631	679.07
780.812	742.56
780.994	683.17
781.176	720.03
781.358	666.78
781.54	677.02
781.721	627.87
781.903	662.69
782.085	629.92
782.267	728.22
782.448	611.49
782.63	715.94
782.812	629.92
782.993	636.06
783.175	679.07
783.357	568.48
783.538	642.21
783.72	541.86
783.901	588.96
784.083	658.59
784.264	574.63
784.446	586.91
784.627	541.86
784.809	570.53
784.99	595.11
785.172	584.87
785.353	595.11
785.535	564.39
785.716	480.42
785.897	619.68
786.079	582.82
786.26	564.39
786.441	591.01
786.623	437.41
786.804	570.53
786.985	523.43
787.167	531.62
787.348	435.36
787.529	492.71
787.71	548
787.891	427.17
788.073	457.89
788.254	482.47
788.435	498.85
788.616	439.46
788.797	461.99
788.978	482.47
789.159	470.18
789.34	517.28
789.522	474.28
789.703	478.37
789.884	394.4
790.065	433.32
790.246	511.14
790.427	433.32
790.607	408.74
790.788	449.7
790.969	453.8
791.15	515.23
791.331	398.5
791.512	468.13
791.693	410.79
791.874	429.22
792.054	457.89
792.235	382.12
792.416	380.07
792.597	339.11
792.778	431.27
792.958	468.13
793.139	429.22
793.32	335.01
793.5	390.31
793.681	394.4
793.862	398.5
794.042	412.84
794.223	412.84
794.404	408.74
794.584	375.97
794.765	406.69
794.945	359.59
795.126	378.02
795.306	345.25
795.487	369.83
795.667	361.64
795.848	400.55
796.028	382.12
796.209	388.26
796.389	398.5
796.57	404.64
796.75	347.3
796.93	312.49
797.111	316.58
797.291	302.25
797.471	347.3
797.652	337.06
797.832	269.48
798.012	353.45
798.192	324.77
798.373	296.1
798.553	296.1
798.733	339.11
798.913	294.05
799.093	427.17
799.274	324.77
799.454	300.2
799.634	320.68
799.814	367.78
799.994	359.59
800.174	322.73
800.354	363.69
800.534	253.09
800.714	294.05
800.894	263.33
801.074	285.86
801.254	302.25
801.434	283.81
801.614	285.86
801.794	257.19
801.974	697.5
802.154	312.49
802.334	263.33
802.514	263.33
802.693	242.85
802.873	263.33
803.053	408.74
803.233	273.57
803.413	253.09
803.592	271.53
803.772	275.62
803.952	236.71
804.131	257.19
804.311	224.42
804.491	216.23
804.67	267.43
804.85	203.94
805.03	255.14
805.209	251.05
805.389	173.22
805.568	216.23
805.748	281.77
805.928	269.48
806.107	234.66
806.287	328.87
806.466	226.47
806.646	296.1
806.825	234.66
807.004	255.14
807.184	179.37
807.363	265.38
807.543	228.52
807.722	246.95
807.901	283.81
808.081	255.14
808.26	177.32
808.439	165.03
808.619	255.14
808.798	187.56
808.977	152.74
809.156	277.67
809.336	234.66
809.515	310.44
809.694	240.81
809.873	263.33
810.052	246.95
810.231	189.61
810.411	189.61
810.59	179.37
810.769	189.61
810.948	263.33
811.127	111.78
811.306	257.19
811.485	165.03
811.664	271.53
811.843	285.86
812.022	203.94
812.201	115.88
812.38	216.23
812.559	156.84
812.737	193.7
812.916	148.65
813.095	179.37
813.274	156.84
813.453	109.74
813.632	148.65
813.811	242.85
813.989	232.62
814.168	249
814.347	109.74
814.526	220.33
814.704	130.22
814.883	203.94
815.062	111.78
815.24	292.01
815.419	95.4
815.598	130.22
815.776	222.38
815.955	205.99
816.133	158.89
816.312	199.85
816.49	152.74
816.669	109.74
816.847	79.02
817.026	136.36
817.204	148.65
817.383	148.65
817.561	72.87
817.74	165.03
817.918	193.7
818.097	103.59
818.275	113.83
818.453	173.22
818.632	83.11
818.81	193.7
818.988	124.07
819.167	136.36
819.345	132.26
819.523	191.66
819.701	132.26
819.879	224.42
820.058	109.74
820.236	117.93
820.414	105.64
820.592	165.03
820.77	101.55
820.948	138.41
821.127	142.5
821.305	162.98
821.483	183.46
821.661	115.88
821.839	160.94
822.017	76.97
822.195	167.08
822.373	160.94
822.551	132.26
822.729	76.97
822.907	109.74
823.085	144.55
823.262	87.21
823.44	132.26
823.618	91.31
823.796	146.6
823.974	148.65
824.152	74.92
824.329	171.18
824.507	105.64
824.685	146.6
824.863	152.74
825.04	154.79
825.218	83.11
825.396	130.22
825.574	158.89
825.751	154.79
825.929	169.13
826.107	83.11
826.284	70.83
826.462	183.46
826.639	103.59
826.817	146.6
826.994	124.07
827.172	119.98
827.349	99.5
827.527	105.64
827.704	126.12
827.882	107.69
828.059	208.04
828.237	126.12
828.414	103.59
828.591	97.45
828.769	179.37
828.946	76.97
829.124	122.02
829.301	122.02
829.478	156.84
829.655	-27.48
829.833	66.73
830.01	81.07
830.187	138.41
830.364	58.54
830.542	83.11
830.719	85.16
830.896	144.55
831.073	109.74
831.25	150.7
831.427	203.94
831.604	97.45
831.782	31.91
831.959	79.02
832.136	64.68
832.313	33.96
832.49	72.87
832.667	95.4
832.844	128.17
833.021	54.44
833.198	148.65
833.374	124.07
833.551	64.68
833.728	38.06
833.905	122.02
834.082	48.3
834.259	38.06
834.436	66.73
834.612	83.11
834.789	181.42
834.966	72.87
835.143	156.84
835.319	40.11
835.496	105.64
835.673	115.88
835.85	119.98
836.026	76.97
836.203	160.94
836.38	91.31
836.556	105.64
836.733	40.11
836.909	134.31
837.086	44.2
837.262	68.78
837.439	9.39
837.616	103.59
837.792	99.5
837.968	101.55
838.145	44.2
838.321	101.55
838.498	48.3
838.674	126.12
838.851	124.07
839.027	109.74
839.203	62.63
839.38	117.93
839.556	48.3
839.732	160.94
839.909	-21.33
840.085	124.07
840.261	70.83
840.437	60.59
840.614	58.54
840.79	46.25
840.966	115.88
841.142	46.25
841.318	140.46
841.494	95.4
841.671	85.16
841.847	83.11
842.023	72.87
842.199	162.98
842.375	119.98
842.551	62.63
842.727	-2.9
842.903	74.92
843.079	66.73
843.255	101.55
843.431	42.15
843.607	85.16
843.783	7.34
843.959	91.31
844.134	33.96
844.31	48.3
844.486	111.78
844.662	7.34
844.838	19.63
845.013	154.79
845.189	48.3
845.365	52.39
845.541	85.16
845.716	33.96
845.892	93.35
846.068	95.4
846.244	36.01
846.419	97.45
846.595	42.15
846.77	40.11
846.946	31.91
847.122	64.68
847.297	-15.19
847.473	126.12
847.648	9.39
847.824	68.78
847.999	40.11
848.175	33.96
848.35	9.39
848.526	107.69
848.701	29.87
848.876	83.11
849.052	40.11
849.227	68.78
849.403	58.54
849.578	36.01
849.753	48.3
849.929	33.96
850.104	15.53
850.279	15.53
850.454	60.59
850.63	31.91
850.805	126.12
850.98	66.73
851.155	62.63
851.33	54.44
851.505	3.24
851.681	122.02
851.856	70.83
852.031	103.59
852.206	50.35
852.381	62.63
852.556	15.53
852.731	50.35
852.906	46.25
853.081	-4.95
853.256	97.45
853.431	97.45
853.606	52.39
853.781	87.21
853.956	31.91
854.131	101.55
854.305	-39.76
854.48	93.35
854.655	74.92
854.83	60.59
855.005	-9.05
855.18	29.87
855.354	-19.29
855.529	87.21
855.704	7.34
855.879	27.82
856.053	7.34
856.228	89.26
856.403	48.3
856.577	27.82
856.752	13.48
856.926	-101.2
857.101	44.2
857.276	11.43
857.45	17.58
857.625	38.06
857.799	-23.38
857.974	64.68
858.148	27.82
858.323	122.02
858.497	5.29
858.672	76.97
858.846	-35.67
859.02	17.58
859.195	9.39
859.369	93.35
859.543	85.16
859.718	62.63
859.892	25.77
860.066	56.49
860.241	62.63
860.415	46.25
860.589	-37.72
860.763	81.07
860.938	44.2
861.112	-58.2
861.286	33.96
861.46	25.77
861.634	29.87
861.808	15.53
861.982	27.82
862.157	27.82
862.331	1.19
862.505	48.3
862.679	-9.05
862.853	27.82
863.027	31.91
863.201	40.11
863.375	36.01
863.549	74.92
863.722	31.91
863.896	11.43
864.07	40.11
864.244	76.97
864.418	56.49
864.592	33.96
864.766	76.97
864.939	23.72
865.113	60.59
865.287	50.35
865.461	19.63
865.634	38.06
865.808	76.97
865.982	40.11
866.156	33.96
866.329	27.82
866.503	50.35
866.676	27.82
866.85	-29.52
867.024	58.54
867.197	13.48
867.371	27.82
867.544	-0.85
867.718	-43.86
867.891	-9.05
868.065	-11.09
868.238	11.43
868.412	85.16
868.585	56.49
868.759	-31.57
868.932	3.24
869.105	25.77
869.279	54.44
869.452	58.54
869.625	-4.95
869.799	44.2
869.972	-35.67
870.145	-19.29
870.319	40.11
870.492	36.01
870.665	68.78
870.838	50.35
871.011	46.25
871.185	7.34
871.358	-4.95
871.531	13.48
871.704	11.43
871.877	38.06
872.05	40.11
872.223	40.11
872.396	93.35
872.569	-11.09
872.742	15.53
872.915	7.34
873.088	68.78
873.261	23.72
873.434	44.2
873.607	54.44
873.78	29.87
873.953	13.48
874.126	31.91
874.299	42.15
874.471	-2.9
874.644	7.34
874.817	1.19
874.99	-11.09
875.163	-15.19
875.335	-45.91
875.508	17.58
875.681	56.49
875.853	40.11
876.026	11.43
876.199	85.16
876.371	70.83
876.544	-41.81
876.717	44.2
876.889	-0.85
877.062	-25.43
877.234	76.97
877.407	31.91
877.579	-39.76
877.752	25.77
877.924	-19.29
878.097	-19.29
878.269	31.91
878.442	42.15
878.614	70.83
878.786	29.87
878.959	21.67
879.131	15.53
879.303	-23.38
879.476	-25.43
879.648	95.4
879.82	44.2
879.993	-0.85
880.165	-15.19
880.337	-70.48
880.509	68.78
880.681	25.77
880.854	29.87
881.026	1.19
881.198	25.77
881.37	-93.01
881.542	-17.24
881.714	-2.9
881.886	3.24
882.058	29.87
882.23	64.68
882.402	-76.63
882.574	83.11
882.746	15.53
882.918	105.64
883.09	54.44
883.262	33.96
883.434	36.01
883.606	31.91
883.778	-33.62
883.95	83.11
884.122	-11.09
884.293	-2.9
884.465	-41.81
884.637	7.34
884.809	48.3
884.98	50.35
885.152	46.25
885.324	40.11
885.496	42.15
885.667	17.58
885.839	5.29
886.011	29.87
886.182	62.63
886.354	-33.62
886.525	11.43
886.697	33.96
886.869	29.87
887.04	-33.62
887.212	21.67
887.383	60.59
887.555	50.35
887.726	46.25
887.897	40.11
888.069	17.58
888.24	48.3
888.412	31.91
888.583	-4.95
888.754	-29.52
888.926	11.43
889.097	-70.48
889.268	11.43
889.44	13.48
889.611	25.77
889.782	-33.62
889.953	-72.53
890.125	11.43
890.296	13.48
890.467	27.82
890.638	7.34
890.809	101.55
890.98	-2.9
891.151	-19.29
891.323	-60.24
891.494	99.5
891.665	33.96
891.836	54.44
892.007	-31.57
892.178	50.35
892.349	44.2
892.52	-2.9
892.691	36.01
892.862	52.39
893.032	21.67
893.203	-9.05
893.374	9.39
893.545	27.82
893.716	1.19
893.887	50.35
894.057	44.2
894.228	42.15
894.399	-7
894.57	66.73
894.74	54.44
894.911	11.43
895.082	-0.85
895.253	36.01
895.423	17.58
895.594	31.91
895.764	-29.52
895.935	11.43
896.106	13.48
896.276	-4.95
896.447	-4.95
896.617	91.31
896.788	38.06
896.958	52.39
897.129	56.49
897.299	-7
897.47	-56.15
897.64	56.49
897.81	-64.34
897.981	36.01
898.151	33.96
898.322	33.96
898.492	-33.62
898.662	25.77
898.832	-72.53
899.003	-56.15
899.173	62.63
899.343	66.73
899.513	36.01
