Data from USB4F104151__80__12-27-52-811.txt Node

Date: Fri Mar 14 12:27:52 EDT 2025
User: louis
Spectrometer: USB4F10415
Trigger mode: 4
Integration Time (sec): 2.000000E-2
Scans to average: 1
Electric dark correction enabled: true
Nonlinearity correction enabled: false
Boxcar width: 0
XAxis mode: Wavelengths
Number of Pixels in Spectrum: 3648
>>>>>Begin Spectral Data<<<<<
178.204	-46.59
178.424	-46.59
178.644	-46.59
178.864	-93.69
179.084	-105.98
179.304	6.66
179.524	-7.68
179.744	43.52
179.964	-30.21
180.184	37.38
180.404	-22.02
180.624	2.56
180.844	-24.06
181.064	-83.45
181.283	33.28
181.503	20.99
181.723	23.04
181.943	55.81
182.163	45.57
182.383	43.52
182.602	25.09
182.822	23.04
183.042	66.05
183.262	66.05
183.482	16.9
183.701	8.7
183.921	8.7
184.141	-46.59
184.361	39.42
184.58	10.75
184.8	88.57
185.02	-28.16
185.239	27.14
185.459	78.33
185.679	12.8
185.898	59.9
186.118	31.23
186.338	57.86
186.557	0.51
186.777	-26.11
186.997	31.23
187.216	20.99
187.436	57.86
187.655	64
187.875	-17.92
188.095	41.47
188.314	57.86
188.534	82.43
188.753	39.42
188.973	57.86
189.192	-44.54
189.412	4.61
189.631	-5.63
189.851	-5.63
190.07	82.43
190.29	-112.13
190.509	-9.73
190.729	27.14
190.948	20.99
191.168	96.77
191.387	61.95
191.607	-28.16
191.826	18.94
192.045	25.09
192.265	72.19
192.484	43.52
192.704	16.9
192.923	39.42
193.142	27.14
193.362	72.19
193.581	57.86
193.8	35.33
194.02	55.81
194.239	-7.68
194.458	61.95
194.678	12.8
194.897	-26.11
195.116	2.56
195.335	68.09
195.555	37.38
195.774	4.61
195.993	-36.35
196.212	16.9
196.432	10.75
196.651	111.1
196.87	78.33
197.089	113.15
197.308	23.04
197.528	10.75
197.747	59.9
197.966	66.05
198.185	78.33
198.404	-5.63
198.623	88.57
198.842	-7.68
199.062	74.24
199.281	84.48
199.5	0.51
199.719	-19.97
199.938	4.61
200.157	115.2
200.376	16.9
200.595	55.81
200.814	39.42
201.033	-34.3
201.252	70.14
201.471	4.61
201.69	82.43
201.909	-7.68
202.128	70.14
202.347	57.86
202.566	51.71
202.785	-9.73
203.004	80.38
203.223	8.7
203.442	16.9
203.661	0.51
203.879	23.04
204.098	86.53
204.317	33.28
204.536	64
204.755	8.7
204.974	-26.11
205.193	-34.3
205.411	49.66
205.63	25.09
205.849	68.09
206.068	-30.21
206.287	-11.78
206.505	68.09
206.724	-19.97
206.943	-13.82
207.162	16.9
207.381	16.9
207.599	88.57
207.818	41.47
208.037	16.9
208.255	-73.21
208.474	27.14
208.693	-3.58
208.911	33.28
209.13	-3.58
209.349	8.7
209.567	-9.73
209.786	31.23
210.005	53.76
210.223	16.9
210.442	14.85
210.661	41.47
210.879	47.62
211.098	57.86
211.316	84.48
211.535	47.62
211.753	59.9
211.972	31.23
212.191	14.85
212.409	4.61
212.628	-1.54
212.846	37.38
213.065	76.29
213.283	-34.3
213.502	20.99
213.72	-19.97
213.938	39.42
214.157	-3.58
214.375	33.28
214.594	23.04
214.812	68.09
215.031	10.75
215.249	-52.74
215.467	14.85
215.686	51.71
215.904	-17.92
216.122	0.51
216.341	18.94
216.559	16.9
216.778	61.95
216.996	92.67
217.214	35.33
217.432	57.86
217.651	14.85
217.869	72.19
218.087	-28.16
218.306	41.47
218.524	-11.78
218.742	8.7
218.96	4.61
219.179	121.34
219.397	23.04
219.615	59.9
219.833	-5.63
220.051	55.81
220.27	49.66
220.488	88.57
220.706	10.75
220.924	8.7
221.142	-1.54
221.36	16.9
221.578	-7.68
221.796	-34.3
222.015	8.7
222.233	-30.21
222.451	37.38
222.669	57.86
222.887	66.05
223.105	98.81
223.323	33.28
223.541	-5.63
223.759	23.04
223.977	-3.58
224.195	2.56
224.413	76.29
224.631	55.81
224.849	10.75
225.067	78.33
225.285	43.52
225.503	100.86
225.721	-5.63
225.939	49.66
226.157	57.86
226.375	78.33
226.592	39.42
226.81	43.52
227.028	43.52
227.246	96.77
227.464	-17.92
227.682	121.34
227.9	-30.21
228.117	25.09
228.335	31.23
228.553	4.61
228.771	2.56
228.989	37.38
229.206	-24.06
229.424	33.28
229.642	49.66
229.86	35.33
230.077	12.8
230.295	2.56
230.513	61.95
230.731	-17.92
230.948	31.23
231.166	104.96
231.384	23.04
231.601	70.14
231.819	4.61
232.037	94.72
232.254	55.81
232.472	49.66
232.689	-15.87
232.907	49.66
233.125	98.81
233.342	53.76
233.56	-30.21
233.777	31.23
233.995	37.38
234.213	53.76
234.43	8.7
234.648	43.52
234.865	-5.63
235.083	8.7
235.3	86.53
235.518	0.51
235.735	57.86
235.953	2.56
236.17	20.99
236.388	6.66
236.605	0.51
236.822	49.66
237.04	25.09
237.257	78.33
237.475	18.94
237.692	33.28
237.909	74.24
238.127	-24.06
238.344	-30.21
238.562	127.49
238.779	-52.74
238.996	80.38
239.214	8.7
239.431	12.8
239.648	-32.26
239.865	76.29
240.083	88.57
240.3	25.09
240.517	27.14
240.735	53.76
240.952	12.8
241.169	43.52
241.386	53.76
241.603	-15.87
241.821	2.56
242.038	55.81
242.255	107.01
242.472	-7.68
242.689	43.52
242.907	57.86
243.124	109.05
243.341	57.86
243.558	-42.5
243.775	-5.63
243.992	-40.45
244.209	102.91
244.426	55.81
244.643	33.28
244.86	18.94
245.078	10.75
245.295	45.57
245.512	49.66
245.729	72.19
245.946	45.57
246.163	78.33
246.38	90.62
246.597	-1.54
246.814	55.81
247.031	55.81
247.248	78.33
247.464	-17.92
247.681	-5.63
247.898	-17.92
248.115	55.81
248.332	-5.63
248.549	104.96
248.766	39.42
248.983	102.91
249.2	74.24
249.417	70.14
249.633	57.86
249.85	14.85
250.067	33.28
250.284	27.14
250.501	45.57
250.717	31.23
250.934	35.33
251.151	6.66
251.368	6.66
251.585	64
251.801	-40.45
252.018	0.51
252.235	-30.21
252.451	43.52
252.668	39.42
252.885	61.95
253.102	37.38
253.318	12.8
253.535	6.66
253.752	31.23
253.968	-15.87
254.185	-13.82
254.401	18.94
254.618	90.62
254.835	4.61
255.051	37.38
255.268	12.8
255.484	59.9
255.701	-19.97
255.917	68.09
256.134	-5.63
256.351	82.43
256.567	39.42
256.784	18.94
257	-7.68
257.217	92.67
257.433	16.9
257.65	35.33
257.866	78.33
258.082	20.99
258.299	64
258.515	88.57
258.732	-11.78
258.948	6.66
259.165	68.09
259.381	90.62
259.597	2.56
259.814	72.19
260.03	59.9
260.246	14.85
260.463	92.67
260.679	23.04
260.895	-36.35
261.112	84.48
261.328	0.51
261.544	70.14
261.761	-19.97
261.977	8.7
262.193	45.57
262.409	25.09
262.626	55.81
262.842	-5.63
263.058	61.95
263.274	16.9
263.49	-1.54
263.707	12.8
263.923	-5.63
264.139	-36.35
264.355	12.8
264.571	49.66
264.787	-30.21
265.004	104.96
265.22	33.28
265.436	35.33
265.652	0.51
265.868	39.42
266.084	-1.54
266.3	51.71
266.516	25.09
266.732	35.33
266.948	-22.02
267.164	76.29
267.38	12.8
267.596	-50.69
267.812	51.71
268.028	-30.21
268.244	27.14
268.46	70.14
268.676	23.04
268.892	53.76
269.108	18.94
269.324	0.51
269.54	2.56
269.756	-32.26
269.972	-54.78
270.188	4.61
270.403	70.14
270.619	74.24
270.835	-9.73
271.051	-34.3
271.267	61.95
271.483	41.47
271.698	-34.3
271.914	31.23
272.13	-52.74
272.346	35.33
272.562	2.56
272.777	53.76
272.993	4.61
273.209	33.28
273.425	64
273.64	16.9
273.856	61.95
274.072	-46.59
274.287	49.66
274.503	84.48
274.719	29.18
274.934	68.09
275.15	-17.92
275.366	18.94
275.581	-32.26
275.797	27.14
276.012	31.23
276.228	6.66
276.444	-3.58
276.659	121.34
276.875	27.14
277.09	49.66
277.306	41.47
277.521	78.33
277.737	8.7
277.952	33.28
278.168	82.43
278.383	55.81
278.599	-62.98
278.814	45.57
279.03	-56.83
279.245	43.52
279.461	4.61
279.676	68.09
279.892	12.8
280.107	49.66
280.322	61.95
280.538	8.7
280.753	33.28
280.969	31.23
281.184	35.33
281.399	45.57
281.615	94.72
281.83	12.8
282.045	59.9
282.26	82.43
282.476	68.09
282.691	-9.73
282.906	80.38
283.122	8.7
283.337	47.62
283.552	74.24
283.767	43.52
283.983	37.38
284.198	8.7
284.413	55.81
284.628	-38.4
284.843	72.19
285.058	113.15
285.274	49.66
285.489	72.19
285.704	49.66
285.919	59.9
286.134	107.01
286.349	61.95
286.564	59.9
286.779	59.9
286.995	29.18
287.21	47.62
287.425	0.51
287.64	55.81
287.855	-13.82
288.07	51.71
288.285	8.7
288.5	27.14
288.715	64
288.93	33.28
289.145	61.95
289.36	109.05
289.575	-65.02
289.79	82.43
290.004	72.19
290.219	70.14
290.434	135.68
290.649	16.9
290.864	-7.68
291.079	51.71
291.294	72.19
291.509	45.57
291.724	43.52
291.938	20.99
292.153	113.15
292.368	59.9
292.583	33.28
292.798	55.81
293.012	6.66
293.227	-24.06
293.442	12.8
293.657	-11.78
293.871	82.43
294.086	39.42
294.301	76.29
294.516	80.38
294.73	-5.63
294.945	33.28
295.16	45.57
295.374	45.57
295.589	4.61
295.804	-22.02
296.018	43.52
296.233	6.66
296.447	66.05
296.662	55.81
296.877	45.57
297.091	16.9
297.306	53.76
297.52	-3.58
297.735	14.85
297.949	74.24
298.164	43.52
298.378	59.9
298.593	33.28
298.807	55.81
299.022	-19.97
299.236	64
299.451	37.38
299.665	33.28
299.88	96.77
300.094	39.42
300.309	64
300.523	33.28
300.737	4.61
300.952	20.99
301.166	27.14
301.381	33.28
301.595	8.7
301.809	80.38
302.024	35.33
302.238	31.23
302.452	57.86
302.667	55.81
302.881	72.19
303.095	59.9
303.309	39.42
303.524	16.9
303.738	-9.73
303.952	-1.54
304.166	57.86
304.381	8.7
304.595	29.18
304.809	2.56
305.023	0.51
305.237	59.9
305.452	47.62
305.666	121.34
305.88	41.47
306.094	23.04
306.308	39.42
306.522	37.38
306.736	20.99
306.95	66.05
307.164	12.8
307.379	10.75
307.593	68.09
307.807	49.66
308.021	41.47
308.235	84.48
308.449	53.76
308.663	14.85
308.877	76.29
309.091	14.85
309.305	96.77
309.519	76.29
309.733	10.75
309.947	-85.5
310.161	82.43
310.374	88.57
310.588	39.42
310.802	47.62
311.016	109.05
311.23	53.76
311.444	-26.11
311.658	2.56
311.872	51.71
312.085	92.67
312.299	119.29
312.513	84.48
312.727	88.57
312.941	4.61
313.154	109.05
313.368	51.71
313.582	33.28
313.796	18.94
314.009	27.14
314.223	41.47
314.437	53.76
314.651	104.96
314.864	6.66
315.078	2.56
315.292	64
315.505	14.85
315.719	29.18
315.933	100.86
316.146	0.51
316.36	-38.4
316.573	57.86
316.787	76.29
317.001	53.76
317.214	0.51
317.428	57.86
317.641	-26.11
317.855	43.52
318.068	111.1
318.282	76.29
318.495	115.2
318.709	84.48
318.922	-65.02
319.136	35.33
319.349	31.23
319.563	25.09
319.776	29.18
319.99	0.51
320.203	100.86
320.417	18.94
320.63	59.9
320.843	-32.26
321.057	121.34
321.27	-5.63
321.483	20.99
321.697	86.53
321.91	51.71
322.124	-13.82
322.337	6.66
322.55	8.7
322.763	61.95
322.977	82.43
323.19	37.38
323.403	51.71
323.617	68.09
323.83	33.28
324.043	57.86
324.256	59.9
324.469	53.76
324.683	131.58
324.896	-36.35
325.109	35.33
325.322	8.7
325.535	35.33
325.748	33.28
325.962	33.28
326.175	14.85
326.388	4.61
326.601	59.9
326.814	47.62
327.027	90.62
327.24	137.73
327.453	-22.02
327.666	27.14
327.879	25.09
328.092	27.14
328.305	57.86
328.518	68.09
328.731	-28.16
328.944	57.86
329.157	53.76
329.37	29.18
329.583	51.71
329.796	98.81
330.009	31.23
330.222	0.51
330.435	33.28
330.648	66.05
330.861	29.18
331.073	-15.87
331.286	41.47
331.499	29.18
331.712	59.9
331.925	98.81
332.138	90.62
332.35	86.53
332.563	10.75
332.776	84.48
332.989	55.81
333.202	10.75
333.414	33.28
333.627	70.14
333.84	74.24
334.053	123.39
334.265	41.47
334.478	16.9
334.691	47.62
334.903	53.76
335.116	43.52
335.329	0.51
335.541	55.81
335.754	88.57
335.966	16.9
336.179	68.09
336.392	74.24
336.604	10.75
336.817	53.76
337.029	29.18
337.242	84.48
337.454	35.33
337.667	31.23
337.88	49.66
338.092	80.38
338.305	80.38
338.517	4.61
338.729	88.57
338.942	68.09
339.154	2.56
339.367	49.66
339.579	-71.17
339.792	-1.54
340.004	80.38
340.217	47.62
340.429	45.57
340.641	12.8
340.854	29.18
341.066	57.86
341.278	23.04
341.491	100.86
341.703	-24.06
341.915	-5.63
342.128	61.95
342.34	76.29
342.552	68.09
342.764	20.99
342.977	-15.87
343.189	49.66
343.401	35.33
343.613	-3.58
343.826	14.85
344.038	-34.3
344.25	43.52
344.462	49.66
344.674	66.05
344.886	158.21
345.099	98.81
345.311	47.62
345.523	51.71
345.735	-7.68
345.947	64
346.159	-17.92
346.371	43.52
346.583	-9.73
346.795	72.19
347.007	88.57
347.219	-7.68
347.431	-73.21
347.643	92.67
347.855	27.14
348.067	84.48
348.279	-19.97
348.491	39.42
348.703	78.33
348.915	47.62
349.127	74.24
349.339	72.19
349.551	-9.73
349.763	8.7
349.975	20.99
350.187	64
350.399	51.71
350.61	102.91
350.822	2.56
351.034	47.62
351.246	61.95
351.458	14.85
351.669	47.62
351.881	113.15
352.093	57.86
352.305	59.9
352.517	-1.54
352.728	78.33
352.94	10.75
353.152	74.24
353.363	68.09
353.575	20.99
353.787	27.14
353.999	94.72
354.21	66.05
354.422	61.95
354.633	14.85
354.845	53.76
355.057	55.81
355.268	96.77
355.48	98.81
355.692	59.9
355.903	72.19
356.115	18.94
356.326	66.05
356.538	66.05
356.749	68.09
356.961	49.66
357.172	10.75
357.384	86.53
357.595	70.14
357.807	98.81
358.018	59.9
358.23	16.9
358.441	90.62
358.653	74.24
358.864	-11.78
359.075	0.51
359.287	-44.54
359.498	43.52
359.709	104.96
359.921	90.62
360.132	88.57
360.344	92.67
360.555	-9.73
360.766	-1.54
360.977	31.23
361.189	84.48
361.4	61.95
361.611	76.29
361.823	8.7
362.034	64
362.245	61.95
362.456	74.24
362.667	29.18
362.879	-28.16
363.09	25.09
363.301	82.43
363.512	43.52
363.723	59.9
363.935	55.81
364.146	82.43
364.357	68.09
364.568	41.47
364.779	33.28
364.99	68.09
365.201	16.9
365.412	35.33
365.623	-34.3
365.834	96.77
366.045	49.66
366.256	88.57
366.467	43.52
366.678	18.94
366.889	41.47
367.1	27.14
367.311	41.47
367.522	25.09
367.733	111.1
367.944	139.77
368.155	74.24
368.366	59.9
368.577	72.19
368.788	57.86
368.999	0.51
369.209	16.9
369.42	119.29
369.631	127.49
369.842	41.47
370.053	66.05
370.264	98.81
370.474	25.09
370.685	41.47
370.896	57.86
371.107	27.14
371.317	88.57
371.528	94.72
371.739	74.24
371.95	16.9
372.16	29.18
372.371	117.25
372.582	33.28
372.792	90.62
373.003	78.33
373.214	76.29
373.424	107.01
373.635	102.91
373.846	127.49
374.056	74.24
374.267	92.67
374.477	86.53
374.688	80.38
374.898	88.57
375.109	74.24
375.319	35.33
375.53	80.38
375.74	-19.97
375.951	119.29
376.161	76.29
376.372	51.71
376.582	88.57
376.793	43.52
377.003	-17.92
377.214	6.66
377.424	49.66
377.635	61.95
377.845	98.81
378.055	84.48
378.266	72.19
378.476	57.86
378.686	100.86
378.897	66.05
379.107	41.47
379.317	72.19
379.528	59.9
379.738	39.42
379.948	23.04
380.158	68.09
380.369	96.77
380.579	117.25
380.789	45.57
380.999	27.14
381.21	72.19
381.42	45.57
381.63	76.29
381.84	82.43
382.05	57.86
382.261	102.91
382.471	74.24
382.681	47.62
382.891	64
383.101	35.33
383.311	53.76
383.521	113.15
383.731	20.99
383.941	80.38
384.151	115.2
384.361	64
384.571	66.05
384.781	76.29
384.991	74.24
385.201	96.77
385.411	-24.06
385.621	90.62
385.831	43.52
386.041	43.52
386.251	90.62
386.461	119.29
386.671	57.86
386.881	168.45
387.091	4.61
387.301	98.81
387.511	78.33
387.72	102.91
387.93	53.76
388.14	109.05
388.35	55.81
388.56	53.76
388.769	117.25
388.979	2.56
389.189	-24.06
389.399	94.72
389.609	82.43
389.818	174.59
390.028	59.9
390.238	88.57
390.447	66.05
390.657	98.81
390.867	49.66
391.076	49.66
391.286	92.67
391.496	68.09
391.705	64
391.915	57.86
392.125	33.28
392.334	98.81
392.544	43.52
392.753	88.57
392.963	10.75
393.172	80.38
393.382	88.57
393.591	147.97
393.801	59.9
394.01	59.9
394.22	104.96
394.429	104.96
394.639	16.9
394.848	125.44
395.058	72.19
395.267	145.92
395.477	121.34
395.686	102.91
395.895	119.29
396.105	150.01
396.314	162.3
396.524	86.53
396.733	68.09
396.942	113.15
397.152	82.43
397.361	117.25
397.57	78.33
397.78	74.24
397.989	76.29
398.198	166.4
398.407	39.42
398.617	121.34
398.826	90.62
399.035	72.19
399.244	74.24
399.453	49.66
399.663	59.9
399.872	123.39
400.081	119.29
400.29	113.15
400.499	145.92
400.708	31.23
400.917	154.11
401.127	70.14
401.336	76.29
401.545	199.16
401.754	160.25
401.963	236.03
402.172	141.82
402.381	117.25
402.59	98.81
402.799	102.91
403.008	164.35
403.217	100.86
403.426	129.53
403.635	33.28
403.844	94.72
404.053	139.77
404.262	141.82
404.471	176.64
404.68	172.54
404.888	123.39
405.097	139.77
405.306	205.31
405.515	184.83
405.724	168.45
405.933	168.45
406.142	117.25
406.35	190.97
406.559	180.73
406.768	199.16
406.977	190.97
407.185	170.49
407.394	213.5
407.603	172.54
407.812	219.64
408.02	195.07
408.229	186.88
408.438	244.22
408.646	178.69
408.855	217.6
409.064	254.46
409.272	262.65
409.481	258.56
409.69	276.99
409.898	307.71
410.107	324.09
410.315	342.52
410.524	332.28
410.733	363
410.941	346.62
411.15	369.15
411.358	397.82
411.567	399.87
411.775	356.86
411.984	391.67
412.192	432.63
412.401	389.63
412.609	414.2
412.818	496.12
413.026	612.85
413.234	502.26
413.443	449.02
413.651	532.98
413.86	588.28
414.068	659.96
414.276	635.38
414.485	555.51
414.693	709.11
414.901	621.05
415.11	715.25
415.318	676.34
415.526	723.44
415.734	850.42
415.943	756.21
416.151	780.79
416.359	819.7
416.567	897.52
416.776	893.43
416.984	1018.35
417.192	1001.97
417.4	920.05
417.608	1047.02
417.817	965.11
418.025	1044.98
418.233	1206.77
418.441	1165.81
418.649	1262.06
418.857	1247.72
419.065	1298.92
419.273	1292.78
419.481	1417.71
419.689	1503.72
419.897	1483.24
420.105	1628.65
420.313	1604.07
420.521	1571.3
420.729	1683.94
420.937	1722.85
421.145	1739.24
421.353	1849.83
421.561	2025.95
421.769	2021.86
421.977	2134.5
422.185	2058.72
422.393	2148.83
422.601	2169.31
422.809	2365.92
423.017	2351.58
423.224	2449.88
423.432	2453.98
423.64	2429.4
423.848	2873.81
424.056	2654.68
424.263	2818.52
424.471	2834.9
424.679	2935.25
424.887	3074.51
425.094	3187.15
425.302	3201.49
425.51	3361.23
425.718	3381.71
425.925	3504.59
426.133	3520.97
426.341	3893.7
426.548	3807.69
426.756	3897.8
426.964	3996.1
427.171	4184.51
427.379	4368.83
427.586	4458.94
427.794	4561.34
428.001	4749.75
428.209	5077.43
428.417	4923.83
428.624	5247.41
428.832	5292.46
429.039	5284.27
429.247	5388.72
429.454	5740.97
429.662	6152.61
429.869	5777.83
430.076	6101.41
430.284	5937.57
430.491	6162.85
430.699	6685.08
430.906	6625.69
431.114	6617.5
431.321	6982.04
431.528	7139.73
431.736	7664.01
431.943	7799.18
432.15	7573.9
432.358	7760.27
432.565	8167.81
432.772	8153.48
432.979	8638.84
433.187	8429.95
433.394	8702.33
433.601	9320.82
433.808	9349.49
434.016	9498.99
434.223	9537.9
434.43	10305.89
434.637	10131.81
434.844	10795.36
435.052	10961.24
435.259	10695
435.466	11141.46
435.673	10844.51
435.88	11534.67
436.087	12278.08
436.294	12321.09
436.501	12167.49
436.708	12243.27
436.915	12624.19
437.122	13224.25
437.329	13281.59
437.537	13558.07
437.743	13701.42
437.95	13726
438.157	14487.84
438.364	15065.37
438.571	14782.75
438.778	14862.62
438.985	16390.41
439.192	15751.44
439.399	16177.42
439.606	15946
439.813	16840.96
440.02	17778.93
440.227	17416.44
440.433	17473.78
440.64	18104.56
440.847	17592.56
441.054	18067.69
441.261	19423.45
441.467	19267.8
441.674	19826.9
441.881	20183.24
442.088	20535.49
442.294	20193.48
442.501	20627.65
442.708	21225.66
442.914	21692.6
443.121	23216.29
443.328	22337.71
443.534	23759
443.741	23402.65
443.948	22849.7
444.154	24463.5
444.361	24297.61
444.568	24789.13
444.774	24739.97
444.981	25131.14
445.187	25798.77
445.394	26710.12
445.6	26337.39
445.807	28659.79
446.013	27813.98
446.22	28254.29
446.426	29374.53
446.633	29704.25
446.839	30634.03
447.046	29225.03
447.252	31039.53
447.459	31146.02
447.665	30851.11
447.871	32045.08
448.078	33773.56
448.284	31989.78
448.491	33187.85
448.697	34293.75
448.903	34824.17
449.11	34949.1
449.316	34416.63
449.522	35223.53
449.728	36304.85
449.935	36046.81
450.141	36116.44
450.347	37330.89
450.553	36169.69
450.76	36331.48
450.966	37799.87
451.172	37541.83
451.378	38158.27
451.584	37562.31
451.791	38387.64
451.997	38281.14
452.203	38817.71
452.409	38836.14
452.615	38391.73
452.821	37457.86
453.027	37007.31
453.233	39135.15
453.44	37214.15
453.646	37765.06
453.852	37844.93
454.058	38584.24
454.264	37468.1
454.47	38490.04
454.676	37402.57
454.882	38303.67
455.088	35405.8
455.294	35756
455.5	35989.47
455.705	36761.55
455.911	35557.35
456.117	34637.81
456.323	34131.96
456.529	32475.15
456.735	34068.47
456.941	33159.17
457.147	32516.11
457.352	31481.89
457.558	31299.62
457.764	31268.9
457.97	30910.5
458.176	29993.01
458.381	30273.59
458.587	28342.35
458.793	28868.68
458.999	27162.72
459.204	28858.44
459.41	28260.43
459.616	26339.44
459.821	26527.85
460.027	26177.65
460.233	25628.79
460.438	24688.78
460.644	24608.9
460.85	23351.45
461.055	23115.94
461.261	23056.54
461.466	21487.8
461.672	20648.13
461.878	22196.4
462.083	20603.08
462.289	20224.2
462.494	20211.92
462.7	19681.49
462.905	18884.83
463.111	19298.52
463.316	19757.27
463.522	19050.72
463.727	19151.07
463.932	19212.51
464.138	18868.45
464.343	18944.22
464.549	18335.98
464.754	19099.87
464.959	18677.99
465.165	18772.19
465.37	17932.53
465.575	17666.29
465.781	18260.2
465.986	18282.73
466.191	17871.09
466.397	17688.82
466.602	16494.85
466.807	17178.87
467.012	17152.25
467.218	16949.5
467.423	16851.2
467.628	17225.98
467.833	17649.91
468.038	16924.93
468.244	16439.56
468.449	17152.25
468.654	16685.31
468.859	16627.97
469.064	16607.49
469.269	15831.31
469.474	15902.99
469.679	16322.82
469.885	15980.81
470.09	16034.06
470.295	15948.04
470.5	15583.51
470.705	15726.86
470.91	15548.69
471.115	15083.8
471.32	15055.13
471.525	15157.53
471.73	15040.79
471.935	14731.55
472.139	14403.88
472.344	14512.42
472.549	14356.77
472.754	14346.53
472.959	13822.25
473.164	13746.48
473.369	13576.5
473.574	14115.11
473.778	13906.22
473.983	13678.9
474.188	13650.22
474.393	13058.36
474.598	13347.12
474.802	13113.66
475.007	12919.1
475.212	12939.58
475.417	12370.24
475.621	12501.31
475.826	12702.01
476.031	12273.99
476.235	12149.06
476.44	12136.77
476.645	12089.67
476.849	11931.98
477.054	11870.54
477.259	11762
477.463	11735.37
477.668	11559.25
477.872	11663.69
478.077	11432.27
478.282	11026.78
478.486	10881.37
478.691	10977.62
478.895	10979.67
479.1	10920.28
479.304	10926.43
479.509	10537.31
479.713	10742.11
479.918	10383.71
480.122	10590.56
480.326	10475.87
480.531	10588.51
480.735	10285.41
480.94	10359.14
481.144	10494.3
481.348	9992.55
481.553	10180.96
481.757	9945.45
481.961	10199.4
482.166	10514.78
482.37	10150.25
482.574	10025.32
482.778	10031.46
482.983	10217.83
483.187	10002.79
483.391	10256.74
483.595	9933.16
483.8	10072.42
484.004	10352.99
484.208	10121.57
484.412	10129.77
484.616	10035.56
484.821	10244.45
485.025	9910.63
485.229	10297.7
485.433	9894.25
485.637	10056.04
485.841	9920.87
486.045	9955.69
486.249	10029.41
486.453	9951.59
486.657	9865.58
486.861	10187.11
487.065	9961.83
487.269	10189.16
487.473	9929.06
487.677	9924.97
487.881	10219.88
488.085	9888.11
488.289	10178.92
488.493	10183.01
488.697	10117.48
488.901	10291.55
489.105	10140.01
489.309	10373.47
489.512	10320.23
489.716	10226.02
489.92	10107.24
490.124	10191.2
490.328	10416.48
490.531	10197.35
490.735	10436.96
490.939	10439.01
491.143	10326.37
491.346	10342.75
491.55	10738.01
491.754	10678.62
491.958	10686.81
492.161	10697.05
492.365	10785.12
492.569	10541.41
492.772	10623.33
492.976	10785.12
493.18	10821.98
493.383	10875.23
493.587	11106.65
493.79	11051.35
493.994	10834.27
494.197	11129.17
494.401	10994.01
494.605	11170.13
494.808	11475.28
495.012	11387.22
495.215	11403.6
495.419	11673.93
495.622	11340.11
495.825	11643.21
496.029	11733.32
496.232	12009.8
496.436	11897.16
496.639	12384.58
496.843	12069.19
497.046	12423.49
497.249	12652.86
497.453	12278.08
497.656	12474.69
497.859	12593.47
498.063	12728.64
498.266	13347.12
498.469	12941.63
498.673	13171
498.876	13287.73
499.079	13648.18
499.282	13461.81
499.485	13850.92
499.689	13932.84
499.892	14106.92
500.095	14035.24
500.298	14528.8
500.501	14426.4
500.705	14580
500.908	14919.96
501.111	14897.44
501.314	15030.55
501.517	15364.37
501.72	15438.1
501.923	15538.45
502.126	15888.65
502.329	15919.37
502.532	16238.86
502.735	16382.21
502.938	16503.04
503.141	16527.62
503.344	16773.38
503.547	16943.36
503.75	17178.87
503.953	17338.62
504.156	17727.73
504.359	17535.22
504.562	17879.28
504.765	18335.98
504.968	18036.97
505.17	18608.36
505.373	18651.36
505.576	19020
505.779	19048.67
505.982	19013.85
506.185	19767.51
506.387	19646.68
506.59	19970.26
506.793	19908.82
506.996	20009.17
507.198	20656.32
507.401	20773.06
507.604	21072.06
507.807	21078.21
508.009	21299.39
508.212	21534.9
508.415	21772.47
508.617	21674.17
508.82	22104.24
509.022	22096.05
509.225	22464.68
509.428	22945.95
509.63	22976.67
509.833	23251.1
510.035	23621.78
510.238	23339.16
510.44	23939.22
510.643	23918.74
510.845	24471.69
511.048	24486.03
511.25	24422.54
511.453	24821.89
511.655	25516.15
511.858	25208.96
512.06	25620.6
512.262	25585.79
512.465	26138.74
512.667	26255.47
512.87	26644.59
513.072	26538.09
513.274	27222.11
513.477	27588.7
513.679	27707.48
513.881	27992.15
514.084	28207.19
514.286	28207.19
514.488	28534.86
514.69	29204.55
514.893	29079.62
515.095	29055.04
515.297	29603.9
515.499	29632.57
515.701	30265.39
515.904	30371.89
516.106	30560.3
516.308	30756.91
516.51	31174.69
516.712	31148.07
516.914	31590.43
517.116	32258.07
517.318	31905.82
517.52	32339.99
517.722	32315.41
517.925	32956.43
518.127	32952.33
518.329	33253.38
518.531	33259.52
518.733	33820.67
518.935	34203.64
519.136	34117.62
519.338	34453.49
519.54	34709.49
519.742	34994.15
519.944	35579.87
520.146	36030.43
520.348	35973.08
520.55	36106.2
520.752	36134.87
520.954	36876.24
521.155	36673.49
521.357	37298.12
521.559	37322.69
521.761	37822.4
521.963	37664.71
522.164	38281.14
522.366	38383.54
522.568	38510.52
522.77	38760.37
522.971	39231.4
523.173	38852.53
523.375	39364.52
523.576	39548.84
523.778	39542.69
523.98	40423.32
524.181	39964.57
524.383	40210.33
524.584	40867.73
524.786	40869.78
524.988	40552.34
525.189	41222.03
525.391	41494.41
525.592	41598.85
525.794	41635.72
525.995	41500.55
526.197	41682.82
526.398	42145.66
526.6	42303.35
526.801	42198.91
527.003	42508.15
527.204	42594.17
527.406	42973.04
527.607	43003.76
527.808	43263.85
528.01	42887.03
528.211	43100.01
528.412	43988.83
528.614	43480.94
528.815	43353.96
529.016	43890.53
529.218	43480.94
529.419	44054.37
529.62	43925.35
529.822	43825
530.023	44244.83
530.224	44175.2
530.425	44189.53
530.626	44193.63
530.828	43810.66
531.029	44674.9
531.23	44390.23
531.431	44660.57
531.632	44650.33
531.833	44738.39
532.035	45010.77
532.236	44392.28
532.437	44992.34
532.638	44375.9
532.839	45143.89
533.04	44887.89
533.241	44576.6
533.442	45496.14
533.643	44826.45
533.844	45258.57
534.045	45508.43
534.246	44597.08
534.447	45504.33
534.648	44941.14
534.849	45168.46
535.05	44580.7
535.251	45127.5
535.451	45244.24
535.652	45137.74
535.853	44746.58
536.054	44969.81
536.255	45377.36
536.456	45031.25
536.657	45832
536.857	45229.9
537.058	45188.94
537.259	45621.06
537.46	45612.87
537.66	45403.98
537.861	45625.16
538.062	45350.73
538.263	45723.46
538.463	45109.07
538.664	44955.47
538.865	45434.7
539.065	45762.37
539.266	45264.72
539.466	45803.33
539.667	45182.8
539.868	45528.91
540.068	45465.42
540.269	44949.33
540.469	45752.13
540.67	45008.72
540.87	45418.31
541.071	45307.72
541.271	45303.63
541.472	45369.16
541.672	45334.35
541.873	45317.96
542.073	44891.99
542.274	45635.4
542.474	45291.34
542.675	44676.95
542.875	45584.2
543.075	45358.92
543.276	44955.47
543.476	45657.93
543.676	45127.5
543.877	45463.37
544.077	45317.96
544.277	45578.06
544.478	45129.55
544.678	45201.23
544.878	45088.59
545.078	45023.06
545.279	45250.38
545.479	44947.28
545.679	45254.48
545.879	45502.28
546.079	44984.15
546.28	44982.1
546.48	44754.77
546.68	45074.26
546.88	45301.58
547.08	45258.57
547.28	45064.02
547.48	44543.83
547.68	45156.17
547.88	44963.67
548.081	45250.38
548.281	45608.78
548.481	45039.44
548.681	45264.72
548.881	45313.87
549.081	45039.44
549.28	44685.14
549.48	45166.41
549.68	45168.46
549.88	45649.74
550.08	45258.57
550.28	44975.95
550.48	44631.89
550.68	45434.7
550.88	45016.91
551.08	44947.28
551.279	45369.16
551.479	44988.24
551.679	45147.98
551.879	44769.11
552.079	44783.44
552.278	44914.51
552.478	44922.71
552.678	45260.62
552.878	45174.61
553.077	44777.3
553.277	44515.16
553.477	45600.58
553.676	45102.93
553.876	44861.27
554.076	44689.24
554.275	44910.42
554.475	44590.94
554.674	44947.28
554.874	44846.93
555.074	44306.27
555.273	44801.88
555.473	44930.9
555.672	44504.92
555.872	44765.01
556.071	44765.01
556.271	44791.64
556.47	44472.15
556.67	43997.02
556.869	44470.11
557.068	44109.66
557.268	44541.78
557.467	44439.39
557.667	44236.64
557.866	44433.24
558.065	44635.99
558.265	44572.5
558.464	43958.11
558.663	44169.05
558.863	44111.71
559.062	44855.12
559.261	43833.19
559.461	44490.59
559.66	44191.58
559.859	43845.47
560.058	43665.25
560.258	44300.12
560.457	43503.46
560.656	43941.73
560.855	43607.91
561.054	43863.91
561.253	42977.14
561.453	44021.6
561.652	43573.1
561.851	43812.71
562.05	43685.73
562.249	43255.66
562.448	43827.04
562.647	43747.17
562.846	43251.56
563.045	43048.82
563.244	43159.41
563.443	43534.18
563.642	43093.87
563.841	43206.51
564.04	42966.9
564.239	43536.23
564.438	42856.31
564.637	43081.58
564.836	42762.1
565.035	42366.84
565.234	42864.5
565.432	42628.98
565.631	42436.47
565.83	42665.84
566.029	42577.78
566.228	42379.13
566.427	42260.35
566.625	42370.94
566.824	41381.77
567.023	42254.2
567.222	41531.27
567.42	42454.9
567.619	41785.22
567.818	41813.89
568.016	42061.69
568.215	41928.58
568.414	41748.35
568.612	42071.93
568.811	41475.98
569.01	41521.03
569.208	41056.14
569.407	42006.4
569.605	41031.57
569.804	41392.01
570.002	40957.84
570.201	41457.54
570.4	40912.78
570.598	41011.09
570.797	40742.8
570.995	40736.66
571.193	40671.12
571.392	41099.15
571.59	40757.14
571.789	40421.27
571.987	40073.12
572.186	40503.19
572.384	40130.46
572.582	40724.37
572.781	40425.37
572.979	39827.36
573.177	40234.91
573.376	40374.17
573.574	39796.64
573.772	40183.71
573.971	39862.18
574.169	39606.18
574.367	39362.47
574.565	40023.97
574.763	39442.34
574.962	39430.05
575.16	38985.65
575.358	39942.05
575.556	38774.7
575.754	39419.81
575.952	39401.38
576.151	38946.73
576.349	38772.66
576.547	38782.9
576.745	38946.73
576.943	38967.21
577.141	38485.94
577.339	38694.83
577.537	38776.75
577.735	38420.41
577.933	38129.59
578.131	38723.51
578.329	38225.85
578.527	37736.38
578.725	37781.44
578.923	37881.79
579.121	37670.85
579.319	38117.31
579.516	38143.93
579.714	37421
579.912	37597.12
580.11	37590.98
580.308	37695.42
580.506	37421
580.704	36972.49
580.901	37218.25
581.099	37468.1
581.297	37001.16
581.495	37142.47
581.692	37054.41
581.89	36491.22
582.088	37300.17
582.285	37035.98
582.483	37156.81
582.681	36751.31
582.878	36532.18
583.076	36134.87
583.274	36487.12
583.471	35530.72
583.669	36292.57
583.866	36249.56
584.064	36306.9
584.262	35817.44
584.459	36050.91
584.657	35618.78
584.854	36050.91
585.052	35172.33
585.249	35940.32
585.447	35936.22
585.644	35342.31
585.841	35409.89
586.039	35647.46
586.236	34994.15
586.434	35055.59
586.631	34975.72
586.828	34928.62
587.026	35069.93
587.223	34996.2
587.42	34994.15
587.618	34459.63
587.815	34430.96
588.012	34203.64
588.21	34420.72
588.407	34349.04
588.604	34312.18
588.801	34031.61
588.999	34310.13
589.196	33794.04
589.393	34205.69
589.59	34072.57
589.787	33634.3
589.984	33939.45
590.182	33296.39
590.379	33662.97
590.576	32999.43
590.773	33431.55
590.97	32708.62
591.167	32737.29
591.364	32520.21
591.561	32997.38
591.758	32839.69
591.955	32780.3
592.152	32925.71
592.349	32651.28
592.546	32694.29
592.743	32749.58
592.94	31989.78
593.137	32337.94
593.334	32235.54
593.531	31854.62
593.727	32264.21
593.924	31989.78
594.121	31840.28
594.318	31684.64
594.515	31414.3
594.712	31799.32
594.908	31395.87
595.105	31766.56
595.302	31549.47
595.499	31272.99
595.696	31385.63
595.892	31002.66
596.089	31477.79
596.286	31365.15
596.482	30998.57
596.679	31109.16
596.876	30949.42
597.072	30679.08
597.269	30842.92
597.466	30611.5
597.662	30267.44
597.859	30916.65
598.055	30445.62
598.252	30449.71
598.448	30421.04
598.645	29823.03
598.841	29798.46
599.038	30119.99
599.234	30142.52
599.431	29495.36
599.627	29419.58
599.824	29716.54
600.02	29302.85
600.217	29564.99
600.413	29546.56
600.609	29319.23
600.806	29462.59
601.002	29112.39
601.198	28805.19
601.395	28897.35
601.591	28956.74
601.787	28870.73
601.984	28686.41
602.18	28958.79
602.376	28637.26
602.572	28219.47
602.769	28440.65
602.965	28440.65
603.161	28414.03
603.357	28049.49
603.553	27994.2
603.75	28047.44
603.946	27732.06
604.142	27867.22
604.338	27533.4
604.534	27953.24
604.73	27476.06
604.926	27562.08
605.122	27897.94
605.318	27533.4
605.514	27484.25
605.71	27316.32
605.906	27246.69
606.102	26984.55
606.298	27125.86
606.494	27093.09
606.69	26988.64
606.886	26679.4
607.082	26691.69
607.278	26929.25
607.474	26458.22
607.67	26921.06
607.866	26427.5
608.062	26691.69
608.257	26583.15
608.453	26560.62
608.649	26697.83
608.845	26308.72
609.041	26595.43
609.236	26597.48
609.432	26003.57
609.628	26189.94
609.824	26105.97
610.019	26128.5
610.215	26062.96
610.411	26382.45
610.606	25866.36
610.802	26275.95
610.998	25868.41
611.193	26034.29
611.389	25749.62
611.584	25471.1
611.78	25622.65
611.976	25647.22
612.171	25866.36
612.367	25645.18
612.562	25747.58
612.758	25249.92
612.953	25278.59
613.149	25753.72
613.344	25440.38
613.539	25530.49
613.735	25602.17
613.93	25327.74
614.126	25319.55
614.321	25335.93
614.517	25329.79
614.712	25100.42
614.907	25163.9
615.103	25505.91
615.298	25290.88
615.493	25518.2
615.688	24760.45
615.884	25667.7
616.079	24905.86
616.274	25024.64
616.47	24934.53
616.665	25077.89
616.86	24754.31
617.055	24656.01
617.25	24410.25
617.445	24991.87
617.641	24371.34
617.836	24668.3
618.031	24092.82
618.226	24737.93
618.421	24125.58
618.616	24586.38
618.811	24328.33
619.006	24326.28
619.201	23752.85
619.396	23797.91
619.591	23666.84
619.786	23965.84
619.981	23523.48
620.176	23736.47
620.371	23466.14
620.566	23451.8
620.761	23386.27
620.956	23431.32
621.151	23107.74
621.346	23257.25
621.541	22706.34
621.735	23072.93
621.93	22562.98
622.125	22735.01
622.32	22237.36
622.515	22620.33
622.709	22300.84
622.904	22395.05
623.099	22237.36
623.294	22288.56
623.488	21741.75
623.683	21940.4
623.878	21663.93
624.072	21721.27
624.267	21436.6
624.462	21465.27
624.656	21153.98
624.851	21250.24
625.046	21352.63
625.24	20910.27
625.435	20922.56
625.629	20605.13
625.824	20672.71
626.018	20670.66
626.213	20101.33
626.407	20273.35
626.602	19947.73
626.796	20287.69
626.991	20035.79
627.185	19949.78
627.38	19888.34
627.574	19892.43
627.768	19384.54
627.963	19423.45
628.157	19347.67
628.352	19568.85
628.546	19230.94
628.74	19308.76
628.935	19003.61
629.129	19103.96
629.323	18909.41
629.517	18649.32
629.712	18546.92
629.906	18874.59
630.1	18252.01
630.294	18622.69
630.489	18331.88
630.683	18354.41
630.877	18192.62
631.071	18122.99
631.265	18043.12
631.459	17955.05
631.653	18051.31
631.848	18047.21
632.042	17684.72
632.236	17643.76
632.43	17443.06
632.624	17426.68
632.818	17287.42
633.012	17219.83
633.206	16990.46
633.4	16943.36
633.594	16744.7
633.788	16877.82
633.982	16953.6
634.176	16797.95
634.369	16902.4
634.563	16812.29
634.757	16365.83
634.951	16326.92
635.145	16687.36
635.339	16488.71
635.533	15976.72
635.726	16384.26
635.92	15786.26
636.114	15892.75
636.308	15794.45
636.501	15763.73
636.695	15622.42
636.889	15634.71
637.083	15278.36
637.276	15325.46
637.47	15192.34
637.664	15483.16
637.857	15280.41
638.051	15198.49
638.244	14842.14
638.438	14881.05
638.632	15024.41
638.825	15030.55
639.019	14629.15
639.212	14532.9
639.406	14582.05
639.599	14754.08
639.793	14401.83
639.986	14459.17
640.18	14518.56
640.373	14373.16
640.567	14094.63
640.76	14172.46
640.954	14291.24
641.147	14156.07
641.34	13932.84
641.534	13898.03
641.727	13904.17
641.92	13865.26
642.114	13601.07
642.307	13783.34
642.5	13322.55
642.694	13162.81
642.887	13312.31
643.08	13431.09
643.273	13164.86
643.467	13199.67
643.66	13070.65
643.853	13232.44
644.046	12966.2
644.239	12970.3
644.432	12777.79
644.626	12765.5
644.819	12546.37
645.012	12941.63
645.205	12687.68
645.398	12495.17
645.591	12630.34
645.784	12482.88
645.977	12306.76
646.17	12329.28
646.363	12302.66
646.556	12179.78
646.749	12298.56
646.942	12020.04
647.135	11878.73
647.328	12106.06
647.521	12106.06
647.714	11606.35
647.907	11682.13
648.099	11645.26
648.292	11786.57
648.485	11616.59
648.678	11432.27
648.871	11643.21
649.064	11622.73
649.256	11503.95
649.449	11432.27
649.642	11551.06
649.835	11299.16
650.027	11077.97
650.22	11137.37
650.413	11039.06
650.605	11045.21
650.798	10942.81
650.991	10840.41
651.183	10770.78
651.376	10486.11
651.568	10613.09
651.761	10713.44
651.954	10541.41
652.146	10613.09
652.339	10467.68
652.531	10393.95
652.724	10510.69
652.916	10213.73
653.109	10381.67
653.301	10385.76
653.494	10416.48
653.686	10041.7
653.879	10217.83
654.071	9918.82
654.263	9927.02
654.456	10027.37
654.648	10164.58
654.84	9705.84
655.033	9980.26
655.225	9640.3
655.417	9552.24
655.61	9623.92
655.802	9724.27
655.994	9476.46
656.186	9572.72
656.379	9476.46
656.571	9564.53
656.763	9369.97
656.955	9283.95
657.148	9392.5
657.34	9290.1
657.532	9056.63
657.724	9169.27
657.916	9011.57
658.108	9064.82
658.3	9124.21
658.492	9093.49
658.684	8888.7
658.876	9013.62
659.068	8784.25
659.26	8792.44
659.452	8733.05
659.644	8972.66
659.836	8556.93
660.028	8620.41
660.22	8509.82
660.412	8733.05
660.604	8489.34
660.796	8558.97
660.988	8432
661.18	8343.94
661.372	8169.86
661.563	8286.59
661.755	8382.85
661.947	8233.35
662.139	8124.8
662.331	8124.8
662.522	8081.8
662.714	8165.76
662.906	7979.4
663.097	7975.3
663.289	7823.75
663.481	7909.77
663.673	8016.26
663.864	7686.54
664.056	7803.27
664.247	7707.02
664.439	7682.44
664.631	7762.31
664.822	7805.32
665.014	7578
665.205	7653.77
665.397	7518.61
665.588	7330.19
665.78	7526.8
665.971	7430.54
666.163	7459.21
666.354	7326.1
666.546	7367.06
666.737	7166.35
666.929	7201.17
667.12	7414.16
667.311	7174.55
667.503	7199.12
667.694	7117.2
667.885	7111.06
668.077	6979.99
668.268	6998.42
668.459	6945.17
668.651	7037.33
668.842	6918.55
669.033	7076.24
669.224	6941.08
669.416	7088.53
669.607	6744.47
669.798	6787.48
669.989	6685.08
670.18	6760.86
670.371	6773.14
670.563	6723.99
670.754	6732.19
670.945	6611.36
671.136	6554.01
671.327	6635.93
671.518	6631.83
671.709	6539.68
671.9	6599.07
672.091	6500.76
672.282	6322.59
672.473	6345.12
672.664	6470.05
672.855	6347.17
673.046	6267.3
673.237	6488.48
673.428	6408.61
673.619	6388.13
673.809	6261.15
674	6199.71
674.191	6318.5
674.382	6285.73
674.573	6257.06
674.764	6228.38
674.954	6250.91
675.145	5929.38
675.336	6019.49
675.527	6050.21
675.717	6062.5
675.908	6060.45
676.099	5929.38
676.289	5849.51
676.48	5906.85
676.671	5869.99
676.861	5859.75
677.052	5894.57
677.243	5706.15
677.433	5724.58
677.624	6058.4
677.814	5792.17
678.005	5691.82
678.195	5853.61
678.386	5751.21
678.576	5681.58
678.767	5616.04
678.957	5671.34
679.148	5697.96
679.338	5697.96
679.529	5687.72
679.719	5611.95
679.909	5632.43
680.1	5708.2
680.29	5677.48
680.481	5759.4
680.671	5542.32
680.861	5364.14
681.052	5540.27
681.242	5530.03
681.432	5624.23
681.622	5509.55
681.813	5448.11
682.003	5401.01
682.193	5452.2
682.383	5278.13
682.573	5519.79
682.764	5296.56
682.954	5374.38
683.144	5304.75
683.334	5360.05
683.524	5233.07
683.714	5167.54
683.904	5296.56
684.094	5323.18
684.284	5198.26
684.474	5312.94
684.664	5190.06
684.854	5274.03
685.044	5173.68
685.234	5202.35
685.424	5077.43
685.614	5063.09
685.804	5188.02
685.994	5167.54
686.184	5118.39
686.374	5122.48
686.564	4886.97
686.753	4954.55
686.943	4983.22
687.133	4909.49
687.323	5077.43
687.513	4893.11
687.702	4932.02
687.892	4843.96
688.082	4782.52
688.272	4884.92
688.461	4725.18
688.651	4776.38
688.841	4737.46
689.03	4866.49
689.22	4643.26
689.41	4657.59
689.599	4510.14
689.789	4692.41
689.979	4751.8
690.168	4684.22
690.358	4557.24
690.547	4630.97
690.737	4682.17
690.926	4678.07
691.116	4446.65
691.305	4528.57
691.495	4571.58
691.684	4297.15
691.874	4442.56
692.063	4385.21
692.252	4215.23
692.442	4422.08
692.631	4184.51
692.82	4221.38
693.01	4268.48
693.199	4393.4
693.388	4141.5
693.578	4291.01
693.767	4229.57
693.956	4223.42
694.146	4112.83
694.335	4110.79
694.524	4188.61
694.713	4233.66
694.902	4145.6
695.092	4069.83
695.281	4024.77
695.47	4108.74
695.659	4004.29
695.848	3998.15
696.037	3940.8
696.226	4035.01
696.415	4063.68
696.604	3959.24
696.793	3942.85
696.982	3934.66
697.171	4010.43
697.36	3862.98
697.549	3912.13
697.738	3887.56
697.927	3959.24
698.116	3938.76
698.305	3936.71
698.494	3987.91
698.683	3785.16
698.872	3920.32
699.061	3881.41
699.25	3897.8
699.438	3836.36
699.627	3793.35
699.816	3711.43
700.005	3772.87
700.193	3746.25
700.382	3797.45
700.571	3684.81
700.76	3776.97
700.948	3645.9
701.137	3729.86
701.326	3586.51
701.514	3631.56
701.703	3756.49
701.892	3672.52
702.08	3752.39
702.269	3809.73
702.457	3559.88
702.646	3723.72
702.834	3729.86
703.023	3764.68
703.212	3621.32
703.4	3693
703.589	3668.42
703.777	3774.92
703.965	3572.17
704.154	3676.62
704.342	3512.78
704.531	3740.1
704.719	3680.71
704.907	3676.62
705.096	3488.2
705.284	3496.39
705.472	3498.44
705.661	3518.92
705.849	3672.52
706.037	3535.31
706.226	3473.87
706.414	3518.92
706.602	3561.93
706.79	3525.07
706.979	3451.34
707.167	3639.75
707.355	3477.96
707.543	3398.09
707.731	3568.07
707.919	3666.38
708.107	3324.37
708.296	3508.68
708.484	3539.4
708.672	3447.24
708.86	3473.87
709.048	3416.52
709.236	3361.23
709.424	3533.26
709.612	3457.48
709.8	3494.35
709.988	3537.35
710.176	3377.61
710.364	3430.86
710.551	3535.31
710.739	3639.75
710.927	3381.71
711.115	3533.26
711.303	3477.96
711.491	3449.29
711.679	3555.79
711.866	3455.44
712.054	3396.04
712.242	3416.52
712.43	3361.23
712.617	3496.39
712.805	3381.71
712.993	3353.04
713.181	3508.68
713.368	3426.76
713.556	3391.95
713.744	3320.27
713.931	3459.53
714.119	3410.38
714.306	3404.24
714.494	3307.98
714.682	3338.7
714.869	3430.86
715.057	3318.22
715.244	3445.2
715.432	3469.77
715.619	3279.31
715.807	3330.51
715.994	3369.42
716.182	3418.57
716.369	3359.18
716.556	3238.35
716.744	3443.15
716.931	3262.93
717.119	3340.75
717.306	3520.97
717.493	3359.18
717.681	3271.12
717.868	3320.27
718.055	3439.05
718.242	3281.36
718.43	3434.96
718.617	3410.38
718.804	3371.47
718.991	3408.33
719.179	3375.56
719.366	3299.79
719.553	3219.92
719.74	3408.33
719.927	3254.73
720.114	3398.09
720.301	3406.28
720.488	3228.11
720.676	3336.65
720.863	3221.97
721.05	3246.54
721.237	3318.22
721.424	3271.12
721.611	3289.55
721.798	3344.84
721.985	3236.3
722.172	3234.25
722.358	3226.06
722.545	3365.32
722.732	3359.18
722.919	3273.17
723.106	3271.12
723.293	3359.18
723.48	3312.08
723.667	3267.02
723.853	3142.1
724.04	3410.38
724.227	3224.01
724.414	3217.87
724.6	3310.03
724.787	3318.22
724.974	3221.97
725.161	3228.11
725.347	3213.77
725.534	3279.31
725.72	3234.25
725.907	3185.1
726.094	3236.3
726.28	3105.23
726.467	3215.82
726.653	3209.68
726.84	3224.01
727.027	3291.6
727.213	3160.53
727.4	3305.93
727.586	3131.86
727.773	3176.91
727.959	3211.73
728.145	3191.25
728.332	3170.77
728.518	3142.1
728.705	3250.64
728.891	3178.96
729.077	3111.38
729.264	3119.57
729.45	3199.44
729.636	3246.54
729.823	3133.9
730.009	3185.1
730.195	3228.11
730.382	3246.54
730.568	3191.25
730.754	3191.25
730.94	3260.88
731.126	3238.35
731.313	3234.25
731.499	3146.19
731.685	3285.45
731.871	3156.43
732.057	3244.49
732.243	3246.54
732.429	3070.42
732.615	3226.06
732.801	3170.77
732.987	2970.07
733.173	3056.08
733.359	3258.83
733.545	3129.81
733.731	3070.42
733.917	3172.82
734.103	3103.18
734.289	3109.33
734.475	3146.19
734.661	3082.7
734.847	3135.95
735.033	3076.56
735.219	3099.09
735.404	3168.72
735.59	3058.13
735.776	3015.12
735.962	3135.95
736.148	3127.76
736.333	3049.94
736.519	3060.18
736.705	2949.59
736.89	3092.94
737.076	3072.47
737.262	2951.63
737.447	3076.56
737.633	3004.88
737.819	3039.7
738.004	3084.75
738.19	3092.94
738.375	2863.57
738.561	2968.02
738.747	3066.32
738.932	2939.35
739.118	3025.36
739.303	3041.75
739.489	2957.78
739.674	2904.53
739.859	2986.45
740.045	3006.93
740.23	2941.4
740.416	2787.8
740.601	2908.63
740.786	2959.83
740.972	2822.61
741.157	2820.56
741.342	2845.14
741.528	2824.66
741.713	2888.15
741.898	2851.28
742.084	2814.42
742.269	2720.21
742.454	2828.76
742.639	2847.19
742.824	2767.32
743.01	2750.93
743.195	2871.76
743.38	2882
743.565	2832.85
743.75	2679.26
743.935	2783.7
744.12	2810.33
744.305	2664.92
744.49	2683.35
744.675	2689.49
744.86	2607.58
745.045	2707.93
745.23	2671.06
745.415	2597.34
745.6	2681.3
745.785	2570.71
745.97	2519.51
746.155	2494.94
746.34	2648.54
746.525	2499.03
746.71	2607.58
746.895	2490.84
747.079	2533.85
747.264	2363.87
747.449	2439.64
747.634	2499.03
747.819	2531.8
748.003	2533.85
748.188	2425.31
748.373	2351.58
748.557	2496.99
748.742	2370.01
748.927	2351.58
749.111	2269.66
749.296	2347.48
749.481	2290.14
749.665	2341.34
749.85	2339.29
750.034	2314.72
750.219	2298.33
750.404	2284
750.588	2204.13
750.773	2185.69
750.957	2109.92
751.141	2163.17
751.326	2189.79
751.51	2140.64
751.695	2089.44
751.879	2181.6
752.064	2320.86
752.248	2097.63
752.432	2075.1
752.617	2124.26
752.801	2138.59
752.985	2028
753.17	2017.76
753.354	1987.04
753.538	2034.14
753.722	2021.86
753.907	1966.56
754.091	2036.19
754.275	1976.8
754.459	1774.05
754.643	1919.46
754.828	1929.7
755.012	1933.79
755.196	1819.11
755.38	1948.13
755.564	1907.17
755.748	1849.83
755.932	1941.99
756.116	1890.79
756.3	1776.1
756.484	1735.14
756.668	1847.78
756.852	1696.23
757.036	1782.24
757.22	1747.43
757.404	1671.65
757.588	1657.32
757.772	1724.9
757.956	1628.65
758.14	1671.65
758.323	1712.61
758.507	1731.05
758.691	1616.36
758.875	1636.84
759.059	1626.6
759.242	1622.5
759.426	1479.15
759.61	1567.21
759.794	1516.01
759.977	1647.08
760.161	1649.13
760.345	1571.3
760.528	1577.45
760.712	1522.15
760.895	1532.39
761.079	1520.1
761.263	1503.72
761.446	1579.5
761.63	1462.76
761.813	1497.58
761.997	1522.15
762.18	1294.83
762.364	1432.04
762.547	1317.36
762.731	1518.06
762.914	1366.51
763.098	1382.89
763.281	1401.32
763.464	1393.13
763.648	1395.18
763.831	1368.56
764.015	1436.14
764.198	1495.53
764.381	1409.51
764.564	1380.84
764.748	1376.75
764.931	1358.32
765.114	1399.27
765.297	1407.47
765.481	1364.46
765.664	1292.78
765.847	1282.54
766.03	1389.03
766.213	1276.4
766.397	1294.83
766.58	1296.88
766.763	1317.36
766.946	1204.72
767.129	1290.73
767.312	1235.44
767.495	1311.21
767.678	1264.11
767.861	1331.69
768.044	1286.64
768.227	1292.78
768.41	1208.81
768.593	1300.97
768.776	1184.24
768.959	1198.57
769.142	1157.61
769.324	1231.34
769.507	1178.09
769.69	1143.28
769.873	1137.13
770.056	1196.53
770.239	1151.47
770.421	1085.94
770.604	1167.85
770.787	1122.8
770.97	1128.94
771.152	1090.03
771.335	1145.33
771.518	1085.94
771.7	1204.72
771.883	1186.29
772.066	1040.88
772.248	1014.26
772.431	1100.27
772.613	1049.07
772.796	1094.13
772.978	1112.56
773.161	1159.66
773.343	1030.64
773.526	981.49
773.708	1022.45
773.891	958.96
774.073	1090.03
774.256	1004.02
774.438	1055.22
774.621	948.72
774.803	993.78
774.985	999.92
775.168	991.73
775.35	1004.02
775.532	932.34
775.715	1010.16
775.897	1022.45
776.079	950.77
776.261	961.01
776.444	918
776.626	909.81
776.808	909.81
776.99	1018.35
777.173	948.72
777.355	987.63
777.537	909.81
777.719	938.48
777.901	803.32
778.083	897.52
778.265	842.23
778.447	915.95
778.629	844.28
778.811	893.43
778.993	793.08
779.175	846.32
779.357	864.75
779.539	883.19
779.721	799.22
779.903	797.17
780.085	793.08
780.267	827.89
780.449	915.95
780.631	840.18
780.812	733.68
780.994	770.55
781.176	778.74
781.358	721.4
781.54	770.55
781.721	686.58
781.903	678.39
782.085	713.21
782.267	815.6
782.448	727.54
782.63	680.44
782.812	776.69
782.993	676.34
783.175	770.55
783.357	633.33
783.538	739.83
783.72	715.25
783.901	666.1
784.083	707.06
784.264	680.44
784.446	641.53
784.627	610.81
784.809	606.71
784.99	649.72
785.172	637.43
785.353	647.67
785.535	575.99
785.716	604.66
785.897	539.13
786.079	571.9
786.26	586.23
786.441	604.66
786.623	551.42
786.804	635.38
786.985	543.22
787.167	619
787.348	545.27
787.529	522.74
787.71	571.9
787.891	475.64
788.073	500.22
788.254	487.93
788.435	528.89
788.616	604.66
788.797	547.32
788.978	477.69
789.159	539.13
789.34	477.69
789.522	494.07
789.703	569.85
789.884	539.13
790.065	496.12
790.246	580.09
790.427	512.5
790.607	563.7
790.788	528.89
790.969	514.55
791.15	442.87
791.331	446.97
791.512	453.11
791.693	481.78
791.874	453.11
792.054	467.45
792.235	522.74
792.416	420.35
792.597	502.26
792.778	451.07
792.958	600.57
793.139	434.68
793.32	367.1
793.5	328.19
793.681	451.07
793.862	455.16
794.042	461.3
794.223	387.58
794.404	426.49
794.584	373.24
794.765	424.44
794.945	494.07
795.126	367.1
795.306	473.59
795.487	416.25
795.667	365.05
795.848	434.68
796.028	426.49
796.209	365.05
796.389	348.67
796.57	420.35
796.75	377.34
796.93	430.59
797.111	420.35
797.291	436.73
797.471	481.78
797.652	375.29
797.832	313.85
798.012	295.42
798.192	342.52
798.373	307.71
798.553	426.49
798.733	369.15
798.913	348.67
799.093	406.01
799.274	387.58
799.454	332.28
799.634	346.62
799.814	334.33
799.994	344.57
800.174	348.67
800.354	387.58
800.534	326.14
800.714	322.04
800.894	309.76
801.074	291.32
801.254	410.11
801.434	307.71
801.614	303.61
801.794	307.71
801.974	737.78
802.154	258.56
802.334	281.08
802.514	320
802.693	305.66
802.873	262.65
803.053	270.84
803.233	377.34
803.413	289.28
803.592	244.22
803.772	338.43
803.952	307.71
804.131	283.13
804.311	320
804.491	266.75
804.67	258.56
804.85	236.03
805.03	363
805.209	299.52
805.389	274.94
805.568	291.32
805.748	268.8
805.928	262.65
806.107	297.47
806.287	307.71
806.466	303.61
806.646	281.08
806.825	168.45
807.004	244.22
807.184	193.02
807.363	276.99
807.543	301.56
807.722	279.04
807.901	297.47
808.081	250.36
808.26	207.36
808.439	238.08
808.619	317.95
808.798	252.41
808.977	276.99
809.156	223.74
809.336	229.88
809.515	240.12
809.694	248.32
809.873	242.17
810.052	215.55
810.231	225.79
810.411	264.7
810.59	254.46
810.769	182.78
810.948	231.93
811.127	268.8
811.306	285.18
811.485	252.41
811.664	258.56
811.843	221.69
812.022	236.03
812.201	215.55
812.38	150.01
812.559	231.93
812.737	248.32
812.916	213.5
813.095	293.37
813.274	248.32
813.453	236.03
813.632	190.97
813.811	209.4
813.989	170.49
814.168	209.4
814.347	201.21
814.526	238.08
814.704	221.69
814.883	195.07
815.062	221.69
815.24	176.64
815.419	193.02
815.598	215.55
815.776	158.21
815.955	139.77
816.133	209.4
816.312	190.97
816.49	264.7
816.669	178.69
816.847	176.64
817.026	199.16
817.204	207.36
817.383	147.97
817.561	170.49
817.74	215.55
817.918	207.36
818.097	182.78
818.275	178.69
818.453	236.03
818.632	141.82
818.81	190.97
818.988	141.82
819.167	154.11
819.345	133.63
819.523	221.69
819.701	119.29
819.879	145.92
820.058	141.82
820.236	246.27
820.414	137.73
820.592	147.97
820.77	219.64
820.948	170.49
821.127	240.12
821.305	156.16
821.483	147.97
821.661	160.25
821.839	221.69
822.017	111.1
822.195	98.81
822.373	188.93
822.551	203.26
822.729	176.64
822.907	160.25
823.085	133.63
823.262	66.05
823.44	170.49
823.618	104.96
823.796	107.01
823.974	107.01
824.152	135.68
824.329	139.77
824.507	178.69
824.685	170.49
824.863	49.66
825.04	80.38
825.218	176.64
825.396	193.02
825.574	154.11
825.751	158.21
825.929	139.77
826.107	145.92
826.284	139.77
826.462	82.43
826.639	178.69
826.817	184.83
826.994	131.58
827.172	133.63
827.349	147.97
827.527	98.81
827.704	172.54
827.882	57.86
828.059	156.16
828.237	82.43
828.414	145.92
828.591	104.96
828.769	98.81
828.946	53.76
829.124	72.19
829.301	137.73
829.478	152.06
829.655	145.92
829.833	113.15
830.01	66.05
830.187	84.48
830.364	197.12
830.542	178.69
830.719	96.77
830.896	98.81
831.073	133.63
831.25	133.63
831.427	158.21
831.604	121.34
831.782	121.34
831.959	113.15
832.136	156.16
832.313	197.12
832.49	96.77
832.667	92.67
832.844	68.09
833.021	221.69
833.198	66.05
833.374	117.25
833.551	100.86
833.728	209.4
833.905	113.15
834.082	119.29
834.259	94.72
834.436	152.06
834.612	109.05
834.789	78.33
834.966	131.58
835.143	80.38
835.319	88.57
835.496	129.53
835.673	131.58
835.85	111.1
836.026	90.62
836.203	88.57
836.38	39.42
836.556	111.1
836.733	66.05
836.909	203.26
837.086	92.67
837.262	55.81
837.439	123.39
837.616	72.19
837.792	135.68
837.968	72.19
838.145	59.9
838.321	82.43
838.498	76.29
838.674	45.57
838.851	92.67
839.027	84.48
839.203	96.77
839.38	76.29
839.556	94.72
839.732	133.63
839.909	109.05
840.085	86.53
840.261	68.09
840.437	113.15
840.614	-24.06
840.79	57.86
840.966	64
841.142	66.05
841.318	92.67
841.494	80.38
841.671	123.39
841.847	18.94
842.023	12.8
842.199	109.05
842.375	121.34
842.551	16.9
842.727	76.29
842.903	41.47
843.079	72.19
843.255	164.35
843.431	119.29
843.607	102.91
843.783	35.33
843.959	107.01
844.134	55.81
844.31	43.52
844.486	131.58
844.662	37.38
844.838	45.57
845.013	78.33
845.189	123.39
845.365	127.49
845.541	10.75
845.716	53.76
845.892	53.76
846.068	70.14
846.244	23.04
846.419	94.72
846.595	29.18
846.77	92.67
846.946	125.44
847.122	164.35
847.297	64
847.473	33.28
847.648	45.57
847.824	86.53
847.999	-3.58
848.175	37.38
848.35	129.53
848.526	59.9
848.701	96.77
848.876	37.38
849.052	29.18
849.227	90.62
849.403	-15.87
849.578	12.8
849.753	39.42
849.929	111.1
850.104	94.72
850.279	61.95
850.454	66.05
850.63	76.29
850.805	45.57
850.98	80.38
851.155	41.47
851.33	0.51
851.505	-1.54
851.681	82.43
851.856	-28.16
852.031	68.09
852.206	35.33
852.381	76.29
852.556	80.38
852.731	16.9
852.906	43.52
853.081	113.15
853.256	23.04
853.431	55.81
853.606	20.99
853.781	47.62
853.956	-34.3
854.131	6.66
854.305	12.8
854.48	18.94
854.655	-3.58
854.83	78.33
855.005	78.33
855.18	57.86
855.354	51.71
855.529	96.77
855.704	102.91
855.879	20.99
856.053	0.51
856.228	47.62
856.403	10.75
856.577	92.67
856.752	27.14
856.926	49.66
857.101	29.18
857.276	35.33
857.45	51.71
857.625	104.96
857.799	80.38
857.974	47.62
858.148	55.81
858.323	66.05
858.497	80.38
858.672	72.19
858.846	39.42
859.02	4.61
859.195	123.39
859.369	-7.68
859.543	47.62
859.718	12.8
859.892	-24.06
860.066	119.29
860.241	10.75
860.415	31.23
860.589	88.57
860.763	107.01
860.938	-48.64
861.112	-3.58
861.286	-3.58
861.46	39.42
861.634	18.94
861.808	47.62
861.982	35.33
862.157	53.76
862.331	-1.54
862.505	-13.82
862.679	18.94
862.853	104.96
863.027	23.04
863.201	31.23
863.375	-19.97
863.549	18.94
863.722	35.33
863.896	16.9
864.07	70.14
864.244	82.43
864.418	33.28
864.592	-26.11
864.766	113.15
864.939	23.04
865.113	27.14
865.287	27.14
865.461	18.94
865.634	49.66
865.808	-22.02
865.982	12.8
866.156	20.99
866.329	-28.16
866.503	33.28
866.676	76.29
866.85	-42.5
867.024	84.48
867.197	-46.59
867.371	2.56
867.544	107.01
867.718	14.85
867.891	80.38
868.065	10.75
868.238	-28.16
868.412	49.66
868.585	51.71
868.759	41.47
868.932	53.76
869.105	-9.73
869.279	8.7
869.452	57.86
869.625	-15.87
869.799	0.51
869.972	53.76
870.145	-17.92
870.319	-5.63
870.492	31.23
870.665	51.71
870.838	8.7
871.011	53.76
871.185	6.66
871.358	23.04
871.531	41.47
871.704	6.66
871.877	55.81
872.05	-71.17
872.223	16.9
872.396	49.66
872.569	80.38
872.742	90.62
872.915	78.33
873.088	88.57
873.261	55.81
873.434	6.66
873.607	2.56
873.78	82.43
873.953	6.66
874.126	100.86
874.299	31.23
874.471	10.75
874.644	16.9
874.817	-15.87
874.99	61.95
875.163	25.09
875.335	31.23
875.508	-1.54
875.681	-15.87
875.853	-38.4
876.026	18.94
876.199	82.43
876.371	16.9
876.544	39.42
876.717	59.9
876.889	2.56
877.062	92.67
877.234	70.14
877.407	82.43
877.579	4.61
877.752	59.9
877.924	-17.92
878.097	37.38
878.269	-13.82
878.442	-7.68
878.614	25.09
878.786	16.9
878.959	45.57
879.131	49.66
879.303	16.9
879.476	80.38
879.648	2.56
879.82	14.85
879.993	86.53
880.165	84.48
880.337	-24.06
880.509	29.18
880.681	27.14
880.854	-17.92
881.026	31.23
881.198	39.42
881.37	68.09
881.542	-13.82
881.714	-1.54
881.886	66.05
882.058	25.09
882.23	31.23
882.402	37.38
882.574	25.09
882.746	47.62
882.918	-3.58
883.09	31.23
883.262	18.94
883.434	14.85
883.606	27.14
883.778	39.42
883.95	70.14
884.122	-40.45
884.293	49.66
884.465	0.51
884.637	59.9
884.809	-46.59
884.98	23.04
885.152	66.05
885.324	29.18
885.496	6.66
885.667	80.38
885.839	23.04
886.011	27.14
886.182	43.52
886.354	49.66
886.525	-50.69
886.697	25.09
886.869	55.81
887.04	78.33
887.212	90.62
887.383	59.9
887.555	25.09
887.726	64
887.897	-11.78
888.069	64
888.24	0.51
888.412	94.72
888.583	6.66
888.754	-28.16
888.926	-22.02
889.097	109.05
889.268	33.28
889.44	-30.21
889.611	12.8
889.782	-26.11
889.953	-13.82
890.125	31.23
890.296	-52.74
890.467	10.75
890.638	-9.73
890.809	31.23
890.98	10.75
891.151	-75.26
891.323	-38.4
891.494	64
891.665	25.09
891.836	23.04
892.007	14.85
892.178	14.85
892.349	-36.35
892.52	16.9
892.691	8.7
892.862	90.62
893.032	-38.4
893.203	31.23
893.374	4.61
893.545	16.9
893.716	4.61
893.887	25.09
894.057	-44.54
894.228	41.47
894.399	-9.73
894.57	125.44
894.74	37.38
894.911	64
895.082	35.33
895.253	10.75
895.423	-19.97
895.594	41.47
895.764	61.95
895.935	6.66
896.106	47.62
896.276	76.29
896.447	31.23
896.617	35.33
896.788	-44.54
896.958	41.47
897.129	59.9
897.299	66.05
897.47	-32.26
897.64	2.56
897.81	43.52
897.981	39.42
898.151	-1.54
898.322	53.76
898.492	64
898.662	23.04
898.832	16.9
899.003	-13.82
899.173	4.61
899.343	49.66
899.513	-28.16
