Data from USB4F104151__64__12-27-41-591.txt Node

Date: Fri Mar 14 12:27:41 EDT 2025
User: louis
Spectrometer: USB4F10415
Trigger mode: 4
Integration Time (sec): 2.000000E-2
Scans to average: 1
Electric dark correction enabled: true
Nonlinearity correction enabled: false
Boxcar width: 0
XAxis mode: Wavelengths
Number of Pixels in Spectrum: 3648
>>>>>Begin Spectral Data<<<<<
178.204	-88.57
178.424	-88.57
178.644	-88.57
178.864	-107.01
179.084	-57.86
179.304	-68.09
179.524	-49.66
179.744	-8.7
179.964	46.59
180.184	-23.04
180.404	-20.99
180.624	-92.67
180.844	48.64
181.064	-2.56
181.283	28.16
181.503	30.21
181.723	112.13
181.943	-68.09
182.163	11.78
182.383	-115.2
182.602	-16.9
182.822	-25.09
183.042	-33.28
183.262	-12.8
183.482	-61.95
183.701	-18.94
183.921	30.21
184.141	26.11
184.361	-18.94
184.58	24.06
184.8	-0.51
185.02	11.78
185.239	1.54
185.459	-39.42
185.679	93.69
185.898	-29.18
186.118	5.63
186.338	36.35
186.557	-37.38
186.777	-43.52
186.997	19.97
187.216	-0.51
187.436	126.46
187.655	28.16
187.875	22.02
188.095	-33.28
188.314	40.45
188.534	-14.85
188.753	26.11
188.973	-6.66
189.192	26.11
189.412	13.82
189.631	42.5
189.851	46.59
190.07	60.93
190.29	-23.04
190.509	-0.51
190.729	-31.23
190.948	-20.99
191.168	46.59
191.387	-72.19
191.607	-23.04
191.826	28.16
192.045	36.35
192.265	-14.85
192.484	11.78
192.704	5.63
192.923	-27.14
193.142	-6.66
193.362	3.58
193.581	54.78
193.8	-55.81
194.02	67.07
194.239	15.87
194.458	-37.38
194.678	-25.09
194.897	-39.42
195.116	-51.71
195.335	-10.75
195.555	24.06
195.774	-55.81
195.993	11.78
196.212	-2.56
196.432	9.73
196.651	17.92
196.87	-27.14
197.089	67.07
197.308	-18.94
197.528	-6.66
197.747	-10.75
197.966	-0.51
198.185	38.4
198.404	7.68
198.623	-10.75
198.842	-4.61
199.062	-6.66
199.281	7.68
199.5	-90.62
199.719	17.92
199.938	65.02
200.157	-35.33
200.376	5.63
200.595	-14.85
200.814	28.16
201.033	-23.04
201.252	-12.8
201.471	-6.66
201.69	60.93
201.909	-37.38
202.128	7.68
202.347	50.69
202.566	17.92
202.785	26.11
203.004	-55.81
203.223	60.93
203.442	-4.61
203.661	13.82
203.879	17.92
204.098	30.21
204.317	-55.81
204.536	87.55
204.755	-8.7
204.974	13.82
205.193	-12.8
205.411	93.69
205.63	-4.61
205.849	-23.04
206.068	11.78
206.287	24.06
206.505	40.45
206.724	26.11
206.943	3.58
207.162	-12.8
207.381	-23.04
207.599	19.97
207.818	-27.14
208.037	7.68
208.255	-18.94
208.474	93.69
208.693	-18.94
208.911	-66.05
209.13	-10.75
209.349	71.17
209.567	7.68
209.786	-2.56
210.005	-16.9
210.223	-55.81
210.442	26.11
210.661	-8.7
210.879	-43.52
211.098	9.73
211.316	15.87
211.535	28.16
211.753	15.87
211.972	-25.09
212.191	-49.66
212.409	34.3
212.628	-31.23
212.846	36.35
213.065	42.5
213.283	38.4
213.502	-100.86
213.72	-57.86
213.938	54.78
214.157	-18.94
214.375	48.64
214.594	5.63
214.812	40.45
215.031	-35.33
215.249	22.02
215.467	9.73
215.686	-16.9
215.904	24.06
216.122	-35.33
216.341	9.73
216.559	-4.61
216.778	-98.81
216.996	30.21
217.214	-16.9
217.432	7.68
217.651	-8.7
217.869	-0.51
218.087	-12.8
218.306	-0.51
218.524	-29.18
218.742	32.26
218.96	36.35
219.179	48.64
219.397	19.97
219.615	24.06
219.833	-29.18
220.051	-41.47
220.27	54.78
220.488	-16.9
220.706	30.21
220.924	-41.47
221.142	-45.57
221.36	-33.28
221.578	26.11
221.796	54.78
222.015	5.63
222.233	22.02
222.451	69.12
222.669	-51.71
222.887	-16.9
223.105	-35.33
223.323	38.4
223.541	19.97
223.759	5.63
223.977	-12.8
224.195	-68.09
224.413	77.31
224.631	11.78
224.849	81.41
225.067	19.97
225.285	-18.94
225.503	44.54
225.721	56.83
225.939	40.45
226.157	-16.9
226.375	26.11
226.592	-88.57
226.81	19.97
227.028	91.65
227.246	91.65
227.464	54.78
227.682	15.87
227.9	1.54
228.117	-49.66
228.335	-23.04
228.553	-23.04
228.771	1.54
228.989	19.97
229.206	46.59
229.424	-29.18
229.642	7.68
229.86	24.06
230.077	60.93
230.295	46.59
230.513	-41.47
230.731	1.54
230.948	5.63
231.166	40.45
231.384	15.87
231.601	-59.9
231.819	19.97
232.037	30.21
232.254	-12.8
232.472	28.16
232.689	26.11
232.907	5.63
233.125	32.26
233.342	52.74
233.56	50.69
233.777	-16.9
233.995	-18.94
234.213	54.78
234.43	46.59
234.648	-2.56
234.865	-14.85
235.083	19.97
235.3	5.63
235.518	62.98
235.735	24.06
235.953	17.92
236.17	13.82
236.388	77.31
236.605	-23.04
236.822	13.82
237.04	9.73
237.257	-39.42
237.475	28.16
237.692	52.74
237.909	24.06
238.127	7.68
238.344	22.02
238.562	101.89
238.779	-37.38
238.996	-55.81
239.214	19.97
239.431	32.26
239.648	97.79
239.865	87.55
240.083	56.83
240.3	17.92
240.517	-25.09
240.735	7.68
240.952	28.16
241.169	-31.23
241.386	26.11
241.603	-12.8
241.821	13.82
242.038	11.78
242.255	93.69
242.472	-59.9
242.689	-39.42
242.907	13.82
243.124	9.73
243.341	-16.9
243.558	-27.14
243.775	-4.61
243.992	-47.62
244.209	-0.51
244.426	17.92
244.643	-6.66
244.86	17.92
245.078	15.87
245.295	-4.61
245.512	1.54
245.729	30.21
245.946	28.16
246.163	19.97
246.38	-12.8
246.597	38.4
246.814	-2.56
247.031	-31.23
247.248	13.82
247.464	11.78
247.681	71.17
247.898	54.78
248.115	-14.85
248.332	-51.71
248.549	7.68
248.766	67.07
248.983	-31.23
249.2	-33.28
249.417	56.83
249.633	-2.56
249.85	3.58
250.067	5.63
250.284	46.59
250.501	13.82
250.717	-41.47
250.934	-70.14
251.151	38.4
251.368	-25.09
251.585	-23.04
251.801	-25.09
252.018	13.82
252.235	-20.99
252.451	-55.81
252.668	-14.85
252.885	7.68
253.102	-27.14
253.318	-14.85
253.535	-20.99
253.752	-12.8
253.968	1.54
254.185	-45.57
254.401	122.37
254.618	42.5
254.835	19.97
255.051	44.54
255.268	26.11
255.484	30.21
255.701	-16.9
255.917	-8.7
256.134	-10.75
256.351	-47.62
256.567	13.82
256.784	-45.57
257	-53.76
257.217	85.5
257.433	26.11
257.65	13.82
257.866	19.97
258.082	58.88
258.299	-76.29
258.515	24.06
258.732	1.54
258.948	-33.28
259.165	22.02
259.381	-27.14
259.597	56.83
259.814	40.45
260.03	-39.42
260.246	50.69
260.463	32.26
260.679	46.59
260.895	-41.47
261.112	3.58
261.328	40.45
261.544	91.65
261.761	34.3
261.977	-6.66
262.193	-16.9
262.409	5.63
262.626	-0.51
262.842	-10.75
263.058	-29.18
263.274	28.16
263.49	28.16
263.707	42.5
263.923	60.93
264.139	5.63
264.355	-12.8
264.571	48.64
264.787	52.74
265.004	22.02
265.22	58.88
265.436	-2.56
265.652	67.07
265.868	19.97
266.084	13.82
266.3	30.21
266.516	17.92
266.732	19.97
266.948	-4.61
267.164	22.02
267.38	-23.04
267.596	-37.38
267.812	32.26
268.028	44.54
268.244	36.35
268.46	-16.9
268.676	26.11
268.892	46.59
269.108	26.11
269.324	-31.23
269.54	17.92
269.756	-49.66
269.972	32.26
270.188	-6.66
270.403	-29.18
270.619	22.02
270.835	13.82
271.051	-18.94
271.267	69.12
271.483	3.58
271.698	19.97
271.914	-82.43
272.13	-49.66
272.346	-14.85
272.562	11.78
272.777	75.26
272.993	5.63
273.209	-10.75
273.425	-8.7
273.64	-31.23
273.856	7.68
274.072	28.16
274.287	46.59
274.503	-6.66
274.719	-29.18
274.934	-2.56
275.15	-8.7
275.366	58.88
275.581	17.92
275.797	5.63
276.012	-25.09
276.228	-6.66
276.444	-25.09
276.659	-20.99
276.875	-45.57
277.09	26.11
277.306	-12.8
277.521	30.21
277.737	-18.94
277.952	30.21
278.168	73.21
278.383	-57.86
278.599	5.63
278.814	42.5
279.03	-47.62
279.245	-6.66
279.461	-31.23
279.676	-57.86
279.892	13.82
280.107	-68.09
280.322	-31.23
280.538	-8.7
280.753	-39.42
280.969	103.93
281.184	22.02
281.399	36.35
281.615	-20.99
281.83	-53.76
282.045	-41.47
282.26	-10.75
282.476	13.82
282.691	40.45
282.906	5.63
283.122	7.68
283.337	-78.33
283.552	1.54
283.767	-14.85
283.983	-4.61
284.198	-12.8
284.413	36.35
284.628	-64
284.843	7.68
285.058	1.54
285.274	48.64
285.489	22.02
285.704	103.93
285.919	-14.85
286.134	-12.8
286.349	-0.51
286.564	3.58
286.779	40.45
286.995	11.78
287.21	-18.94
287.425	7.68
287.64	38.4
287.855	17.92
288.07	-20.99
288.285	77.31
288.5	85.5
288.715	67.07
288.93	-35.33
289.145	48.64
289.36	17.92
289.575	83.45
289.79	7.68
290.004	-78.33
290.219	77.31
290.434	-18.94
290.649	17.92
290.864	24.06
291.079	-10.75
291.294	-29.18
291.509	69.12
291.724	15.87
291.938	3.58
292.153	24.06
292.368	-39.42
292.583	-8.7
292.798	19.97
293.012	-8.7
293.227	-31.23
293.442	-8.7
293.657	42.5
293.871	62.98
294.086	-33.28
294.301	65.02
294.516	-41.47
294.73	9.73
294.945	24.06
295.16	62.98
295.374	81.41
295.589	71.17
295.804	34.3
296.018	-10.75
296.233	-8.7
296.447	3.58
296.662	11.78
296.877	19.97
297.091	-41.47
297.306	-4.61
297.52	-0.51
297.735	32.26
297.949	7.68
298.164	5.63
298.378	-2.56
298.593	-14.85
298.807	50.69
299.022	38.4
299.236	-2.56
299.451	132.61
299.665	15.87
299.88	22.02
300.094	32.26
300.309	99.84
300.523	58.88
300.737	-27.14
300.952	-0.51
301.166	65.02
301.381	7.68
301.595	-35.33
301.809	26.11
302.024	52.74
302.238	-14.85
302.452	44.54
302.667	-49.66
302.881	3.58
303.095	-64
303.309	28.16
303.524	9.73
303.738	34.3
303.952	9.73
304.166	26.11
304.381	-14.85
304.595	38.4
304.809	-8.7
305.023	71.17
305.237	54.78
305.452	30.21
305.666	7.68
305.88	15.87
306.094	17.92
306.308	-0.51
306.522	9.73
306.736	-10.75
306.95	-0.51
307.164	-0.51
307.379	-12.8
307.593	17.92
307.807	42.5
308.021	5.63
308.235	13.82
308.449	48.64
308.663	3.58
308.877	-8.7
309.091	15.87
309.305	46.59
309.519	42.5
309.733	-16.9
309.947	-57.86
310.161	40.45
310.374	48.64
310.588	11.78
310.802	-10.75
311.016	-20.99
311.23	15.87
311.444	-6.66
311.658	1.54
311.872	-35.33
312.085	62.98
312.299	-10.75
312.513	30.21
312.727	48.64
312.941	5.63
313.154	60.93
313.368	54.78
313.582	-39.42
313.796	17.92
314.009	-20.99
314.223	62.98
314.437	32.26
314.651	5.63
314.864	-2.56
315.078	67.07
315.292	17.92
315.505	17.92
315.719	19.97
315.933	-6.66
316.146	30.21
316.36	-29.18
316.573	5.63
316.787	67.07
317.001	24.06
317.214	-12.8
317.428	75.26
317.641	-29.18
317.855	13.82
318.068	7.68
318.282	32.26
318.495	44.54
318.709	50.69
318.922	-23.04
319.136	44.54
319.349	-29.18
319.563	5.63
319.776	-12.8
319.99	40.45
320.203	3.58
320.417	-18.94
320.63	56.83
320.843	-12.8
321.057	1.54
321.27	-59.9
321.483	-23.04
321.697	3.58
321.91	71.17
322.124	3.58
322.337	11.78
322.55	-18.94
322.763	15.87
322.977	28.16
323.19	-66.05
323.403	28.16
323.617	28.16
323.83	151.04
324.043	-6.66
324.256	62.98
324.469	-37.38
324.683	24.06
324.896	-18.94
325.109	-4.61
325.322	-16.9
325.535	56.83
325.748	50.69
325.962	-23.04
326.175	-72.19
326.388	42.5
326.601	-16.9
326.814	36.35
327.027	-41.47
327.24	19.97
327.453	-29.18
327.666	67.07
327.879	34.3
328.092	-4.61
328.305	30.21
328.518	42.5
328.731	73.21
328.944	26.11
329.157	-8.7
329.37	3.58
329.583	52.74
329.796	38.4
330.009	-35.33
330.222	28.16
330.435	13.82
330.648	-18.94
330.861	40.45
331.073	-25.09
331.286	105.98
331.499	30.21
331.712	-39.42
331.925	3.58
332.138	-2.56
332.35	56.83
332.563	-27.14
332.776	13.82
332.989	17.92
333.202	112.13
333.414	-10.75
333.627	73.21
333.84	-2.56
334.053	95.74
334.265	34.3
334.478	-31.23
334.691	46.59
334.903	13.82
335.116	-31.23
335.329	81.41
335.541	36.35
335.754	54.78
335.966	30.21
336.179	-2.56
336.392	58.88
336.604	36.35
336.817	1.54
337.029	26.11
337.242	56.83
337.454	32.26
337.667	46.59
337.88	71.17
338.092	60.93
338.305	46.59
338.517	11.78
338.729	42.5
338.942	62.98
339.154	42.5
339.367	-2.56
339.579	-31.23
339.792	-41.47
340.004	-16.9
340.217	19.97
340.429	60.93
340.641	67.07
340.854	42.5
341.066	40.45
341.278	58.88
341.491	81.41
341.703	26.11
341.915	1.54
342.128	71.17
342.34	52.74
342.552	36.35
342.764	-31.23
342.977	-33.28
343.189	13.82
343.401	83.45
343.613	30.21
343.826	44.54
344.038	-18.94
344.25	19.97
344.462	17.92
344.674	95.74
344.886	40.45
345.099	-23.04
345.311	46.59
345.523	9.73
345.735	-0.51
345.947	28.16
346.159	60.93
346.371	-57.86
346.583	7.68
346.795	40.45
347.007	13.82
347.219	58.88
347.431	40.45
347.643	65.02
347.855	1.54
348.067	89.6
348.279	-10.75
348.491	75.26
348.703	130.56
348.915	28.16
349.127	73.21
349.339	-4.61
349.551	-33.28
349.763	32.26
349.975	-12.8
350.187	-0.51
350.399	65.02
350.61	38.4
350.822	13.82
351.034	-4.61
351.246	-14.85
351.458	38.4
351.669	-18.94
351.881	50.69
352.093	19.97
352.305	-10.75
352.517	15.87
352.728	52.74
352.94	148.99
353.152	112.13
353.363	-16.9
353.575	38.4
353.787	60.93
353.999	-35.33
354.21	40.45
354.422	15.87
354.633	15.87
354.845	19.97
355.057	22.02
355.268	22.02
355.48	11.78
355.692	-27.14
355.903	13.82
356.115	-2.56
356.326	26.11
356.538	28.16
356.749	36.35
356.961	46.59
357.172	-18.94
357.384	-14.85
357.595	81.41
357.807	48.64
358.018	32.26
358.23	52.74
358.441	77.31
358.653	69.12
358.864	15.87
359.075	36.35
359.287	-6.66
359.498	58.88
359.709	81.41
359.921	-10.75
360.132	-23.04
360.344	36.35
360.555	-8.7
360.766	85.5
360.977	3.58
361.189	69.12
361.4	50.69
361.611	46.59
361.823	3.58
362.034	69.12
362.245	28.16
362.456	24.06
362.667	17.92
362.879	34.3
363.09	1.54
363.301	-27.14
363.512	-8.7
363.723	3.58
363.935	19.97
364.146	3.58
364.357	-2.56
364.568	-4.61
364.779	15.87
364.99	79.36
365.201	15.87
365.412	1.54
365.623	-27.14
365.834	30.21
366.045	58.88
366.256	60.93
366.467	50.69
366.678	9.73
366.889	50.69
367.1	-23.04
367.311	-20.99
367.522	-2.56
367.733	-18.94
367.944	71.17
368.155	42.5
368.366	9.73
368.577	32.26
368.788	75.26
368.999	54.78
369.209	46.59
369.42	19.97
369.631	75.26
369.842	44.54
370.053	91.65
370.264	42.5
370.474	46.59
370.685	-23.04
370.896	46.59
371.107	36.35
371.317	44.54
371.528	-41.47
371.739	7.68
371.95	-4.61
372.16	54.78
372.371	71.17
372.582	7.68
372.792	17.92
373.003	97.79
373.214	28.16
373.424	13.82
373.635	60.93
373.846	52.74
374.056	40.45
374.267	5.63
374.477	65.02
374.688	26.11
374.898	-8.7
375.109	75.26
375.319	56.83
375.53	30.21
375.74	17.92
375.951	24.06
376.161	93.69
376.372	112.13
376.582	-8.7
376.793	11.78
377.003	40.45
377.214	19.97
377.424	36.35
377.635	-10.75
377.845	17.92
378.055	-37.38
378.266	-29.18
378.476	44.54
378.686	79.36
378.897	-18.94
379.107	65.02
379.317	26.11
379.528	30.21
379.738	69.12
379.948	19.97
380.158	-18.94
380.369	-29.18
380.579	30.21
380.789	46.59
380.999	52.74
381.21	40.45
381.42	89.6
381.63	-10.75
381.84	-4.61
382.05	-10.75
382.261	38.4
382.471	11.78
382.681	54.78
382.891	77.31
383.101	36.35
383.311	-0.51
383.521	44.54
383.731	89.6
383.941	105.98
384.151	13.82
384.361	30.21
384.571	22.02
384.781	42.5
384.991	56.83
385.201	81.41
385.411	24.06
385.621	52.74
385.831	19.97
386.041	-8.7
386.251	26.11
386.461	17.92
386.671	1.54
386.881	26.11
387.091	62.98
387.301	50.69
387.511	9.73
387.72	36.35
387.93	13.82
388.14	11.78
388.35	30.21
388.56	60.93
388.769	38.4
388.979	56.83
389.189	126.46
389.399	62.98
389.609	3.58
389.818	83.45
390.028	-27.14
390.238	54.78
390.447	40.45
390.657	52.74
390.867	44.54
391.076	1.54
391.286	81.41
391.496	44.54
391.705	67.07
391.915	79.36
392.125	13.82
392.334	15.87
392.544	19.97
392.753	24.06
392.963	42.5
393.172	-51.71
393.382	13.82
393.591	38.4
393.801	32.26
394.01	89.6
394.22	28.16
394.429	73.21
394.639	22.02
394.848	36.35
395.058	87.55
395.267	52.74
395.477	85.5
395.686	144.89
395.895	103.93
396.105	69.12
396.314	-2.56
396.524	15.87
396.733	24.06
396.942	83.45
397.152	26.11
397.361	32.26
397.57	50.69
397.78	95.74
397.989	58.88
398.198	165.37
398.407	44.54
398.617	-6.66
398.826	85.5
399.035	62.98
399.244	60.93
399.453	87.55
399.663	79.36
399.872	85.5
400.081	93.69
400.29	81.41
400.499	69.12
400.708	95.74
400.917	7.68
401.127	19.97
401.336	42.5
401.545	87.55
401.754	73.21
401.963	112.13
402.172	112.13
402.381	89.6
402.59	17.92
402.799	81.41
403.008	67.07
403.217	67.07
403.426	44.54
403.635	75.26
403.844	73.21
404.053	73.21
404.262	105.98
404.471	136.7
404.68	144.89
404.888	77.31
405.097	93.69
405.306	91.65
405.515	28.16
405.724	73.21
405.933	95.74
406.142	157.18
406.35	81.41
406.559	144.89
406.768	138.75
406.977	124.41
407.185	130.56
407.394	210.43
407.603	91.65
407.812	192
408.02	140.8
408.229	202.24
408.438	169.47
408.646	134.65
408.855	206.33
409.064	222.72
409.272	251.39
409.481	212.48
409.69	222.72
409.898	142.85
410.107	208.38
410.315	212.48
410.524	165.37
410.733	237.05
410.941	261.63
411.15	271.87
411.358	273.92
411.567	200.19
411.775	271.87
411.984	286.2
412.192	292.35
412.401	275.96
412.609	374.27
412.818	302.59
413.026	316.92
413.234	351.74
413.443	376.31
413.651	404.99
413.86	415.23
414.068	437.75
414.276	501.24
414.485	519.67
414.693	513.53
414.901	554.49
415.11	423.42
415.318	439.8
415.526	554.49
415.734	540.15
415.943	597.49
416.151	556.54
416.359	650.74
416.567	654.84
416.776	671.22
416.984	722.42
417.192	749.04
417.4	648.69
417.608	775.67
417.817	708.09
418.025	835.06
418.233	839.16
418.441	796.15
418.649	892.4
418.857	988.66
419.065	916.98
419.273	896.5
419.481	1046
419.689	1056.24
419.897	1070.58
420.105	1041.9
420.313	1175.02
420.521	1189.36
420.729	1263.08
420.937	1218.03
421.145	1297.9
421.353	1392.11
421.561	1363.44
421.769	1402.35
421.977	1496.55
422.185	1541.61
422.393	1592.81
422.601	1676.77
422.809	1691.11
423.017	1594.86
423.224	1723.88
423.432	1816.04
423.64	1818.08
423.848	1957.35
424.056	1994.21
424.263	2145.76
424.471	2108.9
424.679	2143.71
424.887	2285.02
425.094	2254.3
425.302	2455
425.51	2395.61
425.718	2649.56
425.925	2606.55
426.133	2674.14
426.341	2848.21
426.548	2870.74
426.756	3005.91
426.964	3028.43
427.171	3167.7
427.379	3136.98
427.586	3231.18
427.794	3409.36
428.001	3468.75
428.209	3698.12
428.417	3501.51
428.624	3839.43
428.832	3880.39
429.039	3907.01
429.247	3907.01
429.454	4191.68
429.662	4466.11
429.869	4304.32
430.076	4636.09
430.284	4304.32
430.491	4668.86
430.699	4828.6
430.906	4826.55
431.114	4933.04
431.321	5225.9
431.528	5230
431.736	5479.85
431.943	5844.39
432.15	5592.49
432.358	5633.45
432.565	6018.47
432.772	5936.55
432.979	6317.47
433.187	6507.93
433.394	6575.52
433.601	6954.39
433.808	7007.64
434.016	6985.11
434.223	7148.95
434.43	7671.18
434.637	7437.71
434.844	7843.21
435.052	8136.07
435.259	7964.04
435.466	8166.79
435.673	7933.32
435.88	8613.24
436.087	9082.23
436.294	8930.68
436.501	8756.6
436.708	9067.89
436.915	9282.93
437.122	9626.99
437.329	9719.15
437.537	9956.71
437.743	10204.52
437.95	10093.93
438.157	10661.21
438.364	10929.5
438.571	11052.38
438.778	11042.14
438.985	12309.83
439.192	11523.41
439.399	11957.58
439.606	11631.95
439.813	12444.99
440.02	13006.14
440.227	12858.68
440.433	12795.2
440.64	13208.89
440.847	13030.71
441.054	13331.76
441.261	14437.67
441.467	14089.51
441.674	14540.07
441.881	14941.47
442.088	14996.76
442.294	14945.56
442.501	15404.31
442.708	15707.41
442.914	16350.47
443.121	16903.42
443.328	16403.72
443.534	17538.29
443.741	16964.86
443.948	16747.78
444.154	18164.97
444.361	17929.45
444.568	18193.64
444.774	17986.8
444.981	18439.4
445.187	18918.62
445.394	19526.87
445.6	19483.86
445.807	21286.08
446.013	20401.35
446.22	20788.42
446.426	21621.94
446.633	21869.75
446.839	22500.52
447.046	21798.07
447.252	23049.38
447.459	23065.76
447.665	22949.03
447.871	24216.72
448.078	24822.92
448.284	24028.31
448.491	24317.07
448.697	25304.19
448.903	25584.76
449.11	25994.36
449.316	25631.86
449.522	26002.55
449.728	26629.23
449.935	26821.73
450.141	26924.13
450.347	27563.1
450.553	26772.58
450.76	26770.54
450.966	27741.27
451.172	27808.86
451.378	28435.53
451.584	27663.45
451.791	28134.48
451.997	28451.92
452.203	28582.99
452.409	28939.33
452.615	28689.48
452.821	27706.46
453.027	27456.61
453.233	28896.33
453.44	27483.23
453.646	28050.52
453.852	28306.51
454.058	28562.51
454.264	28019.8
454.47	28271.7
454.676	27782.23
454.882	28470.35
455.088	26160.24
455.294	26946.66
455.5	26961
455.705	26913.89
455.911	26018.93
456.117	25633.91
456.323	25447.55
456.529	24050.83
456.735	24939.65
456.941	24282.25
457.147	23940.24
457.352	23426.2
457.558	23030.94
457.764	23133.34
457.97	22367.4
458.176	22219.95
458.381	22133.93
458.587	21114.05
458.793	21206.2
458.999	20204.75
459.204	21421.24
459.41	20831.43
459.616	19342.55
459.821	19160.28
460.027	19426.52
460.233	18726.11
460.438	17884.4
460.644	18408.68
460.85	17511.67
461.055	17212.67
461.261	16751.87
461.466	15850.77
461.672	15430.93
461.878	16450.82
462.083	15203.61
462.289	15181.08
462.494	14955.8
462.7	14191.91
462.905	13913.39
463.111	14322.98
463.316	14486.82
463.522	14226.73
463.727	14423.33
463.932	14357.8
464.138	14021.93
464.343	14101.8
464.549	13829.42
464.754	14310.69
464.959	14167.34
465.165	13976.87
465.37	13335.86
465.575	12934.46
465.781	13561.14
465.986	13598
466.191	13063.48
466.397	12725.57
466.602	12141.89
466.807	12760.38
467.012	12772.67
467.218	12555.58
467.423	12225.86
467.628	12610.88
467.833	12922.17
468.038	12596.54
468.244	12481.86
468.449	12512.58
468.654	12303.68
468.859	12275.01
469.064	12248.39
469.269	11539.79
469.474	11656.53
469.679	12014.92
469.885	11717.97
470.09	11922.76
470.295	11883.85
470.5	11736.4
470.705	11662.67
470.91	11494.74
471.115	11248.98
471.32	11214.16
471.525	11423.06
471.73	11193.69
471.935	10917.21
472.139	10722.65
472.344	10798.43
472.549	10573.15
472.754	10677.6
472.959	10511.71
473.164	10073.45
473.369	10167.65
473.574	10622.3
473.778	10378.59
473.983	10163.56
474.188	10161.51
474.393	9604.46
474.598	9807.21
474.802	9780.59
475.007	9622.89
475.212	9567.6
475.417	9403.76
475.621	9373.04
475.826	9035.13
476.031	9033.08
476.235	8988.02
476.44	9139.57
476.645	8988.02
476.849	9135.48
477.054	8883.58
477.259	8596.86
477.463	8594.81
477.668	8301.95
477.872	8453.5
478.077	8414.59
478.282	8002.95
478.486	8041.86
478.691	8097.16
478.895	8080.77
479.1	8119.68
479.304	8041.86
479.509	7785.87
479.713	8019.33
479.918	7812.49
480.122	7611.79
480.326	7826.82
480.531	7792.01
480.735	7695.75
480.94	7722.38
481.144	7863.69
481.348	7470.48
481.553	7609.74
481.757	7329.17
481.961	7488.91
482.166	7613.84
482.37	7785.87
482.574	7406.99
482.778	7517.58
482.983	7880.07
483.187	7640.46
483.391	7710.09
483.595	7361.94
483.8	7570.83
484.004	7394.7
484.208	7658.89
484.412	7484.81
484.616	7456.14
484.821	7411.09
485.025	7384.46
485.229	7597.45
485.433	7458.19
485.637	7591.31
485.841	7402.9
486.045	7529.87
486.249	7454.09
486.453	7421.33
486.657	7519.63
486.861	7576.97
487.065	7320.98
487.269	7624.08
487.473	7499.15
487.677	7646.6
487.881	7564.68
488.085	7450
488.289	7708.04
488.493	7554.44
488.697	7589.26
488.901	7576.97
489.105	7656.84
489.309	7519.63
489.512	7628.17
489.716	7728.52
489.92	7558.54
490.124	7437.71
490.328	7638.41
490.531	7658.89
490.735	7959.94
490.939	7818.63
491.143	7738.76
491.346	7589.26
491.55	7984.52
491.754	7757.19
491.958	7998.85
492.161	7804.3
492.365	8060.29
492.569	7708.04
492.772	7978.37
492.976	8121.73
493.18	8107.4
493.383	8146.31
493.587	8152.45
493.79	8322.43
493.994	8189.32
494.197	8101.25
494.401	8324.48
494.605	8330.62
494.808	8326.53
495.012	8615.29
495.215	8600.96
495.419	8463.74
495.622	8617.34
495.825	8889.72
496.029	8762.75
496.232	8891.77
496.436	8770.94
496.639	9108.85
496.843	9266.55
497.046	9428.34
497.249	9532.78
497.453	9461.1
497.656	9678.19
497.859	9485.68
498.063	9643.37
498.266	9856.36
498.469	9778.54
498.673	9934.18
498.876	10001.77
499.079	10192.23
499.282	10077.54
499.485	10585.44
499.689	10562.91
499.892	10417.51
500.095	10798.43
500.298	11040.09
500.501	10728.8
500.705	11031.9
500.908	11179.35
501.111	11300.18
501.314	11281.75
501.517	11468.11
501.72	11535.7
501.923	11648.33
502.126	11873.61
502.329	11990.35
502.532	12266.82
502.735	12291.4
502.938	12582.21
503.141	12301.64
503.344	12770.62
503.547	12608.83
503.75	12895.55
503.953	13114.68
504.156	13155.64
504.359	13157.69
504.562	13423.92
504.765	13763.89
504.968	13704.49
505.17	14028.07
505.373	14112.04
505.576	14296.36
505.779	14517.54
505.982	14652.7
506.185	14904.6
506.387	14787.87
506.59	14837.02
506.793	15273.24
506.996	15191.32
507.198	15611.15
507.401	15643.92
507.604	15682.83
507.807	16061.71
508.009	16164.11
508.212	16538.88
508.415	16471.3
508.617	16686.34
508.82	16469.25
509.022	16577.8
509.225	17220.86
509.428	17229.05
509.63	17292.54
509.833	17396.98
510.035	17945.84
510.238	17745.14
510.44	18027.76
510.643	18527.46
510.845	18441.45
511.048	18597.09
511.25	18920.67
511.453	19000.54
511.655	19614.93
511.858	19234.01
512.06	19406.04
512.262	19723.48
512.465	19786.96
512.667	19948.75
512.87	20423.88
513.072	20116.69
513.274	20573.38
513.477	21056.7
513.679	21177.53
513.881	20980.93
514.084	21523.64
514.286	21263.55
514.488	21644.47
514.69	22101.17
514.893	22332.59
515.095	21998.77
515.297	22711.46
515.499	22828.2
515.701	22918.31
515.904	23389.34
516.106	23192.73
516.308	23530.65
516.51	23729.3
516.712	23975.06
516.914	24226.96
517.116	24429.71
517.318	24540.3
517.52	24775.81
517.722	24773.77
517.925	25355.39
518.127	25488.51
518.329	25117.82
518.531	25453.69
518.733	26162.29
518.935	26221.68
519.136	25949.3
519.338	26483.82
519.54	26571.88
519.742	27294.82
519.944	27243.62
520.146	27755.61
520.348	27407.45
520.55	27698.27
520.752	27751.51
520.954	28259.41
521.155	28142.67
521.357	28216.4
521.559	28619.85
521.761	29060.16
521.963	29043.78
522.164	29330.5
522.366	29576.25
522.568	29445.18
522.77	29738.04
522.971	30377.01
523.173	30219.31
523.375	30315.57
523.576	30295.09
523.778	30510.13
523.98	31128.61
524.181	30780.46
524.383	31314.98
524.584	31368.23
524.786	31585.31
524.988	31450.14
525.189	31888.41
525.391	32066.58
525.592	32273.43
525.794	32306.2
525.995	32211.99
526.197	32508.94
526.398	32377.87
526.6	33010.7
526.801	33039.37
527.003	33039.37
527.204	33369.09
527.406	33297.41
527.607	33262.6
527.808	33831.93
528.01	32979.98
528.211	33602.56
528.412	34206.71
528.614	33993.72
528.815	34006.01
529.016	34212.85
529.218	33963
529.419	34438.13
529.62	34243.57
529.822	33913.85
530.023	34352.12
530.224	34431.99
530.425	34468.85
530.626	34384.88
530.828	34515.95
531.029	35183.59
531.23	34470.9
531.431	34495.47
531.632	34997.23
531.833	35089.38
532.035	35187.69
532.236	35515.36
532.437	35093.48
532.638	34935.79
532.839	35335.14
533.04	35468.26
533.241	35118.06
533.442	35519.46
533.643	35650.53
533.844	35320.81
534.045	35564.51
534.246	35079.14
534.447	35722.21
534.648	35431.4
534.849	35685.34
535.05	35118.06
535.251	35539.94
535.451	35488.74
535.652	35496.93
535.853	35285.99
536.054	35568.61
536.255	35533.79
536.456	35120.1
536.657	35961.82
536.857	35380.2
537.058	35533.79
537.259	35306.47
537.46	35820.51
537.66	35728.35
537.861	35591.14
538.062	35449.83
538.263	35693.54
538.463	35290.09
538.664	35361.76
538.865	35681.25
539.065	35830.75
539.266	35171.3
539.466	36346.84
539.667	35400.68
539.868	35826.65
540.068	35730.4
540.269	35795.93
540.469	35836.89
540.67	35621.86
540.87	36064.22
541.071	35613.66
541.271	35922.91
541.472	35525.6
541.672	35556.32
541.873	35607.52
542.073	34966.51
542.274	35935.2
542.474	35812.32
542.675	35236.84
542.875	35738.59
543.075	35869.66
543.276	35519.46
543.476	35730.4
543.676	35259.37
543.877	35611.62
544.077	35466.21
544.277	35498.98
544.478	35769.31
544.678	35793.89
544.878	35728.35
545.078	35668.96
545.279	35472.35
545.479	35353.57
545.679	35453.92
545.879	35324.9
546.079	35763.17
546.28	35515.36
546.48	35310.57
546.68	35695.58
546.88	35941.34
547.08	35703.78
547.28	35707.87
547.48	35458.02
547.68	35580.9
547.88	35249.13
548.081	36152.28
548.281	35941.34
548.481	35558.37
548.681	35861.47
548.881	35773.41
549.081	35793.89
549.28	35228.65
549.48	36041.69
549.68	35501.03
549.88	35832.8
550.08	35455.97
550.28	35832.8
550.48	35498.98
550.68	35922.91
550.88	35355.62
551.08	35650.53
551.279	35584.99
551.479	35318.76
551.679	35597.28
551.879	35574.75
552.079	35716.06
552.278	35609.57
552.478	35732.45
552.678	35515.36
552.878	35593.18
553.077	35509.22
553.277	35124.2
553.477	36090.84
553.676	35593.18
553.876	35728.35
554.076	35083.24
554.275	35339.24
554.475	34970.6
554.674	35732.45
554.874	35650.53
555.074	35367.91
555.273	35601.38
555.473	35591.14
555.672	35189.74
555.872	35464.16
556.071	35650.53
556.271	35464.16
556.47	35263.46
556.67	35124.2
556.869	34956.27
557.068	35290.09
557.268	35101.67
557.467	35017.71
557.667	35159.02
557.866	35032.04
558.065	34993.13
558.265	34800.62
558.464	34673.65
558.663	35089.38
558.863	34298.87
559.062	35064.81
559.261	34821.1
559.461	34968.55
559.66	34585.58
559.859	34855.92
560.058	34565.1
560.258	34794.48
560.457	34464.75
560.656	34698.22
560.855	34411.51
561.054	34499.57
561.253	34397.17
561.453	34749.42
561.652	34483.19
561.851	34692.08
562.05	34274.29
562.249	34591.73
562.448	34434.03
562.647	34219
562.846	34122.74
563.045	34061.3
563.244	33625.09
563.443	34454.51
563.642	33741.82
563.841	34081.78
564.04	33752.06
564.239	34286.58
564.438	33817.6
564.637	34008.06
564.836	33940.47
565.035	33475.59
565.234	34057.21
565.432	33561.6
565.631	33160.2
565.83	33893.37
566.029	33639.42
566.228	33043.46
566.427	33418.24
566.625	33039.37
566.824	32887.82
567.023	33321.99
567.222	33195.01
567.42	33342.47
567.619	33174.53
567.818	33141.77
568.016	32910.35
568.215	33338.37
568.414	32775.18
568.612	33035.27
568.811	32603.15
569.01	32900.11
569.208	32336.91
569.407	32988.17
569.605	32435.22
569.804	32508.94
570.002	32175.13
570.201	32615.44
570.4	32322.58
570.598	32027.67
570.797	31820.83
570.995	32400.4
571.193	32013.34
571.392	32330.77
571.59	32033.82
571.789	31845.4
571.987	31781.92
572.186	31550.49
572.384	31650.85
572.582	31474.72
572.781	31583.26
572.979	31374.37
573.177	31355.94
573.376	31790.11
573.574	31284.26
573.772	31409.18
573.971	31089.7
574.169	31255.59
574.367	30886.95
574.565	31450.14
574.763	31259.68
574.962	30876.71
575.16	30497.84
575.358	30909.48
575.556	30524.46
575.754	30876.71
575.952	30360.62
576.151	30759.98
576.349	30440.5
576.547	30295.09
576.745	30413.87
576.943	30334
577.141	30104.63
577.339	30297.14
577.537	30389.3
577.735	30254.13
577.933	29789.24
578.131	29969.46
578.329	29830.2
578.527	29625.4
578.725	29629.5
578.923	30037.05
579.121	29504.57
579.319	29809.72
579.516	29674.56
579.714	29557.82
579.912	29500.48
580.11	29498.43
580.308	29426.75
580.506	29371.46
580.704	29047.88
580.901	29330.5
581.099	29350.98
581.297	28763.21
581.495	28732.49
581.692	29232.19
581.89	28601.42
582.088	29049.92
582.285	28646.47
582.483	28935.24
582.681	28609.61
582.878	28515.4
583.076	28492.88
583.274	28451.92
583.471	28103.76
583.669	28304.46
583.866	28122.19
584.064	28347.47
584.262	27735.13
584.459	28034.13
584.657	27882.58
584.854	28218.45
585.052	27505.76
585.249	27778.14
585.447	27737.18
585.644	27724.89
585.841	27765.85
586.039	28044.37
586.236	27380.83
586.434	27298.91
586.631	27145.31
586.828	27157.6
587.026	27227.23
587.223	27325.54
587.42	26985.57
587.618	27010.15
587.815	26860.65
588.012	26934.37
588.21	26588.27
588.407	27047.01
588.604	26614.89
588.801	26649.71
588.999	26391.66
589.196	26565.74
589.393	26614.89
589.59	26319.98
589.787	26403.95
589.984	26193.01
590.182	26125.43
590.379	26403.95
590.576	25977.97
590.773	26199.15
590.97	25685.11
591.167	25971.83
591.364	25447.55
591.561	25990.26
591.758	25705.59
591.955	25470.08
592.152	25711.74
592.349	25425.02
592.546	25363.58
592.743	25302.14
592.94	25078.91
593.137	25461.88
593.334	25599.1
593.531	24874.12
593.727	25285.76
593.924	24876.16
594.121	24745.09
594.318	24896.64
594.515	24663.18
594.712	24857.73
594.908	24984.71
595.105	24845.44
595.302	24349.84
595.499	24667.27
595.696	24474.76
595.892	24036.5
596.089	24167.57
596.286	24241.29
596.482	24306.83
596.679	24106.13
596.876	24126.61
597.072	24030.35
597.269	24056.98
597.466	23723.16
597.662	23657.62
597.859	23760.02
598.055	23735.45
598.252	23643.29
598.448	23538.84
598.645	23710.87
598.841	23274.65
599.038	23131.3
599.234	23753.88
599.431	23340.19
599.627	23182.49
599.824	23315.61
600.02	23098.53
600.217	23049.38
600.413	22944.93
600.609	22822.05
600.806	22803.62
601.002	22785.19
601.198	22643.88
601.395	22594.73
601.591	22400.17
601.787	22705.32
601.984	22334.64
602.18	22768.8
602.376	22451.37
602.572	22344.88
602.769	22400.17
602.965	21978.29
603.161	22111.41
603.357	22318.25
603.553	21994.67
603.75	22140.08
603.946	21783.73
604.142	21955.76
604.338	21372.09
604.534	21771.44
604.73	21501.11
604.926	21558.46
605.122	21843.12
605.318	21646.52
605.514	21425.34
605.71	21191.87
605.906	21279.93
606.102	20974.78
606.298	21310.65
606.494	21302.46
606.69	21265.6
606.886	21114.05
607.082	20933.82
607.278	21230.78
607.474	20645.06
607.67	21112
607.866	20536.52
608.062	21048.51
608.257	20688.07
608.453	20845.76
608.649	20755.65
608.845	20708.55
609.041	20477.13
609.236	20425.93
609.432	20550.85
609.628	20733.12
609.824	20499.66
610.019	20368.59
610.215	20362.44
610.411	20315.34
610.606	20124.88
610.802	20464.84
610.998	20223.18
611.193	20384.97
611.389	20411.59
611.584	20319.43
611.78	19897.55
611.976	20301
612.171	20073.68
612.367	19995.85
612.562	20088.01
612.758	19879.12
612.953	19772.63
613.149	19975.38
613.344	19854.55
613.539	20325.58
613.735	19860.69
613.93	20006.09
614.126	19666.13
614.321	19963.09
614.517	19649.75
614.712	19909.84
614.907	19576.02
615.103	19832.02
615.298	19485.91
615.493	19616.98
615.688	19252.44
615.884	19717.33
616.079	19184.86
616.274	19467.48
616.47	19639.51
616.665	19457.24
616.86	19324.12
617.055	19201.24
617.25	19162.33
617.445	19322.07
617.641	19164.38
617.836	19299.55
618.031	19156.19
618.226	19113.18
618.421	19139.8
618.616	19186.91
618.811	18857.18
619.006	19100.89
619.201	18695.39
619.396	18771.17
619.591	18390.25
619.786	18705.63
619.981	18279.66
620.176	18525.41
620.371	18523.37
620.566	18619.62
620.761	18162.92
620.956	18289.9
621.151	18058.48
621.346	18048.24
621.541	17835.25
621.735	18054.38
621.93	17913.07
622.125	17536.24
622.32	17280.25
622.515	17659.12
622.709	17607.92
622.904	17528.05
623.099	17419.51
623.294	17730.8
623.488	17057.02
623.683	17288.44
623.878	17050.88
624.072	17093.88
624.267	16954.62
624.462	16846.08
624.656	16612.61
624.851	16772.35
625.046	16274.7
625.24	16520.45
625.435	16354.57
625.629	16411.91
625.824	16252.17
626.018	15947.02
626.213	15740.18
626.407	15930.64
626.602	15805.71
626.796	15873.29
626.991	15559.95
627.185	15725.84
627.38	15435.03
627.574	15432.98
627.768	15254.81
627.963	15367.45
628.157	14939.42
628.352	15193.37
628.546	15228.18
628.74	15306.01
628.935	14886.17
629.129	14943.52
629.323	14779.68
629.517	14560.55
629.712	14689.57
629.906	14599.46
630.1	14554.4
630.294	14474.53
630.489	14378.28
630.683	14486.82
630.877	14310.69
631.071	14146.86
631.265	14112.04
631.459	13643.06
631.653	14146.86
631.848	13989.16
632.042	13747.5
632.236	13886.76
632.43	13538.61
632.624	13567.28
632.818	13772.08
633.012	13294.9
633.206	13448.5
633.4	13528.37
633.594	13403.44
633.788	12975.42
633.982	13249.85
634.176	13147.45
634.369	12973.37
634.563	12862.78
634.757	12891.45
634.951	12848.44
635.145	12852.54
635.339	12729.66
635.533	12963.13
635.726	12713.28
635.92	12432.71
636.114	12633.41
636.308	12326.21
636.501	12367.17
636.695	12320.07
636.889	12049.74
637.083	12045.64
637.276	12084.55
637.47	12207.43
637.664	12229.96
637.857	11812.17
638.051	11924.81
638.244	11513.17
638.438	12012.87
638.632	11457.87
638.825	11572.56
639.019	11691.34
639.212	11482.45
639.406	11337.04
639.599	11595.09
639.793	11558.22
639.986	11146.58
640.18	11144.53
640.373	11431.25
640.567	10960.22
640.76	10925.4
640.954	10968.41
641.147	10892.63
641.34	10777.95
641.534	10859.87
641.727	10949.98
641.92	10812.76
642.114	10827.1
642.307	10685.79
642.5	10548.58
642.694	10550.62
642.887	10544.48
643.08	10704.22
643.273	10497.38
643.467	10466.66
643.66	10261.86
643.853	10177.89
644.046	10026.34
644.239	10265.96
644.432	9942.38
644.626	9934.18
644.819	9903.46
645.012	9989.48
645.205	10087.78
645.398	9866.6
645.591	9799.02
645.784	9579.89
645.977	9788.78
646.17	9790.83
646.363	9639.28
646.556	9547.12
646.749	9526.64
646.942	9596.27
647.135	9495.92
647.328	9385.33
647.521	9424.24
647.714	9133.43
647.907	9342.32
648.099	9164.15
648.292	9319.79
648.485	9174.39
648.678	9158
648.871	8996.21
649.064	8945.02
649.256	9026.93
649.449	8969.59
649.642	8676.73
649.835	8818.04
650.027	8869.24
650.22	8926.58
650.413	8723.83
650.605	8719.74
650.798	8555.9
650.991	8754.55
651.183	8529.28
651.376	8496.51
651.568	8439.17
651.761	8422.78
651.954	8338.82
652.146	8267.14
652.339	8080.77
652.531	8129.92
652.724	8215.94
652.916	8140.16
653.109	8097.16
653.301	8273.28
653.494	8070.53
653.686	7921.03
653.879	8066.44
654.071	7787.91
654.263	7845.26
654.456	7740.81
654.648	7949.7
654.84	7742.86
655.033	7824.78
655.225	7529.87
655.417	7564.68
655.61	7765.39
655.802	7572.88
655.994	7658.89
656.186	7376.27
656.379	7517.58
656.571	7464.33
656.763	7316.88
656.955	7445.9
657.148	7452.05
657.34	7171.47
657.532	7196.05
657.724	7138.71
657.916	7118.23
658.108	7312.78
658.3	7167.38
658.492	6954.39
658.684	7001.49
658.876	7097.75
659.068	7064.98
659.26	6782.36
659.452	7073.17
659.644	6931.86
659.836	6825.37
660.028	7044.5
660.22	6602.14
660.412	6593.95
660.604	6739.35
660.796	6659.48
660.988	6620.57
661.18	6669.72
661.372	6569.37
661.563	6540.7
661.755	6419.87
661.947	6596
662.139	6509.98
662.331	6301.09
662.522	6428.06
662.714	6307.23
662.906	6299.04
663.097	6331.81
663.289	6311.33
663.481	6315.42
663.673	6270.37
663.864	6016.42
664.056	6149.54
664.247	6231.46
664.439	5934.5
664.631	6129.06
664.822	6157.73
665.014	5934.5
665.205	5885.35
665.397	5932.45
665.588	5828.01
665.78	5785
665.971	5889.45
666.163	5985.7
666.354	5993.89
666.546	5850.53
666.737	5844.39
666.929	5670.31
667.12	5785
667.311	5787.05
667.503	5672.36
667.694	5629.35
667.885	5707.18
668.077	5457.32
668.268	5576.11
668.459	5449.13
668.651	5490.09
668.842	5477.8
669.033	5545.39
669.224	5467.56
669.416	5531.05
669.607	5526.96
669.798	5363.12
669.989	5529
670.18	5311.92
670.371	5164.47
670.563	5539.24
670.754	5189.04
670.945	5332.4
671.136	5207.47
671.327	5148.08
671.518	5305.78
671.709	5262.77
671.9	5189.04
672.091	5105.07
672.282	5109.17
672.473	5068.21
672.664	5150.13
672.855	5154.23
673.046	5273.01
673.237	5256.62
673.428	5017.01
673.619	5174.71
673.809	5055.92
674	5068.21
674.191	4844.98
674.382	4935.09
674.573	4945.33
674.764	4961.72
674.954	4867.51
675.145	4867.51
675.336	4765.11
675.527	4939.19
675.717	4820.41
675.908	4801.97
676.099	4849.08
676.289	4881.85
676.48	4730.3
676.671	4724.15
676.861	4824.5
677.052	4634.04
677.243	4816.31
677.433	4812.21
677.624	4820.41
677.814	4734.39
678.005	4738.49
678.195	4658.62
678.386	4650.43
678.576	4496.83
678.767	4570.55
678.957	4552.12
679.148	4691.38
679.338	4736.44
679.529	4675
679.719	4640.19
679.909	4541.88
680.1	4650.43
680.29	4720.06
680.481	4582.84
680.671	4646.33
680.861	4718.01
681.052	4550.07
681.242	4609.47
681.432	4595.13
681.622	4550.07
681.813	4539.83
682.003	4574.65
682.193	4339.13
682.383	4492.73
682.573	4408.76
682.764	4441.53
682.954	4343.23
683.144	4423.1
683.334	4318.65
683.524	4550.07
683.714	4494.78
683.904	4304.32
684.094	4412.86
684.284	4326.85
684.474	4306.37
684.664	4320.7
684.854	4345.28
685.044	4376
685.234	4359.61
685.424	4298.17
685.614	4324.8
685.804	4294.08
685.994	4300.22
686.184	4253.12
686.374	4283.84
686.564	4265.41
686.753	4148.67
686.943	4177.34
687.133	4351.42
687.323	4189.63
687.513	4210.11
687.702	4111.81
687.892	3970.5
688.082	4019.65
688.272	4054.47
688.461	4027.84
688.651	4066.75
688.841	4031.94
689.03	3847.62
689.22	3853.77
689.41	3788.23
689.599	3921.35
689.789	3876.29
689.979	3794.37
690.168	3925.44
690.358	3816.9
690.547	3890.63
690.737	3804.61
690.926	3777.99
691.116	3663.3
691.305	3849.67
691.495	3780.04
691.684	3804.61
691.874	3554.76
692.063	3698.12
692.252	3675.59
692.442	3679.69
692.631	3536.33
692.82	3575.24
693.01	3558.86
693.199	3562.95
693.388	3458.51
693.578	3630.54
693.767	3571.15
693.956	3601.87
694.146	3456.46
694.335	3454.41
694.524	3446.22
694.713	3546.57
694.902	3468.75
695.092	3421.64
695.281	3446.22
695.47	3397.07
695.659	3376.59
695.848	3218.89
696.037	3397.07
696.226	3491.27
696.415	3364.3
696.604	3435.98
696.793	3274.19
696.982	3317.2
697.171	3458.51
697.36	3454.41
697.549	3161.55
697.738	3376.59
697.927	3290.57
698.116	3356.11
698.305	3237.33
698.494	3208.66
698.683	3296.72
698.872	3245.52
699.061	3247.57
699.25	3218.89
699.438	3175.89
699.627	3200.46
699.816	3272.14
700.005	3108.3
700.193	3294.67
700.382	3136.98
700.571	3233.23
700.76	3249.61
700.948	3182.03
701.137	3100.11
701.326	3075.54
701.514	3233.23
701.703	3030.48
701.892	3169.74
702.08	3173.84
702.269	3186.13
702.457	3036.63
702.646	3274.19
702.834	3112.4
703.023	3128.78
703.212	3196.37
703.4	3155.41
703.589	3030.48
703.777	3309.01
703.965	3087.82
704.154	3087.82
704.342	3073.49
704.531	3175.89
704.719	3081.68
704.907	3167.7
705.096	3161.55
705.284	3065.3
705.472	3089.87
705.661	2997.71
705.849	3167.7
706.037	3120.59
706.226	3124.69
706.414	3077.59
706.602	3053.01
706.79	3155.41
706.979	2995.67
707.167	3077.59
707.355	3089.87
707.543	3108.3
707.731	3198.42
707.919	3124.69
708.107	2977.23
708.296	3225.04
708.484	2966.99
708.672	2993.62
708.86	2979.28
709.048	3108.3
709.236	2950.61
709.424	3151.31
709.612	3055.06
709.8	2842.07
709.988	3034.58
710.176	3096.02
710.364	3141.07
710.551	3096.02
710.739	3016.15
710.927	2997.71
711.115	3005.91
711.303	2905.56
711.491	3057.11
711.679	2889.17
711.866	2956.75
712.054	3069.39
712.242	2954.71
712.43	3036.63
712.617	3055.06
712.805	2997.71
712.993	2921.94
713.181	2966.99
713.368	3053.01
713.556	2979.28
713.744	2909.65
713.931	3022.29
714.119	2938.32
714.306	3028.43
714.494	2987.47
714.682	2946.52
714.869	2975.19
715.057	2944.47
715.244	3038.67
715.432	2971.09
715.619	2909.65
715.807	2966.99
715.994	2983.38
716.182	2995.67
716.369	2923.99
716.556	3026.39
716.744	3028.43
716.931	2895.32
717.119	2928.08
717.306	2909.65
717.493	2987.47
717.681	2944.47
717.868	2893.27
718.055	3016.15
718.242	2995.67
718.43	3018.19
718.617	3016.15
718.804	2923.99
718.991	2889.17
719.179	3081.68
719.366	2905.56
719.553	3010
719.74	2948.56
719.927	3132.88
720.114	3014.1
720.301	2991.57
720.488	3005.91
720.676	2911.7
720.863	2999.76
721.05	3036.63
721.237	3010
721.424	2936.28
721.611	3065.3
721.798	3134.93
721.985	3065.3
722.172	2897.36
722.358	2876.88
722.545	3077.59
722.732	3053.01
722.919	2907.6
723.106	2878.93
723.293	2946.52
723.48	3044.82
723.667	3032.53
723.853	2891.22
724.04	2921.94
724.227	2936.28
724.414	2960.85
724.6	2938.32
724.787	3040.72
724.974	2979.28
725.161	2889.17
725.347	2786.77
725.534	2950.61
725.72	2895.32
725.907	2926.04
726.094	2966.99
726.28	2921.94
726.467	2999.76
726.653	2911.7
726.84	2928.08
727.027	2991.57
727.213	3067.35
727.4	2960.85
727.586	2989.52
727.773	3012.05
727.959	3028.43
728.145	2936.28
728.332	2938.32
728.518	3102.16
728.705	2940.37
728.891	2919.89
729.077	2874.84
729.264	2797.01
729.45	2899.41
729.636	3007.95
729.823	2950.61
730.009	2921.94
730.195	2856.4
730.382	2956.75
730.568	2897.36
730.754	2940.37
730.94	2936.28
731.126	2883.03
731.313	2973.14
731.499	2987.47
731.685	2880.98
731.871	2950.61
732.057	2952.66
732.243	2889.17
732.429	2938.32
732.615	3030.48
732.801	3050.96
732.987	2864.6
733.173	2823.64
733.359	2878.93
733.545	2969.04
733.731	2981.33
733.917	2971.09
734.103	2958.8
734.289	2995.67
734.475	2797.01
734.661	2964.95
734.847	2807.25
735.033	2921.94
735.219	2946.52
735.404	2921.94
735.59	2864.6
735.776	2817.49
735.962	2817.49
736.148	2936.28
736.333	2901.46
736.519	2883.03
736.705	2864.6
736.89	2917.84
737.076	2772.44
737.262	2792.92
737.447	2866.64
737.633	2835.92
737.819	2840.02
738.004	2776.53
738.19	2823.64
738.375	2758.1
738.561	2792.92
738.747	2815.45
738.932	2907.6
739.118	2840.02
739.303	2876.88
739.489	2848.21
739.674	2837.97
739.859	2700.76
740.045	2868.69
740.23	2782.68
740.416	2706.9
740.601	2706.9
740.786	2665.94
740.972	2614.74
741.157	2692.57
741.342	2606.55
741.528	2684.38
741.713	2807.25
741.898	2647.51
742.084	2797.01
742.269	2577.88
742.454	2790.87
742.639	2665.94
742.824	2575.83
743.01	2727.38
743.195	2682.33
743.38	2622.94
743.565	2618.84
743.75	2596.31
743.935	2575.83
744.12	2653.66
744.305	2633.18
744.49	2588.12
744.675	2500.06
744.86	2555.35
745.045	2545.11
745.23	2581.98
745.415	2418.14
745.6	2485.72
745.785	2469.34
745.97	2485.72
746.155	2500.06
746.34	2608.6
746.525	2354.65
746.71	2315.74
746.895	2420.19
747.079	2293.21
747.264	2422.24
747.449	2412
747.634	2291.17
747.819	2272.73
748.003	2371.04
748.188	2342.36
748.373	2280.93
748.557	2395.61
748.742	2350.56
748.927	2252.25
749.111	2235.87
749.296	2278.88
749.481	2336.22
749.665	2170.33
749.85	2147.81
750.034	2301.4
750.219	2203.1
750.404	2291.17
750.588	2145.76
750.773	1990.11
750.957	2065.89
751.141	2074.08
751.326	2168.29
751.51	2053.6
751.695	2043.36
751.879	2045.41
752.064	2012.64
752.248	1969.63
752.432	2024.93
752.617	1969.63
752.801	1951.2
752.985	2037.22
753.17	2020.83
753.354	1902.05
753.538	1863.14
753.722	1875.43
753.907	1908.19
754.091	1799.65
754.275	1813.99
754.459	1770.98
754.643	1725.93
754.828	1748.45
755.012	1803.75
755.196	1762.79
755.38	1766.89
755.564	1754.6
755.748	1781.22
755.932	1762.79
756.116	1803.75
756.3	1744.36
756.484	1662.44
756.668	1650.15
756.852	1506.79
757.036	1705.45
757.22	1609.19
757.404	1664.49
757.588	1562.09
757.772	1678.82
757.956	1592.81
758.14	1625.58
758.323	1474.03
758.507	1586.66
758.691	1480.17
758.875	1572.33
759.059	1543.66
759.242	1523.18
759.426	1543.66
759.61	1523.18
759.794	1420.78
759.977	1457.64
760.161	1560.04
760.345	1441.26
760.528	1455.59
760.712	1437.16
760.895	1455.59
761.079	1445.35
761.263	1269.23
761.446	1385.96
761.63	1351.15
761.813	1402.35
761.997	1381.87
762.18	1445.35
762.364	1312.24
762.547	1357.29
762.731	1400.3
762.914	1381.87
763.098	1394.15
763.281	1406.44
763.464	1365.48
763.648	1369.58
763.831	1304.04
764.015	1340.91
764.198	1365.48
764.381	1299.95
764.564	1312.24
764.748	1238.51
764.931	1357.29
765.114	1342.96
765.297	1250.8
765.481	1265.13
765.664	1316.33
765.847	1150.45
766.03	1377.77
766.213	1205.74
766.397	1269.23
766.58	1355.24
766.763	1156.59
766.946	1209.84
767.129	1203.69
767.312	1158.64
767.495	1191.41
767.678	1144.3
767.861	1127.92
768.044	1240.56
768.227	1269.23
768.41	1218.03
768.593	1140.21
768.776	1181.17
768.959	1089.01
769.142	1103.34
769.324	1160.69
769.507	1072.62
769.69	1117.68
769.873	1117.68
770.056	1121.77
770.239	1078.77
770.421	1117.68
770.604	1093.1
770.787	1039.86
770.97	1144.3
771.152	1058.29
771.335	1082.86
771.518	1035.76
771.7	1013.23
771.883	1060.34
772.066	1046
772.248	1037.81
772.431	1056.24
772.613	1050.1
772.796	1043.95
772.978	1046
773.161	1082.86
773.343	1046
773.526	1019.38
773.708	972.27
773.891	945.65
774.073	943.6
774.256	898.55
774.438	988.66
774.621	974.32
774.803	886.26
774.985	921.07
775.168	906.74
775.35	927.22
775.532	992.75
775.715	910.83
775.897	927.22
776.079	865.78
776.261	900.59
776.444	830.96
776.626	900.59
776.808	873.97
776.99	835.06
777.173	839.16
777.355	849.4
777.537	796.15
777.719	790
777.901	892.4
778.083	767.48
778.265	814.58
778.447	810.48
778.629	804.34
778.811	830.96
778.993	732.66
779.175	796.15
779.357	777.72
779.539	701.94
779.721	689.65
779.903	861.68
780.085	718.33
780.267	724.47
780.449	742.9
780.631	675.32
780.812	757.24
780.994	742.9
781.176	712.18
781.358	687.61
781.54	697.85
781.721	658.93
781.903	724.47
782.085	607.73
782.267	734.71
782.448	634.36
782.63	630.26
782.812	611.83
782.993	626.17
783.175	687.61
783.357	663.03
783.538	587.26
783.72	577.02
783.901	599.54
784.083	648.69
784.264	609.78
784.446	615.93
784.627	521.72
784.809	630.26
784.99	581.11
785.172	552.44
785.353	601.59
785.535	560.63
785.716	581.11
785.897	521.72
786.079	554.49
786.26	450.04
786.441	538.1
786.623	468.47
786.804	521.72
786.985	486.9
787.167	579.06
787.348	523.77
787.529	513.53
787.71	585.21
787.891	433.66
788.073	482.81
788.254	568.82
788.435	456.19
788.616	486.9
788.797	404.99
788.978	503.29
789.159	517.62
789.34	480.76
789.522	431.61
789.703	388.6
789.884	413.18
790.065	388.6
790.246	570.87
790.427	445.95
790.607	443.9
790.788	421.37
790.969	409.08
791.15	447.99
791.331	454.14
791.512	505.34
791.693	433.66
791.874	419.32
792.054	441.85
792.235	402.94
792.416	390.65
792.597	400.89
792.778	372.22
792.958	366.07
793.139	413.18
793.32	400.89
793.5	366.07
793.681	443.9
793.862	351.74
794.042	407.03
794.223	392.7
794.404	374.27
794.584	402.94
794.765	327.16
794.945	337.4
795.126	314.88
795.306	460.28
795.487	302.59
795.667	314.88
795.848	366.07
796.028	308.73
796.209	353.79
796.389	284.16
796.57	327.16
796.75	312.83
796.93	337.4
797.111	267.77
797.291	341.5
797.471	321.02
797.652	386.55
797.832	298.49
798.012	361.98
798.192	306.68
798.373	298.49
798.553	278.01
798.733	267.77
798.913	316.92
799.093	278.01
799.274	255.48
799.454	255.48
799.634	273.92
799.814	321.02
799.994	323.07
800.174	294.4
800.354	329.21
800.534	282.11
800.714	294.4
800.894	259.58
801.074	220.67
801.254	275.96
801.434	331.26
801.614	185.85
801.794	310.78
801.974	681.46
802.154	296.44
802.334	253.44
802.514	247.29
802.693	249.34
802.873	204.28
803.053	300.54
803.233	247.29
803.413	327.16
803.592	269.82
803.772	265.72
803.952	321.02
804.131	278.01
804.311	329.21
804.491	269.82
804.67	267.77
804.85	296.44
805.03	257.53
805.209	261.63
805.389	212.48
805.568	302.59
805.748	261.63
805.928	284.16
806.107	220.67
806.287	265.72
806.466	286.2
806.646	194.05
806.825	208.38
807.004	235
807.184	257.53
807.363	230.91
807.543	292.35
807.722	218.62
807.901	216.57
808.081	161.28
808.26	192
808.439	210.43
808.619	155.13
808.798	286.2
808.977	194.05
809.156	222.72
809.336	189.95
809.515	280.06
809.694	220.67
809.873	183.81
810.052	208.38
810.231	308.73
810.411	167.42
810.59	243.2
810.769	222.72
810.948	263.68
811.127	175.61
811.306	146.94
811.485	271.87
811.664	261.63
811.843	136.7
812.022	151.04
812.201	206.33
812.38	181.76
812.559	245.24
812.737	144.89
812.916	146.94
813.095	210.43
813.274	206.33
813.453	148.99
813.632	161.28
813.811	228.86
813.989	159.23
814.168	259.58
814.347	183.81
814.526	171.52
814.704	194.05
814.883	206.33
815.062	198.14
815.24	138.75
815.419	189.95
815.598	151.04
815.776	212.48
815.955	171.52
816.133	85.5
816.312	222.72
816.49	130.56
816.669	185.85
816.847	105.98
817.026	124.41
817.204	134.65
817.383	224.76
817.561	163.33
817.74	146.94
817.918	151.04
818.097	140.8
818.275	122.37
818.453	161.28
818.632	142.85
818.81	85.5
818.988	159.23
819.167	73.21
819.345	151.04
819.523	54.78
819.701	91.65
819.879	116.22
820.058	112.13
820.236	136.7
820.414	46.59
820.592	148.99
820.77	126.46
820.948	177.66
821.127	77.31
821.305	185.85
821.483	175.61
821.661	89.6
821.839	79.36
822.017	171.52
822.195	105.98
822.373	208.38
822.551	99.84
822.729	110.08
822.907	114.17
823.085	144.89
823.262	212.48
823.44	83.45
823.618	67.07
823.796	87.55
823.974	46.59
824.152	140.8
824.329	136.7
824.507	95.74
824.685	26.11
824.863	189.95
825.04	140.8
825.218	71.17
825.396	138.75
825.574	112.13
825.751	34.3
825.929	95.74
826.107	62.98
826.284	126.46
826.462	122.37
826.639	122.37
826.817	15.87
826.994	83.45
827.172	69.12
827.349	161.28
827.527	134.65
827.704	122.37
827.882	46.59
828.059	146.94
828.237	128.51
828.414	36.35
828.591	65.02
828.769	134.65
828.946	-0.51
829.124	79.36
829.301	126.46
829.478	138.75
829.655	128.51
829.833	75.26
830.01	46.59
830.187	138.75
830.364	62.98
830.542	44.54
830.719	151.04
830.896	52.74
831.073	75.26
831.25	151.04
831.427	126.46
831.604	67.07
831.782	54.78
831.959	97.79
832.136	118.27
832.313	58.88
832.49	9.73
832.667	85.5
832.844	163.33
833.021	81.41
833.198	52.74
833.374	85.5
833.551	79.36
833.728	134.65
833.905	65.02
834.082	32.26
834.259	87.55
834.436	79.36
834.612	60.93
834.789	103.93
834.966	48.64
835.143	60.93
835.319	-10.75
835.496	140.8
835.673	65.02
835.85	48.64
836.026	87.55
836.203	62.98
836.38	52.74
836.556	110.08
836.733	116.22
836.909	97.79
837.086	99.84
837.262	46.59
837.439	56.83
837.616	85.5
837.792	99.84
837.968	65.02
838.145	50.69
838.321	58.88
838.498	56.83
838.674	50.69
838.851	69.12
839.027	34.3
839.203	103.93
839.38	138.75
839.556	26.11
839.732	40.45
839.909	75.26
840.085	99.84
840.261	56.83
840.437	91.65
840.614	79.36
840.79	110.08
840.966	97.79
841.142	28.16
841.318	13.82
841.494	42.5
841.671	95.74
841.847	36.35
842.023	3.58
842.199	58.88
842.375	108.03
842.551	69.12
842.727	7.68
842.903	93.69
843.079	79.36
843.255	71.17
843.431	30.21
843.607	134.65
843.783	105.98
843.959	60.93
844.134	-18.94
844.31	124.41
844.486	34.3
844.662	67.07
844.838	44.54
845.013	85.5
845.189	75.26
845.365	38.4
845.541	56.83
845.716	17.92
845.892	89.6
846.068	11.78
846.244	3.58
846.419	99.84
846.595	34.3
846.77	-2.56
846.946	26.11
847.122	-0.51
847.297	-47.62
847.473	118.27
847.648	-25.09
847.824	30.21
847.999	-4.61
848.175	19.97
848.35	24.06
848.526	17.92
848.701	67.07
848.876	77.31
849.052	85.5
849.227	15.87
849.403	7.68
849.578	13.82
849.753	48.64
849.929	44.54
850.104	11.78
850.279	30.21
850.454	26.11
850.63	-0.51
850.805	11.78
850.98	42.5
851.155	11.78
851.33	28.16
851.505	15.87
851.681	54.78
851.856	32.26
852.031	44.54
852.206	-29.18
852.381	73.21
852.556	11.78
852.731	50.69
852.906	44.54
853.081	65.02
853.256	32.26
853.431	24.06
853.606	28.16
853.781	22.02
853.956	3.58
854.131	-31.23
854.305	44.54
854.48	48.64
854.655	9.73
854.83	-39.42
855.005	50.69
855.18	62.98
855.354	9.73
855.529	71.17
855.704	15.87
855.879	103.93
856.053	-51.71
856.228	19.97
856.403	-39.42
856.577	13.82
856.752	-14.85
856.926	-37.38
857.101	40.45
857.276	44.54
857.45	-47.62
857.625	56.83
857.799	32.26
857.974	11.78
858.148	13.82
858.323	-8.7
858.497	-20.99
858.672	67.07
858.846	-18.94
859.02	40.45
859.195	-35.33
859.369	13.82
859.543	60.93
859.718	38.4
859.892	9.73
860.066	34.3
860.241	42.5
860.415	-4.61
860.589	44.54
860.763	24.06
860.938	-31.23
861.112	30.21
861.286	36.35
861.46	-14.85
861.634	13.82
861.808	-8.7
861.982	44.54
862.157	67.07
862.331	-6.66
862.505	22.02
862.679	-18.94
862.853	85.5
863.027	-39.42
863.201	34.3
863.375	-23.04
863.549	52.74
863.722	24.06
863.896	17.92
864.07	-2.56
864.244	75.26
864.418	15.87
864.592	50.69
864.766	17.92
864.939	-78.33
865.113	22.02
865.287	-35.33
865.461	-20.99
865.634	-0.51
865.808	83.45
865.982	24.06
866.156	-6.66
866.329	-45.57
866.503	32.26
866.676	112.13
866.85	-18.94
867.024	7.68
867.197	-20.99
867.371	-66.05
867.544	48.64
867.718	-29.18
867.891	15.87
868.065	7.68
868.238	-0.51
868.412	36.35
868.585	3.58
868.759	-8.7
868.932	-29.18
869.105	36.35
869.279	11.78
869.452	19.97
869.625	1.54
869.799	48.64
869.972	-16.9
870.145	-8.7
870.319	24.06
870.492	-31.23
870.665	-4.61
870.838	11.78
871.011	-66.05
871.185	-37.38
871.358	-6.66
871.531	46.59
871.704	-82.43
871.877	-33.28
872.05	-4.61
872.223	-61.95
872.396	54.78
872.569	-31.23
872.742	-23.04
872.915	69.12
873.088	46.59
873.261	-39.42
873.434	-43.52
873.607	26.11
873.78	24.06
873.953	-35.33
874.126	-23.04
874.299	-16.9
874.471	-57.86
874.644	5.63
874.817	-41.47
874.99	-51.71
875.163	42.5
875.335	-33.28
875.508	-20.99
875.681	26.11
875.853	19.97
876.026	-84.48
876.199	3.58
876.371	65.02
876.544	42.5
876.717	-55.81
876.889	17.92
877.062	99.84
877.234	-20.99
877.407	17.92
877.579	-78.33
877.752	71.17
877.924	-33.28
878.097	7.68
878.269	-70.14
878.442	44.54
878.614	81.41
878.786	11.78
878.959	-12.8
879.131	-29.18
879.303	-29.18
879.476	-31.23
879.648	5.63
879.82	-31.23
879.993	-37.38
880.165	36.35
880.337	15.87
880.509	-8.7
880.681	22.02
880.854	-31.23
881.026	81.41
881.198	30.21
881.37	-53.76
881.542	15.87
881.714	11.78
881.886	-4.61
882.058	-29.18
882.23	19.97
882.402	-49.66
882.574	-33.28
882.746	22.02
882.918	-41.47
883.09	-37.38
883.262	-14.85
883.434	52.74
883.606	5.63
883.778	-8.7
883.95	17.92
884.122	-35.33
884.293	30.21
884.465	24.06
884.637	11.78
884.809	24.06
884.98	30.21
885.152	-66.05
885.324	19.97
885.496	-49.66
885.667	-41.47
885.839	-8.7
886.011	95.74
886.182	13.82
886.354	22.02
886.525	-0.51
886.697	15.87
886.869	-29.18
887.04	38.4
887.212	62.98
887.383	-35.33
887.555	9.73
887.726	-31.23
887.897	38.4
888.069	69.12
888.24	-41.47
888.412	83.45
888.583	13.82
888.754	5.63
888.926	-61.95
889.097	-64
889.268	5.63
889.44	-53.76
889.611	-41.47
889.782	-57.86
889.953	-31.23
890.125	65.02
890.296	-27.14
890.467	-51.71
890.638	22.02
890.809	-14.85
890.98	-27.14
891.151	112.13
891.323	-6.66
891.494	-43.52
891.665	26.11
891.836	15.87
892.007	-80.38
892.178	-10.75
892.349	-43.52
892.52	-4.61
892.691	-10.75
892.862	38.4
893.032	-94.72
893.203	-12.8
893.374	-29.18
893.545	-6.66
893.716	36.35
893.887	11.78
894.057	-20.99
894.228	-35.33
894.399	-0.51
894.57	42.5
894.74	22.02
894.911	-6.66
895.082	-47.62
895.253	-61.95
895.423	3.58
895.594	30.21
895.764	-53.76
895.935	19.97
896.106	-6.66
896.276	5.63
896.447	-47.62
896.617	19.97
896.788	-14.85
896.958	7.68
897.129	-61.95
897.299	-14.85
897.47	17.92
897.64	9.73
897.81	-43.52
897.981	22.02
898.151	11.78
898.322	28.16
898.492	-23.04
898.662	-51.71
898.832	-31.23
899.003	56.83
899.173	-70.14
899.343	-20.99
899.513	-20.99
