Data from USB4F104151__26__12-27-10-875.txt Node

Date: Fri Mar 14 12:27:10 EDT 2025
User: louis
Spectrometer: USB4F10415
Trigger mode: 4
Integration Time (sec): 2.000000E-2
Scans to average: 1
Electric dark correction enabled: true
Nonlinearity correction enabled: false
Boxcar width: 0
XAxis mode: Wavelengths
Number of Pixels in Spectrum: 3648
>>>>>Begin Spectral Data<<<<<
178.204	-55.98
178.424	-55.98
178.644	-55.98
178.864	-74.41
179.084	-45.74
179.304	-33.45
179.524	-23.21
179.744	-66.22
179.964	44.37
180.184	68.95
180.404	-8.87
180.624	58.71
180.844	56.66
181.064	-15.02
181.283	-12.97
181.503	-74.41
181.723	5.46
181.943	-78.51
182.163	77.14
182.383	44.37
182.602	101.72
182.822	64.85
183.042	7.51
183.262	-10.92
183.482	103.76
183.701	-8.87
183.921	15.7
184.141	34.13
184.361	50.52
184.58	-15.02
184.8	32.08
185.02	-19.11
185.239	32.08
185.459	-4.78
185.679	83.28
185.898	71
186.118	36.18
186.338	-10.92
186.557	25.94
186.777	-19.11
186.997	21.85
187.216	64.85
187.436	66.9
187.655	40.28
187.875	56.66
188.095	148.82
188.314	40.28
188.534	38.23
188.753	5.46
188.973	120.15
189.192	122.2
189.412	30.04
189.631	118.1
189.851	42.32
190.07	77.14
190.29	-2.73
190.509	5.46
190.729	19.8
190.948	101.72
191.168	142.68
191.387	99.67
191.607	1.37
191.826	-2.73
192.045	52.56
192.265	85.33
192.484	60.76
192.704	21.85
192.923	-17.07
193.142	42.32
193.362	40.28
193.581	77.14
193.8	19.8
194.02	105.81
194.239	25.94
194.458	36.18
194.678	-2.73
194.897	15.7
195.116	66.9
195.335	23.89
195.555	54.61
195.774	-4.78
195.993	-25.26
196.212	46.42
196.432	5.46
196.651	99.67
196.87	27.99
197.089	68.95
197.308	60.76
197.528	46.42
197.747	-2.73
197.966	25.94
198.185	62.8
198.404	-6.83
198.623	46.42
198.842	19.8
199.062	30.04
199.281	91.48
199.5	34.13
199.719	97.62
199.938	38.23
200.157	60.76
200.376	32.08
200.595	44.37
200.814	17.75
201.033	15.7
201.252	79.19
201.471	62.8
201.69	111.96
201.909	66.9
202.128	81.24
202.347	83.28
202.566	52.56
202.785	95.57
203.004	-55.98
203.223	105.81
203.442	85.33
203.661	54.61
203.879	5.46
204.098	124.24
204.317	32.08
204.536	103.76
204.755	46.42
204.974	91.48
205.193	128.34
205.411	36.18
205.63	46.42
205.849	107.86
206.068	-27.31
206.287	73.04
206.505	38.23
206.724	11.61
206.943	48.47
207.162	71
207.381	60.76
207.599	27.99
207.818	-4.78
208.037	77.14
208.255	75.09
208.474	38.23
208.693	71
208.911	44.37
209.13	19.8
209.349	42.32
209.567	-21.16
209.786	48.47
210.005	-8.87
210.223	36.18
210.442	48.47
210.661	97.62
210.879	-19.11
211.098	64.85
211.316	60.76
211.535	109.91
211.753	25.94
211.972	-10.92
212.191	19.8
212.409	-8.87
212.628	54.61
212.846	11.61
213.065	21.85
213.283	97.62
213.502	21.85
213.72	62.8
213.938	-0.68
214.157	77.14
214.375	11.61
214.594	9.56
214.812	68.95
215.031	36.18
215.249	48.47
215.467	71
215.686	-72.36
215.904	75.09
216.122	19.8
216.341	111.96
216.559	19.8
216.778	111.96
216.996	27.99
217.214	83.28
217.432	46.42
217.651	87.38
217.869	11.61
218.087	32.08
218.306	-0.68
218.524	64.85
218.742	-12.97
218.96	46.42
219.179	105.81
219.397	75.09
219.615	93.52
219.833	46.42
220.051	17.75
220.27	109.91
220.488	30.04
220.706	40.28
220.924	48.47
221.142	52.56
221.36	52.56
221.578	79.19
221.796	1.37
222.015	128.34
222.233	36.18
222.451	48.47
222.669	48.47
222.887	46.42
223.105	-4.78
223.323	77.14
223.541	-17.07
223.759	60.76
223.977	34.13
224.195	21.85
224.413	73.04
224.631	95.57
224.849	7.51
225.067	27.99
225.285	95.57
225.503	19.8
225.721	38.23
225.939	46.42
226.157	-19.11
226.375	101.72
226.592	-43.69
226.81	87.38
227.028	44.37
227.246	85.33
227.464	77.14
227.682	54.61
227.9	146.77
228.117	73.04
228.335	13.65
228.553	52.56
228.771	71
228.989	40.28
229.206	71
229.424	60.76
229.642	105.81
229.86	-53.93
230.077	54.61
230.295	19.8
230.513	34.13
230.731	54.61
230.948	42.32
231.166	95.57
231.384	34.13
231.601	-33.45
231.819	3.41
232.037	25.94
232.254	81.24
232.472	11.61
232.689	5.46
232.907	-25.26
233.125	87.38
233.342	-12.97
233.56	-49.83
233.777	64.85
233.995	114
234.213	87.38
234.43	54.61
234.648	52.56
234.865	52.56
235.083	48.47
235.3	50.52
235.518	42.32
235.735	3.41
235.953	48.47
236.17	27.99
236.388	13.65
236.605	40.28
236.822	73.04
237.04	54.61
237.257	79.19
237.475	11.61
237.692	32.08
237.909	75.09
238.127	58.71
238.344	44.37
238.562	97.62
238.779	-21.16
238.996	46.42
239.214	44.37
239.431	101.72
239.648	42.32
239.865	89.43
240.083	97.62
240.3	17.75
240.517	77.14
240.735	52.56
240.952	60.76
241.169	85.33
241.386	40.28
241.603	68.95
241.821	25.94
242.038	36.18
242.255	3.41
242.472	13.65
242.689	-6.83
242.907	-33.45
243.124	48.47
243.341	91.48
243.558	30.04
243.775	9.56
243.992	38.23
244.209	89.43
244.426	73.04
244.643	132.44
244.86	-6.83
245.078	54.61
245.295	46.42
245.512	32.08
245.729	15.7
245.946	-10.92
246.163	48.47
246.38	15.7
246.597	32.08
246.814	73.04
247.031	54.61
247.248	-6.83
247.464	27.99
247.681	93.52
247.898	48.47
248.115	56.66
248.332	34.13
248.549	109.91
248.766	46.42
248.983	27.99
249.2	91.48
249.417	60.76
249.633	54.61
249.85	116.05
250.067	11.61
250.284	58.71
250.501	40.28
250.717	66.9
250.934	9.56
251.151	44.37
251.368	50.52
251.585	52.56
251.801	-15.02
252.018	11.61
252.235	89.43
252.451	34.13
252.668	64.85
252.885	-23.21
253.102	50.52
253.318	83.28
253.535	83.28
253.752	73.04
253.968	142.68
254.185	60.76
254.401	40.28
254.618	40.28
254.835	-2.73
255.051	32.08
255.268	19.8
255.484	93.52
255.701	27.99
255.917	146.77
256.134	54.61
256.351	181.59
256.567	-25.26
256.784	64.85
257	17.75
257.217	71
257.433	5.46
257.65	58.71
257.866	34.13
258.082	56.66
258.299	73.04
258.515	99.67
258.732	21.85
258.948	13.65
259.165	75.09
259.381	95.57
259.597	5.46
259.814	-6.83
260.03	116.05
260.246	46.42
260.463	99.67
260.679	68.95
260.895	-10.92
261.112	-0.68
261.328	38.23
261.544	105.81
261.761	95.57
261.977	46.42
262.193	44.37
262.409	42.32
262.626	73.04
262.842	99.67
263.058	7.51
263.274	68.95
263.49	-10.92
263.707	54.61
263.923	11.61
264.139	-35.5
264.355	58.71
264.571	179.54
264.787	48.47
265.004	7.51
265.22	7.51
265.436	44.37
265.652	77.14
265.868	93.52
266.084	64.85
266.3	-15.02
266.516	-37.55
266.732	122.2
266.948	85.33
267.164	25.94
267.38	68.95
267.596	120.15
267.812	-25.26
268.028	13.65
268.244	64.85
268.46	25.94
268.676	30.04
268.892	93.52
269.108	77.14
269.324	56.66
269.54	64.85
269.756	50.52
269.972	1.37
270.188	17.75
270.403	15.7
270.619	97.62
270.835	42.32
271.051	25.94
271.267	17.75
271.483	62.8
271.698	81.24
271.914	48.47
272.13	105.81
272.346	64.85
272.562	21.85
272.777	107.86
272.993	73.04
273.209	44.37
273.425	56.66
273.64	71
273.856	75.09
274.072	32.08
274.287	52.56
274.503	87.38
274.719	81.24
274.934	109.91
275.15	5.46
275.366	91.48
275.581	30.04
275.797	40.28
276.012	85.33
276.228	34.13
276.444	46.42
276.659	50.52
276.875	13.65
277.09	62.8
277.306	42.32
277.521	75.09
277.737	93.52
277.952	-39.59
278.168	71
278.383	21.85
278.599	46.42
278.814	-15.02
279.03	15.7
279.245	3.41
279.461	48.47
279.676	62.8
279.892	-15.02
280.107	13.65
280.322	-17.07
280.538	30.04
280.753	95.57
280.969	120.15
281.184	97.62
281.399	9.56
281.615	52.56
281.83	95.57
282.045	40.28
282.26	91.48
282.476	-10.92
282.691	124.24
282.906	64.85
283.122	46.42
283.337	52.56
283.552	36.18
283.767	15.7
283.983	107.86
284.198	87.38
284.413	46.42
284.628	17.75
284.843	95.57
285.058	50.52
285.274	32.08
285.489	48.47
285.704	50.52
285.919	-12.97
286.134	36.18
286.349	126.29
286.564	-25.26
286.779	48.47
286.995	27.99
287.21	52.56
287.425	97.62
287.64	42.32
287.855	30.04
288.07	17.75
288.285	9.56
288.5	79.19
288.715	77.14
288.93	23.89
289.145	-4.78
289.36	46.42
289.575	-23.21
289.79	52.56
290.004	66.9
290.219	25.94
290.434	19.8
290.649	105.81
290.864	87.38
291.079	105.81
291.294	130.39
291.509	42.32
291.724	5.46
291.938	25.94
292.153	44.37
292.368	42.32
292.583	30.04
292.798	83.28
293.012	64.85
293.227	19.8
293.442	73.04
293.657	66.9
293.871	36.18
294.086	75.09
294.301	111.96
294.516	36.18
294.73	46.42
294.945	19.8
295.16	27.99
295.374	5.46
295.589	38.23
295.804	-15.02
296.018	30.04
296.233	48.47
296.447	107.86
296.662	1.37
296.877	13.65
297.091	66.9
297.306	66.9
297.52	52.56
297.735	36.18
297.949	81.24
298.164	120.15
298.378	-10.92
298.593	48.47
298.807	-0.68
299.022	87.38
299.236	60.76
299.451	44.37
299.665	105.81
299.88	54.61
300.094	34.13
300.309	107.86
300.523	9.56
300.737	-6.83
300.952	52.56
301.166	64.85
301.381	19.8
301.595	60.76
301.809	62.8
302.024	-4.78
302.238	32.08
302.452	103.76
302.667	42.32
302.881	97.62
303.095	60.76
303.309	107.86
303.524	7.51
303.738	-19.11
303.952	7.51
304.166	60.76
304.381	-25.26
304.595	68.95
304.809	-49.83
305.023	46.42
305.237	46.42
305.452	17.75
305.666	32.08
305.88	83.28
306.094	36.18
306.308	73.04
306.522	68.95
306.736	5.46
306.95	58.71
307.164	27.99
307.379	75.09
307.593	140.63
307.807	52.56
308.021	99.67
308.235	15.7
308.449	-10.92
308.663	23.89
308.877	89.43
309.091	-6.83
309.305	83.28
309.519	23.89
309.733	27.99
309.947	1.37
310.161	89.43
310.374	87.38
310.588	99.67
310.802	-8.87
311.016	-4.78
311.23	50.52
311.444	64.85
311.658	54.61
311.872	93.52
312.085	54.61
312.299	60.76
312.513	48.47
312.727	75.09
312.941	21.85
313.154	99.67
313.368	58.71
313.582	85.33
313.796	-17.07
314.009	27.99
314.223	81.24
314.437	-6.83
314.651	107.86
314.864	3.41
315.078	79.19
315.292	83.28
315.505	-2.73
315.719	99.67
315.933	32.08
316.146	89.43
316.36	87.38
316.573	54.61
316.787	52.56
317.001	58.71
317.214	34.13
317.428	75.09
317.641	27.99
317.855	-0.68
318.068	25.94
318.282	95.57
318.495	79.19
318.709	77.14
318.922	-17.07
319.136	116.05
319.349	5.46
319.563	38.23
319.776	23.89
319.99	-29.35
320.203	1.37
320.417	81.24
320.63	60.76
320.843	103.76
321.057	103.76
321.27	122.2
321.483	81.24
321.697	17.75
321.91	71
322.124	13.65
322.337	32.08
322.55	7.51
322.763	71
322.977	42.32
323.19	3.41
323.403	13.65
323.617	25.94
323.83	146.77
324.043	46.42
324.256	109.91
324.469	32.08
324.683	60.76
324.896	21.85
325.109	56.66
325.322	19.8
325.535	81.24
325.748	134.48
325.962	-43.69
326.175	46.42
326.388	44.37
326.601	75.09
326.814	-10.92
327.027	122.2
327.24	66.9
327.453	64.85
327.666	79.19
327.879	36.18
328.092	89.43
328.305	83.28
328.518	97.62
328.731	95.57
328.944	89.43
329.157	40.28
329.37	54.61
329.583	27.99
329.796	134.48
330.009	52.56
330.222	19.8
330.435	44.37
330.648	3.41
330.861	15.7
331.073	116.05
331.286	17.75
331.499	-31.4
331.712	50.52
331.925	44.37
332.138	21.85
332.35	64.85
332.563	50.52
332.776	-8.87
332.989	42.32
333.202	50.52
333.414	73.04
333.627	44.37
333.84	48.47
334.053	114
334.265	1.37
334.478	7.51
334.691	54.61
334.903	99.67
335.116	32.08
335.329	91.48
335.541	89.43
335.754	93.52
335.966	9.56
336.179	95.57
336.392	52.56
336.604	134.48
336.817	71
337.029	38.23
337.242	50.52
337.454	11.61
337.667	11.61
337.88	118.1
338.092	40.28
338.305	77.14
338.517	7.51
338.729	50.52
338.942	99.67
339.154	50.52
339.367	50.52
339.579	87.38
339.792	58.71
340.004	83.28
340.217	-23.21
340.429	15.7
340.641	91.48
340.854	19.8
341.066	-4.78
341.278	148.82
341.491	120.15
341.703	-0.68
341.915	7.51
342.128	38.23
342.34	66.9
342.552	40.28
342.764	64.85
342.977	27.99
343.189	56.66
343.401	27.99
343.613	23.89
343.826	91.48
344.038	40.28
344.25	1.37
344.462	42.32
344.674	-2.73
344.886	44.37
345.099	44.37
345.311	-53.93
345.523	81.24
345.735	-8.87
345.947	99.67
346.159	27.99
346.371	36.18
346.583	50.52
346.795	83.28
347.007	93.52
347.219	30.04
347.431	11.61
347.643	103.76
347.855	34.13
348.067	85.33
348.279	79.19
348.491	66.9
348.703	-10.92
348.915	99.67
349.127	71
349.339	165.2
349.551	40.28
349.763	-0.68
349.975	23.89
350.187	124.24
350.399	7.51
350.61	71
350.822	38.23
351.034	-39.59
351.246	1.37
351.458	75.09
351.669	79.19
351.881	89.43
352.093	48.47
352.305	81.24
352.517	25.94
352.728	15.7
352.94	21.85
353.152	91.48
353.363	136.53
353.575	111.96
353.787	93.52
353.999	116.05
354.21	105.81
354.422	42.32
354.633	-33.45
354.845	19.8
355.057	17.75
355.268	95.57
355.48	85.33
355.692	56.66
355.903	66.9
356.115	25.94
356.326	66.9
356.538	50.52
356.749	71
356.961	77.14
357.172	116.05
357.384	23.89
357.595	111.96
357.807	114
358.018	93.52
358.23	85.33
358.441	50.52
358.653	109.91
358.864	34.13
359.075	60.76
359.287	62.8
359.498	85.33
359.709	25.94
359.921	38.23
360.132	44.37
360.344	44.37
360.555	38.23
360.766	83.28
360.977	66.9
361.189	93.52
361.4	27.99
361.611	89.43
361.823	124.24
362.034	27.99
362.245	-8.87
362.456	7.51
362.667	62.8
362.879	87.38
363.09	15.7
363.301	66.9
363.512	99.67
363.723	42.32
363.935	44.37
364.146	71
364.357	122.2
364.568	122.2
364.779	-2.73
364.99	60.76
365.201	52.56
365.412	136.53
365.623	17.75
365.834	118.1
366.045	9.56
366.256	132.44
366.467	40.28
366.678	114
366.889	46.42
367.1	21.85
367.311	-8.87
367.522	79.19
367.733	68.95
367.944	77.14
368.155	52.56
368.366	142.68
368.577	71
368.788	144.72
368.999	91.48
369.209	60.76
369.42	77.14
369.631	93.52
369.842	73.04
370.053	52.56
370.264	107.86
370.474	73.04
370.685	54.61
370.896	-8.87
371.107	21.85
371.317	-6.83
371.528	40.28
371.739	95.57
371.95	38.23
372.16	60.76
372.371	27.99
372.582	64.85
372.792	118.1
373.003	36.18
373.214	34.13
373.424	62.8
373.635	56.66
373.846	44.37
374.056	46.42
374.267	7.51
374.477	73.04
374.688	54.61
374.898	120.15
375.109	52.56
375.319	54.61
375.53	66.9
375.74	25.94
375.951	128.34
376.161	79.19
376.372	87.38
376.582	62.8
376.793	32.08
377.003	11.61
377.214	58.71
377.424	103.76
377.635	107.86
377.845	32.08
378.055	116.05
378.266	48.47
378.476	101.72
378.686	34.13
378.897	44.37
379.107	89.43
379.317	25.94
379.528	-31.4
379.738	60.76
379.948	38.23
380.158	95.57
380.369	89.43
380.579	79.19
380.789	3.41
380.999	58.71
381.21	114
381.42	118.1
381.63	68.95
381.84	103.76
382.05	50.52
382.261	58.71
382.471	109.91
382.681	134.48
382.891	103.76
383.101	95.57
383.311	77.14
383.521	54.61
383.731	103.76
383.941	44.37
384.151	-2.73
384.361	62.8
384.571	116.05
384.781	99.67
384.991	60.76
385.201	101.72
385.411	105.81
385.621	40.28
385.831	75.09
386.041	75.09
386.251	93.52
386.461	109.91
386.671	-15.02
386.881	36.18
387.091	42.32
387.301	27.99
387.511	68.95
387.72	126.29
387.93	11.61
388.14	42.32
388.35	38.23
388.56	109.91
388.769	95.57
388.979	83.28
389.189	-68.27
389.399	66.9
389.609	73.04
389.818	114
390.028	44.37
390.238	58.71
390.447	62.8
390.657	107.86
390.867	136.53
391.076	-6.83
391.286	128.34
391.496	122.2
391.705	83.28
391.915	81.24
392.125	93.52
392.334	27.99
392.544	62.8
392.753	83.28
392.963	48.47
393.172	85.33
393.382	105.81
393.591	73.04
393.801	77.14
394.01	142.68
394.22	38.23
394.429	120.15
394.639	64.85
394.848	50.52
395.058	161.11
395.267	107.86
395.477	157.01
395.686	54.61
395.895	83.28
396.105	120.15
396.314	91.48
396.524	48.47
396.733	89.43
396.942	68.95
397.152	62.8
397.361	126.29
397.57	116.05
397.78	60.76
397.989	50.52
398.198	212.31
398.407	81.24
398.617	136.53
398.826	77.14
399.035	91.48
399.244	68.95
399.453	118.1
399.663	71
399.872	95.57
400.081	89.43
400.29	114
400.499	95.57
400.708	120.15
400.917	83.28
401.127	66.9
401.336	99.67
401.545	126.29
401.754	181.59
401.963	134.48
402.172	68.95
402.381	124.24
402.59	136.53
402.799	75.09
403.008	183.63
403.217	81.24
403.426	116.05
403.635	130.39
403.844	152.91
404.053	81.24
404.262	75.09
404.471	140.63
404.68	109.91
404.888	146.77
405.097	132.44
405.306	171.35
405.515	148.82
405.724	120.15
405.933	189.78
406.142	204.11
406.35	218.45
406.559	126.29
406.768	197.97
406.977	251.22
407.185	218.45
407.394	124.24
407.603	130.39
407.812	214.35
408.02	189.78
408.229	134.48
408.438	173.39
408.646	185.68
408.855	175.44
409.064	273.75
409.272	232.79
409.481	210.26
409.69	159.06
409.898	243.03
410.107	255.31
410.315	234.83
410.524	230.74
410.733	308.56
410.941	240.98
411.15	382.29
411.358	257.36
411.567	292.18
411.775	316.75
411.984	370
412.192	322.9
412.401	316.75
412.609	337.23
412.818	324.94
413.026	333.14
413.234	382.29
413.443	445.77
413.651	408.91
413.86	456.01
414.068	519.5
414.276	490.83
414.485	503.12
414.693	554.32
414.901	546.12
415.11	470.35
415.318	537.93
415.526	519.5
415.734	488.78
415.943	558.41
416.151	689.48
416.359	617.8
416.567	720.2
416.776	607.56
416.984	705.87
417.192	761.16
417.4	734.54
417.608	777.55
417.817	814.41
418.025	685.39
418.233	898.38
418.441	857.42
418.649	834.89
418.857	937.29
419.065	1027.4
419.273	988.49
419.481	1000.77
419.689	1043.78
419.897	1158.47
420.105	1127.75
420.313	1152.32
420.521	1187.14
420.729	1283.39
420.937	1262.91
421.145	1387.84
421.353	1301.83
421.561	1350.98
421.769	1439.04
421.977	1578.3
422.185	1477.95
422.393	1611.07
422.601	1645.88
422.809	1666.36
423.017	1649.98
423.224	1846.59
423.432	1844.54
423.64	1822.01
423.848	1973.56
424.056	1883.45
424.263	2047.29
424.471	2057.53
424.679	2178.36
424.887	2186.55
425.094	2315.57
425.302	2379.06
425.51	2428.21
425.718	2557.23
425.925	2608.43
426.133	2663.72
426.341	2774.31
426.548	2880.81
426.756	2854.19
426.964	2868.52
427.171	3069.22
427.379	3237.16
427.586	3267.88
427.794	3218.72
428.001	3357.99
428.209	3634.46
428.417	3517.73
428.624	3798.3
428.832	3888.41
429.039	3800.35
429.247	3761.44
429.454	4031.77
429.662	4338.96
429.869	4238.61
430.076	4474.13
430.284	4314.39
430.491	4441.36
430.699	4773.13
430.906	4908.3
431.114	4877.58
431.321	5076.23
431.528	5164.29
431.736	5397.76
431.943	5590.27
432.15	5498.11
432.358	5674.24
432.565	6003.96
432.772	5666.05
432.979	6106.36
433.187	6282.49
433.394	6155.51
433.601	6716.65
433.808	6907.12
434.016	6685.94
434.223	6892.78
434.43	7365.86
434.637	7120.1
434.844	7711.97
435.052	7886.04
435.259	7886.04
435.466	7859.42
435.673	7849.18
435.88	8504.53
436.087	8651.99
436.294	8656.08
436.501	8604.88
436.708	8592.59
436.915	9176.27
437.122	9458.88
437.329	9395.4
437.537	9835.71
437.743	9866.43
437.95	9972.93
438.157	10503.35
438.364	10646.71
438.571	10595.51
438.778	10749.11
438.985	11789.47
439.192	11109.55
439.399	11768.99
439.606	11584.68
439.813	11920.54
440.02	12848.27
440.227	12614.8
440.433	12715.16
440.64	13048.97
440.847	12899.47
441.054	12827.79
441.261	14118.01
441.467	13943.94
441.674	14150.78
441.881	14746.74
442.088	14713.97
442.294	14476.41
442.501	14939.25
442.708	15252.59
442.914	15899.75
443.121	16512.09
443.328	16163.93
443.534	17214.54
443.741	16780.37
443.948	16487.51
444.154	17591.37
444.361	17486.92
444.568	17792.07
444.774	17640.52
444.981	17945.67
445.187	18449.47
445.394	19041.33
445.6	19010.61
445.807	21058.58
446.013	19897.38
446.22	20409.37
446.426	21234.71
446.633	21222.42
446.839	21937.16
447.046	21154.83
447.252	22154.24
447.459	22172.67
447.665	22275.07
447.871	23290.87
448.078	24230.88
448.284	23106.55
448.491	23718.89
448.697	24667.1
448.903	25166.81
449.11	25152.47
449.316	24890.33
449.522	25433.04
449.728	25983.94
449.935	26465.22
450.141	26106.82
450.347	26749.89
450.553	25895.88
450.76	26452.93
450.966	27311.03
451.172	26995.64
451.378	27554.74
451.584	27091.9
451.791	27751.34
451.997	27534.26
452.203	28195.75
452.409	28296.1
452.615	28036.01
452.821	27069.37
453.027	26590.14
453.233	28230.57
453.44	27282.36
453.646	27151.29
453.852	27315.12
454.058	28052.39
454.264	26999.74
454.47	27843.5
454.676	26688.45
454.882	27792.3
455.088	25848.78
455.294	25910.22
455.5	26164.17
455.705	26489.79
455.911	25584.59
456.117	25146.33
456.323	24687.58
456.529	23454.7
456.735	24423.39
456.941	23710.7
457.147	23553.01
457.352	22627.32
457.558	22711.29
457.764	22742.01
457.97	21777.42
458.176	21519.37
458.381	21601.29
458.587	20614.17
458.793	20778.01
458.999	19565.61
459.204	20737.05
459.41	20223.01
459.616	18936.88
459.821	19145.78
460.027	18998.32
460.233	18500.67
460.438	17462.35
460.644	17886.28
460.85	16788.57
461.055	16841.81
461.261	16866.39
461.466	15457.39
461.672	14931.06
461.878	16286.81
462.083	15279.21
462.289	14795.89
462.494	14673.01
462.7	13956.22
462.905	13661.32
463.111	14015.62
463.316	14171.26
463.522	14075.01
463.727	14011.52
463.932	14019.71
464.138	13730.95
464.343	13943.94
464.549	13382.79
464.754	13708.42
464.959	13823.11
465.165	13755.52
465.37	13167.76
465.575	12629.14
465.781	13243.53
465.986	13235.34
466.191	12698.77
466.397	12600.47
466.602	11916.45
466.807	12358.81
467.012	12375.19
467.218	12305.56
467.423	12170.4
467.628	12391.58
467.833	12709.01
468.038	12391.58
468.244	11996.32
468.449	12487.83
468.654	11865.25
468.859	11820.19
469.064	11736.23
469.269	11463.85
469.474	11295.91
469.679	11768.99
469.885	11293.86
470.09	11426.98
470.295	11549.86
470.5	11254.95
470.705	11457.7
470.91	11027.63
471.115	10890.42
471.32	11033.77
471.525	11072.68
471.73	10749.11
471.935	10607.8
472.139	10491.06
472.344	10439.86
472.549	10478.77
472.754	10163.39
472.959	10104
473.164	9831.62
473.369	9766.08
473.574	10316.98
473.778	10173.63
473.983	10069.18
474.188	9940.16
474.393	9397.45
474.598	9284.81
474.802	9465.03
475.007	9544.9
475.212	9256.14
475.417	8934.6
475.621	8948.94
475.826	8987.85
476.031	8856.78
476.235	8602.83
476.44	8840.4
476.645	8639.7
476.849	8742.1
477.054	8553.68
477.259	8551.63
477.463	8342.74
477.668	8043.74
477.872	8193.24
478.077	8119.51
478.282	7918.81
478.486	8006.88
478.691	7881.95
478.895	7984.35
479.1	7810.27
479.304	7838.94
479.509	7730.4
479.713	7648.48
479.918	7576.8
480.122	7539.94
480.326	7695.58
480.531	7640.29
480.735	7400.68
480.94	7365.86
481.144	7568.61
481.348	7230.69
481.553	7392.48
481.757	7132.39
481.961	7382.24
482.166	7490.79
482.37	7367.91
482.574	7310.57
482.778	7337.19
482.983	7349.48
483.187	7441.64
483.391	7312.61
483.595	7306.47
483.8	7075.05
484.004	7283.94
484.208	7412.96
484.412	7290.09
484.616	7333.09
484.821	7412.96
485.025	7134.44
485.229	7453.92
485.433	7279.85
485.637	7322.85
485.841	7214.31
486.045	7091.43
486.249	7292.13
486.453	7249.13
486.657	7390.44
486.861	7415.01
487.065	7161.06
487.269	7204.07
487.473	7179.5
487.677	7265.51
487.881	7449.83
488.085	7234.79
488.289	7425.25
488.493	7253.22
488.697	7306.47
488.901	7425.25
489.105	7410.92
489.309	7429.35
489.512	7333.09
489.716	7453.92
489.92	7546.08
490.124	7437.54
490.328	7533.79
490.531	7380.2
490.735	7537.89
490.939	7580.9
491.143	7394.53
491.346	7548.13
491.55	7654.62
491.754	7673.06
491.958	7546.08
492.161	7621.86
492.365	7869.66
492.569	7519.46
492.772	7797.98
492.976	7761.12
493.18	7820.51
493.383	7961.82
493.587	7967.96
493.79	8023.26
493.994	8113.37
494.197	8078.55
494.401	8228.06
494.605	7994.59
494.808	8387.8
495.012	8391.89
495.215	8387.8
495.419	8449.24
495.622	8287.45
495.825	8449.24
496.029	8578.26
496.232	8801.49
496.436	8793.3
496.639	8883.41
496.843	8815.82
497.046	9139.4
497.249	8983.76
497.453	9235.66
497.656	9120.97
497.859	9245.9
498.063	9364.68
498.266	9538.76
498.469	9391.3
498.673	9495.75
498.876	9663.68
499.079	9471.17
499.282	9772.22
499.485	10118.33
499.689	9972.93
499.892	10425.53
500.095	10124.47
500.298	10607.8
500.501	10302.65
500.705	10468.53
500.908	10708.15
501.111	11160.75
501.314	11029.68
501.517	11011.25
501.72	11201.71
501.923	11187.37
502.126	11472.04
502.329	11664.55
502.532	11861.15
502.735	11728.03
502.938	12190.88
503.141	11928.74
503.344	12328.09
503.547	12395.67
503.75	12461.21
503.953	12592.28
504.156	12846.23
504.359	12942.48
504.562	13069.45
504.765	13270.15
504.968	13317.26
505.17	13448.33
505.373	13417.61
505.576	13921.41
505.779	13956.22
505.982	13712.52
506.185	14060.67
506.387	14201.98
506.59	14220.41
506.793	14617.72
506.996	14630.01
507.198	15142
507.401	15027.31
507.604	15305.84
507.807	15512.68
508.009	15561.83
508.212	15592.55
508.415	15936.61
508.617	16092.26
508.82	15971.43
509.022	15901.79
509.225	16641.11
509.428	16782.42
509.63	16661.59
509.833	16856.15
510.035	17159.25
510.238	17351.76
510.44	17534.03
510.643	17605.7
510.845	17521.74
511.048	17681.48
511.25	18086.98
511.453	17982.53
511.655	18658.36
511.858	18404.41
512.06	18521.15
512.262	18859.06
512.465	18834.49
512.667	19409.97
512.87	19397.68
513.072	19303.47
513.274	19885.09
513.477	19756.07
513.679	20241.44
513.881	20165.67
514.084	20466.72
514.286	20382.75
514.488	20667.42
514.69	21269.52
514.893	21304.34
515.095	21367.82
515.297	21556.24
515.499	21531.66
515.701	21769.23
515.904	22084.61
516.106	22316.03
516.308	22533.12
516.51	22877.18
516.712	22764.54
516.914	23094.26
517.116	23522.29
517.318	23321.59
517.52	23479.28
517.722	23591.92
517.925	24097.77
518.127	24558.56
518.329	24564.7
518.531	24396.77
518.733	24773.6
518.935	24853.47
519.136	25166.81
519.338	25304.02
519.54	25695.18
519.742	25801.68
519.944	25578.45
520.146	26393.54
520.348	26561.47
520.55	26317.76
520.752	26840
520.954	27073.46
521.155	27005.88
521.357	27300.79
521.559	27368.37
521.761	27808.68
521.963	27796.4
522.164	27917.23
522.366	28087.21
522.568	28576.67
522.77	28289.96
522.971	28883.87
523.173	28545.95
523.375	28949.4
523.576	28713.89
523.778	29055.9
523.98	29524.88
524.181	29686.67
524.383	29281.17
524.584	30034.83
524.786	29991.82
524.988	29780.88
525.189	30524.29
525.391	30544.77
525.592	30450.56
525.794	30735.23
525.995	30542.72
526.197	30808.96
526.398	30696.32
526.6	31024
526.801	31335.29
527.003	31492.98
527.204	31431.54
527.406	31568.76
527.607	31529.84
527.808	32246.63
528.01	31124.35
528.211	31724.4
528.412	32611.17
528.614	32398.18
528.815	32422.76
529.016	32559.97
529.218	32279.4
529.419	32328.55
529.62	32555.88
529.822	32418.66
530.023	32562.02
530.224	32541.54
530.425	32693.09
530.626	32504.68
530.828	32607.08
531.029	33188.7
531.23	33041.25
531.431	32861.02
531.632	32897.89
531.833	32981.85
532.035	33186.65
532.236	32783.2
532.437	33299.29
532.638	33196.89
532.839	33319.77
533.04	33272.67
533.241	33092.44
533.442	33688.4
533.643	33661.78
533.844	33669.97
534.045	33645.4
534.246	33520.47
534.447	33540.95
534.648	33282.91
534.849	33477.46
535.05	33588.05
535.251	33758.03
535.451	33661.78
535.652	33434.46
535.853	33571.67
536.054	33688.4
536.255	33635.16
536.456	33213.27
536.657	33981.26
536.857	33418.07
537.058	33235.8
537.259	33510.23
537.46	33330.01
537.66	33657.68
537.861	33622.87
538.062	33287
538.263	33747.79
538.463	33327.96
538.664	33246.04
538.865	33559.38
539.065	33749.84
539.266	33778.51
539.466	33778.51
539.667	33114.97
539.868	33946.45
540.068	33483.61
540.269	33485.65
540.469	33774.42
540.67	33295.19
540.87	33446.74
541.071	33301.34
541.271	33866.58
541.472	33491.8
541.672	33424.22
541.873	33719.12
542.073	33108.83
542.274	33733.46
542.474	33551.19
542.675	33024.86
542.875	33827.67
543.075	33395.54
543.276	33342.3
543.476	33639.25
543.676	33119.07
543.877	33657.68
544.077	33514.33
544.277	33477.46
544.478	33430.36
544.678	33805.14
544.878	33401.69
545.078	33733.46
545.279	33694.55
545.479	33477.46
545.679	33344.34
545.879	33352.54
546.079	33180.51
546.28	33246.04
546.48	33110.88
546.68	33452.89
546.88	33475.41
547.08	33452.89
547.28	33313.62
547.48	33268.57
547.68	33217.37
547.88	33352.54
548.081	33456.98
548.281	33211.23
548.481	33346.39
548.681	33471.32
548.881	33430.36
549.081	33237.85
549.28	33155.93
549.48	33475.41
549.68	33291.1
549.88	33772.37
550.08	33266.52
550.28	33262.43
550.48	33364.82
550.68	33639.25
550.88	33346.39
551.08	33325.91
551.279	33735.51
551.479	32994.14
551.679	33674.07
551.879	33377.11
552.079	33172.32
552.278	33035.1
552.478	33354.58
552.678	33100.64
552.878	33647.44
553.077	33082.2
553.277	32766.82
553.477	33620.82
553.676	32928.61
553.876	33229.66
554.076	32947.04
554.275	33155.93
554.475	33129.31
554.674	33243.99
554.874	33274.71
555.074	33135.45
555.273	33352.54
555.473	33131.36
555.672	32977.76
555.872	32801.63
556.071	33106.78
556.271	33096.54
556.47	32762.72
556.67	32693.09
556.869	32830.3
557.068	33119.07
557.268	33041.25
557.467	32858.98
557.667	32574.31
557.866	32901.98
558.065	32447.33
558.265	32639.84
558.464	32500.58
558.663	32783.2
558.863	32326.5
559.062	32959.33
559.261	32029.55
559.461	32875.36
559.66	31906.67
559.859	32498.53
560.058	32172.91
560.258	32670.56
560.457	32142.19
560.656	32318.31
560.855	32162.67
561.054	32588.64
561.253	32316.26
561.453	32148.33
561.652	32107.37
561.851	32076.65
562.05	31986.54
562.249	31673.2
562.448	31996.78
562.647	32191.34
562.846	31841.14
563.045	31736.69
563.244	31382.39
563.443	31949.68
563.642	31396.73
563.841	31509.36
564.04	31566.71
564.239	32099.18
564.438	31454.07
564.637	31947.63
564.836	31419.25
565.035	31228.79
565.234	30999.42
565.432	31212.41
565.631	30892.93
565.83	31480.69
566.029	31079.29
566.228	30868.35
566.427	30899.07
566.625	30974.84
566.824	30755.71
567.023	30905.21
567.222	30475.14
567.42	30892.93
567.619	30862.21
567.818	30720.9
568.016	30489.48
568.215	30894.97
568.414	30151.56
568.612	30516.1
568.811	30129.03
569.01	30108.55
569.208	30219.14
569.407	30372.74
569.605	29932.43
569.804	30311.3
570.002	29741.97
570.201	30063.5
570.4	29889.42
570.598	29715.34
570.797	29397.91
570.995	29406.1
571.193	29432.72
571.392	29612.95
571.59	29801.36
571.789	29471.64
571.987	29438.87
572.186	29203.35
572.384	29385.62
572.582	29189.02
572.781	29371.29
572.979	29129.62
573.177	29166.49
573.376	29150.1
573.574	28619.68
573.772	29189.02
573.971	28681.12
574.169	28793.76
574.367	28552.1
574.565	28722.08
574.763	28568.48
574.962	28754.85
575.16	28146.6
575.358	28418.98
575.556	28236.71
575.754	28767.13
575.952	28048.3
576.151	28361.64
576.349	27952.04
576.547	28064.68
576.745	28003.24
576.943	27902.89
577.141	27929.52
577.339	27763.63
577.537	27814.83
577.735	27526.07
577.933	27591.6
578.131	27593.65
578.329	27624.37
578.527	27128.76
578.725	27233.21
578.923	27452.34
579.121	27390.9
579.319	27235.25
579.516	27292.6
579.714	27161.53
579.912	27186.1
580.11	26975.16
580.308	27061.18
580.506	26753.98
580.704	26602.43
580.901	26710.97
581.099	26917.82
581.297	26870.72
581.495	26590.14
581.692	26870.72
581.89	26112.97
582.088	26520.51
582.285	26446.79
582.483	26700.73
582.681	26262.47
582.878	26446.79
583.076	26031.05
583.274	26528.7
583.471	25891.79
583.669	26008.52
583.866	25813.96
584.064	25897.93
584.262	25709.52
584.459	25990.09
584.657	25660.37
584.854	25791.44
585.052	25476.05
585.249	25588.69
585.447	25326.55
585.644	25357.27
585.841	25338.83
586.039	25437.14
586.236	25127.89
586.434	25142.23
586.631	25187.28
586.828	25011.16
587.026	24890.33
587.223	24873.95
587.42	24904.67
587.618	24620
587.815	24570.85
588.012	24490.98
588.21	24331.23
588.407	24548.32
588.604	24206.31
588.801	24318.95
588.999	24536.03
589.196	24525.79
589.393	24218.6
589.59	24466.4
589.787	24368.1
589.984	24013.8
590.182	23806.95
590.379	24398.82
590.576	23854.06
590.773	23907.3
590.97	23413.74
591.167	23589.87
591.364	23317.49
591.561	23735.28
591.758	23286.77
591.955	23624.68
592.152	23469.04
592.349	23315.44
592.546	23249.91
592.743	23299.06
592.94	23030.77
593.137	23223.28
593.334	23161.84
593.531	22533.12
593.727	22965.24
593.924	22948.86
594.121	22825.98
594.318	22817.79
594.515	22473.73
594.712	22879.22
594.908	22531.07
595.105	22465.53
595.302	22410.24
595.499	22471.68
595.696	22082.56
595.892	22369.28
596.089	22395.9
596.286	22113.28
596.482	22164.48
596.679	22170.63
596.876	22250.5
597.072	21914.63
597.269	21992.45
597.466	21584.91
597.662	21642.25
597.859	21898.25
598.055	21589
598.252	21363.73
598.448	21457.93
598.645	21197.84
598.841	21144.59
599.038	21341.2
599.234	21476.37
599.431	21201.94
599.627	21013.52
599.824	21187.6
600.02	21007.38
600.217	21068.82
600.413	20861.97
600.609	21140.5
600.806	20821.02
601.002	20786.2
601.198	20585.5
601.395	20587.55
601.591	20880.41
601.787	20911.13
601.984	20771.86
602.18	20689.95
602.376	20249.63
602.572	20208.67
602.769	20186.15
602.965	20026.4
603.161	20319.26
603.357	19950.63
603.553	19835.94
603.75	20253.73
603.946	19938.34
604.142	20063.27
604.338	19928.1
604.534	19852.33
604.73	19330.09
604.926	19430.44
605.122	19665.96
605.318	19383.34
605.514	19242.03
605.71	19424.3
605.906	19065.91
606.102	19393.58
606.298	19545.13
606.494	19387.44
606.69	19295.28
606.886	19266.61
607.082	19065.91
607.278	19170.35
607.474	18930.74
607.67	18889.78
607.866	18551.87
608.062	19196.98
608.257	18881.59
608.453	18926.64
608.649	18963.51
608.845	18691.13
609.041	18764.85
609.236	18932.79
609.432	18631.74
609.628	18631.74
609.824	18539.58
610.019	18406.46
610.215	18388.03
610.411	18320.45
610.606	18545.72
610.802	18353.21
610.998	18369.6
611.193	18406.46
611.389	18211.9
611.584	18275.39
611.78	18166.85
611.976	18302.01
612.171	18246.72
612.367	18240.57
612.562	18056.26
612.758	17790.02
612.953	17617.99
613.149	18205.76
613.344	17849.41
613.539	18320.45
613.735	17886.28
613.93	17902.66
614.126	17622.09
614.321	17941.57
614.517	18105.41
614.712	17626.18
614.907	17581.13
615.103	17787.97
615.298	17599.56
615.493	17658.95
615.688	17478.73
615.884	17923.14
616.079	17747.01
616.274	17370.19
616.47	17708.1
616.665	17495.11
616.86	17306.7
617.055	17624.14
617.25	17378.38
617.445	17646.66
617.641	16985.17
617.836	17359.95
618.031	17294.41
618.226	17241.17
618.421	17335.37
618.616	17169.49
618.811	16770.13
619.006	17099.86
619.201	16872.53
619.396	17083.47
619.591	16624.73
619.786	16880.72
619.981	16489.56
620.176	16823.38
620.371	16307.29
620.566	16643.16
620.761	16452.7
620.956	16618.58
621.151	16110.69
621.346	16393.31
621.541	16020.58
621.735	16407.64
621.93	15832.16
622.125	15875.17
622.32	15484.01
622.515	15957.09
622.709	15621.22
622.904	15850.6
623.099	15524.97
623.294	15664.23
623.488	15457.39
623.683	15350.89
623.878	15039.6
624.072	15400.04
624.267	15101.04
624.462	14834.8
624.656	14959.73
624.851	14916.72
625.046	14752.88
625.24	14957.68
625.435	14716.02
625.629	14582.9
625.824	14531.7
626.018	14449.78
626.213	14269.56
626.407	14390.39
626.602	14204.03
626.796	14191.74
626.991	14257.28
627.185	14107.77
627.38	14122.11
627.574	14036.1
627.768	13960.32
627.963	13655.17
628.157	13931.65
628.352	13593.73
628.546	13489.29
628.74	13786.24
628.935	13274.25
629.129	13337.74
629.323	13069.45
629.517	13085.84
629.712	12977.3
629.906	13079.69
630.1	13083.79
630.294	12993.68
630.489	12768.4
630.683	12835.99
630.877	12620.95
631.071	12516.5
631.265	12694.68
631.459	12422.3
631.653	12424.34
631.848	12364.95
632.042	12311.71
632.236	12129.44
632.43	12303.51
632.624	12264.6
632.818	12211.35
633.012	12051.61
633.206	11932.83
633.4	12170.4
633.594	11807.91
633.788	11793.57
633.982	11754.66
634.176	11803.81
634.369	11648.16
634.563	11705.51
634.757	11478.18
634.951	11601.06
635.145	11605.16
635.339	11418.79
635.533	11170.99
635.726	11396.26
635.92	11166.89
636.114	11365.54
636.308	10994.86
636.501	10962.09
636.695	10912.94
636.889	10779.82
637.083	10876.08
637.276	10704.05
637.47	10833.07
637.664	10761.39
637.857	10388.66
638.051	10669.23
638.244	10595.51
638.438	10646.71
638.632	10446.01
638.825	10161.34
639.019	10169.53
639.212	10310.84
639.406	10190.01
639.599	10271.93
639.793	10181.82
639.986	9891.01
640.18	9983.17
640.373	10124.47
640.567	9749.7
640.76	9899.2
640.954	9733.31
641.147	9690.31
641.34	9774.27
641.534	9583.81
641.727	9774.27
641.92	9553.09
642.114	9821.38
642.307	9553.09
642.5	9477.32
642.694	9520.32
642.887	9465.03
643.08	9563.33
643.273	9161.93
643.467	9211.08
643.66	9082.06
643.853	9245.9
644.046	8881.36
644.239	9067.72
644.432	8965.32
644.626	8893.65
644.819	8889.55
645.012	8979.66
645.205	8852.69
645.398	8711.38
645.591	8813.77
645.784	8987.85
645.977	8639.7
646.17	8754.38
646.363	8504.53
646.556	8512.72
646.749	8525.01
646.942	8541.4
647.135	8412.37
647.328	8467.67
647.521	8420.56
647.714	8193.24
647.907	8213.72
648.099	8209.62
648.292	8107.23
648.485	8176.86
648.678	7937.24
648.871	8060.12
649.064	8060.12
649.256	8125.66
649.449	7939.29
649.642	7974.11
649.835	7843.04
650.027	7730.4
650.22	7793.89
650.413	7804.13
650.605	7537.89
650.798	7607.52
650.991	7560.42
651.183	7593.19
651.376	7441.64
651.568	7617.76
651.761	7419.11
651.954	7515.36
652.146	7441.64
652.339	7415.01
652.531	7400.68
652.724	7296.23
652.916	6886.64
653.109	7204.07
653.301	7134.44
653.494	7277.8
653.686	7040.23
653.879	7089.39
654.071	7044.33
654.263	7009.51
654.456	7128.3
654.648	6880.49
654.84	6956.27
655.033	6864.11
655.225	6796.53
655.417	6757.61
655.61	6839.53
655.802	6786.29
655.994	6665.46
656.186	6718.7
656.379	6479.09
656.571	6515.95
656.763	6325.49
656.955	6462.71
657.148	6470.9
657.34	6489.33
657.532	6333.68
657.724	6454.51
657.916	6395.12
658.108	6284.53
658.3	6231.29
658.492	6286.58
658.684	6384.88
658.876	6167.8
659.068	6243.57
659.26	6325.49
659.452	6053.11
659.644	6034.68
659.836	6032.63
660.028	6137.08
660.22	5924.09
660.412	5817.6
660.604	6079.74
660.796	5938.43
660.988	5922.04
661.18	5848.32
661.372	5870.84
661.563	5889.28
661.755	5723.39
661.947	5838.08
662.139	5590.27
662.331	5502.21
662.522	5584.13
662.714	5557.5
662.906	5582.08
663.097	5664
663.289	5555.46
663.481	5514.5
663.673	5491.97
663.864	5321.99
664.056	5303.56
664.247	5412.1
664.439	5373.19
664.631	5434.63
664.822	5367.04
665.014	5317.89
665.205	5285.12
665.397	5190.92
665.588	5160.2
665.78	5059.85
665.971	5168.39
666.163	5088.52
666.354	5072.14
666.546	5051.66
666.737	5172.49
666.929	5039.37
667.12	5061.9
667.311	5002.51
667.503	4908.3
667.694	4949.26
667.885	5078.28
668.077	4932.87
668.268	4840.72
668.459	4920.59
668.651	4863.24
668.842	4713.74
669.033	4855.05
669.224	4730.13
669.416	4760.84
669.607	4721.93
669.798	4818.19
669.989	4699.41
670.18	4691.21
670.371	4701.45
670.563	4683.02
670.754	4707.6
670.945	4568.34
671.136	4791.56
671.327	4629.77
671.518	4482.32
671.709	4510.99
671.9	4629.77
672.091	4568.34
672.282	4568.34
672.473	4484.37
672.664	4523.28
672.855	4510.99
673.046	4447.51
673.237	4506.9
673.428	4408.59
673.619	4394.26
673.809	4367.63
674	4289.81
674.191	4519.18
674.382	4275.48
674.573	4302.1
674.764	4226.32
674.954	4269.33
675.145	4306.2
675.336	4406.55
675.527	4261.14
675.717	4171.03
675.908	4171.03
676.099	4255
676.289	4031.77
676.48	4218.13
676.671	4117.78
676.861	4291.86
677.052	4220.18
677.243	4130.07
677.433	4074.78
677.624	3958.04
677.814	4134.17
678.005	4068.63
678.195	3949.85
678.386	3974.42
678.576	3966.23
678.767	4070.68
678.957	4058.39
679.148	4062.49
679.338	3990.81
679.529	4039.96
679.719	3999
679.909	3923.23
680.1	4095.25
680.29	4050.2
680.481	3912.99
680.671	4005.14
680.861	3925.27
681.052	3908.89
681.242	3831.07
681.432	3964.18
681.622	3775.77
681.813	3689.76
682.003	3904.79
682.193	3837.21
682.383	3953.94
682.573	3767.58
682.764	3759.39
682.954	3777.82
683.144	3892.51
683.334	3716.38
683.524	3786.01
683.714	3765.53
683.904	3654.94
684.094	3755.29
684.284	3665.18
684.474	3667.23
684.664	3661.09
684.854	3722.52
685.044	3613.98
685.234	3652.89
685.424	3570.97
685.614	3642.65
685.804	3638.56
685.994	3728.67
686.184	3665.18
686.374	3622.17
686.564	3634.46
686.753	3618.08
686.943	3507.49
687.133	3470.62
687.323	3444
687.513	3476.77
687.702	3554.59
687.892	3464.48
688.082	3450.14
688.272	3398.95
688.461	3423.52
688.651	3405.09
688.841	3212.58
689.03	3339.55
689.22	3331.36
689.41	3319.07
689.599	3231.01
689.789	3218.72
689.979	3198.24
690.168	3235.11
690.358	3323.17
690.547	3261.73
690.737	3210.53
690.926	3202.34
691.116	3243.3
691.305	3099.94
691.495	3050.79
691.684	3165.48
691.874	3056.93
692.063	3231.01
692.252	3089.7
692.442	2995.5
692.631	3126.57
692.82	2999.59
693.01	2915.62
693.199	2989.35
693.388	3001.64
693.578	3104.04
693.767	2895.15
693.956	2872.62
694.146	2936.1
694.335	3044.65
694.524	2911.53
694.713	3009.83
694.902	2954.54
695.092	2815.27
695.281	2858.28
695.47	2872.62
695.659	2780.46
695.848	2907.43
696.037	2886.95
696.226	2827.56
696.415	2921.77
696.604	2913.58
696.793	2790.7
696.982	2827.56
697.171	2757.93
697.36	2759.98
697.549	2669.87
697.738	2733.36
697.927	2727.21
698.116	2608.43
698.305	2712.88
698.494	2708.78
698.683	2751.79
698.872	2784.55
699.061	2784.55
699.25	2688.3
699.438	2686.25
699.627	2747.69
699.816	2678.06
700.005	2757.93
700.193	2751.79
700.382	2667.82
700.571	2698.54
700.76	2604.33
700.948	2692.4
701.137	2616.62
701.326	2667.82
701.514	2573.61
701.703	2704.68
701.892	2661.68
702.08	2563.37
702.269	2710.83
702.457	2725.16
702.646	2676.01
702.834	2635.05
703.023	2549.04
703.212	2698.54
703.4	2571.57
703.589	2561.33
703.777	2661.68
703.965	2647.34
704.154	2436.4
704.342	2518.32
704.531	2590
704.719	2485.55
704.907	2684.2
705.096	2696.49
705.284	2606.38
705.472	2522.41
705.661	2559.28
705.849	2510.13
706.037	2637.1
706.226	2594.09
706.414	2600.24
706.602	2596.14
706.79	2555.18
706.979	2610.48
707.167	2508.08
707.355	2530.61
707.543	2618.67
707.731	2581.81
707.919	2508.08
708.107	2575.66
708.296	2592.05
708.484	2561.33
708.672	2598.19
708.86	2590
709.048	2534.7
709.236	2569.52
709.424	2528.56
709.612	2510.13
709.8	2432.3
709.988	2422.06
710.176	2616.62
710.364	2551.09
710.551	2583.85
710.739	2567.47
710.927	2497.84
711.115	2471.22
711.303	2510.13
711.491	2600.24
711.679	2454.83
711.866	2628.91
712.054	2549.04
712.242	2465.07
712.43	2540.85
712.617	2481.46
712.805	2528.56
712.993	2592.05
713.181	2503.98
713.368	2594.09
713.556	2420.02
713.744	2377.01
713.931	2516.27
714.119	2426.16
714.306	2526.51
714.494	2610.48
714.682	2501.94
714.869	2495.79
715.057	2528.56
715.244	2473.26
715.432	2506.03
715.619	2438.45
715.807	2549.04
715.994	2530.61
716.182	2540.85
716.369	2512.17
716.556	2577.71
716.744	2489.65
716.931	2456.88
717.119	2559.28
717.306	2561.33
717.493	2553.13
717.681	2598.19
717.868	2577.71
718.055	2454.83
718.242	2489.65
718.43	2579.76
718.617	2608.43
718.804	2417.97
718.991	2542.89
719.179	2514.22
719.366	2522.41
719.553	2635.05
719.74	2516.27
719.927	2565.42
720.114	2420.02
720.301	2657.58
720.488	2417.97
720.676	2512.17
720.863	2495.79
721.05	2450.74
721.237	2399.54
721.424	2485.55
721.611	2624.81
721.798	2549.04
721.985	2561.33
722.172	2532.65
722.358	2438.45
722.545	2542.89
722.732	2618.67
722.919	2512.17
723.106	2532.65
723.293	2561.33
723.48	2520.37
723.667	2514.22
723.853	2489.65
724.04	2487.6
724.227	2579.76
724.414	2403.63
724.6	2518.32
724.787	2510.13
724.974	2565.42
725.161	2518.32
725.347	2438.45
725.534	2460.98
725.72	2620.72
725.907	2544.94
726.094	2510.13
726.28	2512.17
726.467	2465.07
726.653	2428.21
726.84	2508.08
727.027	2526.51
727.213	2526.51
727.4	2577.71
727.586	2573.61
727.773	2512.17
727.959	2481.46
728.145	2538.8
728.332	2487.6
728.518	2469.17
728.705	2528.56
728.891	2524.46
729.077	2471.22
729.264	2424.11
729.45	2522.41
729.636	2561.33
729.823	2450.74
730.009	2546.99
730.195	2512.17
730.382	2684.2
730.568	2475.31
730.754	2520.37
730.94	2307.38
731.126	2575.66
731.313	2600.24
731.499	2475.31
731.685	2620.72
731.871	2522.41
732.057	2577.71
732.243	2514.22
732.429	2524.46
732.615	2489.65
732.801	2514.22
732.987	2571.57
733.173	2608.43
733.359	2602.29
733.545	2485.55
733.731	2559.28
733.917	2424.11
734.103	2624.81
734.289	2512.17
734.475	2622.77
734.661	2475.31
734.847	2604.33
735.033	2512.17
735.219	2503.98
735.404	2501.94
735.59	2442.54
735.776	2372.91
735.962	2399.54
736.148	2450.74
736.333	2481.46
736.519	2444.59
736.705	2524.46
736.89	2569.52
737.076	2473.26
737.262	2458.93
737.447	2508.08
737.633	2364.72
737.819	2473.26
738.004	2522.41
738.19	2364.72
738.375	2358.58
738.561	2465.07
738.747	2432.3
738.932	2405.68
739.118	2422.06
739.303	2342.19
739.489	2458.93
739.674	2377.01
739.859	2389.3
740.045	2452.78
740.23	2448.69
740.416	2420.02
740.601	2377.01
740.786	2405.68
740.972	2397.49
741.157	2299.19
741.342	2233.65
741.528	2301.23
741.713	2403.63
741.898	2325.81
742.084	2387.25
742.269	2268.47
742.454	2256.18
742.639	2317.62
742.824	2207.03
743.01	2166.07
743.195	2219.32
743.38	2235.7
743.565	2276.66
743.75	2280.75
743.935	2223.41
744.12	2325.81
744.305	2170.16
744.49	2223.41
744.675	2149.68
744.86	2217.27
745.045	2258.23
745.23	2055.48
745.415	2161.97
745.6	2075.96
745.785	2286.9
745.97	2151.73
746.155	2114.87
746.34	1994.04
746.525	2000.18
746.71	2112.82
746.895	2071.86
747.079	2161.97
747.264	2049.33
747.449	2149.68
747.634	2073.91
747.819	1932.6
748.003	1969.46
748.188	1969.46
748.373	2014.52
748.557	1944.89
748.742	1963.32
748.927	1979.7
749.111	1985.85
749.296	1836.35
749.481	1985.85
749.665	1862.97
749.85	1912.12
750.034	1936.7
750.219	1854.78
750.404	1819.96
750.588	1905.98
750.773	1797.43
750.957	1885.5
751.141	1885.5
751.326	1879.35
751.51	1752.38
751.695	1744.19
751.879	1731.9
752.064	1752.38
752.248	1668.41
752.432	1789.24
752.617	1760.57
752.801	1686.84
752.985	1787.19
753.17	1715.52
753.354	1713.47
753.538	1682.75
753.722	1750.33
753.907	1668.41
754.091	1699.13
754.275	1584.45
754.459	1596.73
754.643	1676.6
754.828	1629.5
755.012	1635.64
755.196	1492.29
755.38	1561.92
755.564	1557.82
755.748	1488.19
755.932	1523.01
756.116	1574.21
756.3	1449.28
756.484	1482.05
756.668	1461.57
756.852	1414.46
757.036	1484.09
757.22	1338.69
757.404	1430.85
757.588	1414.46
757.772	1510.72
757.956	1344.83
758.14	1389.89
758.323	1422.66
758.507	1357.12
758.691	1383.74
758.875	1418.56
759.059	1404.22
759.242	1295.68
759.426	1305.92
759.61	1355.07
759.794	1277.25
759.977	1293.63
760.161	1320.26
760.345	1353.02
760.528	1246.53
760.712	1273.15
760.895	1299.78
761.079	1318.21
761.263	1295.68
761.446	1154.37
761.63	1267.01
761.813	1246.53
761.997	1154.37
762.18	1209.67
762.364	1131.84
762.547	1168.71
762.731	1183.04
762.914	1123.65
763.098	1162.56
763.281	1217.86
763.464	1185.09
763.648	1041.73
763.831	1148.23
764.015	1185.09
764.198	1094.98
764.381	1168.71
764.564	1107.27
764.748	1224
764.931	1137.99
765.114	1135.94
765.297	1168.71
765.481	1133.89
765.664	1133.89
765.847	1137.99
766.03	1154.37
766.213	1082.69
766.397	1135.94
766.58	1068.36
766.763	1119.56
766.946	1023.3
767.129	1123.65
767.312	1099.08
767.495	1078.6
767.678	1119.56
767.861	1054.02
768.044	1008.97
768.227	1090.88
768.41	1125.7
768.593	1002.82
768.776	1092.93
768.959	963.91
769.142	1064.26
769.324	1043.78
769.507	1076.55
769.69	947.53
769.873	1021.25
770.056	978.25
770.239	1070.4
770.421	937.29
770.604	1019.21
770.787	824.65
770.97	990.53
771.152	884.04
771.335	855.37
771.518	1011.01
771.7	939.34
771.883	996.68
772.066	955.72
772.248	965.96
772.431	857.42
772.613	925
772.796	920.9
772.978	900.42
773.161	906.57
773.343	810.31
773.526	863.56
773.708	947.53
773.891	847.18
774.073	822.6
774.256	888.14
774.438	836.94
774.621	931.14
774.803	843.08
774.985	873.8
775.168	832.84
775.35	765.26
775.532	787.79
775.715	841.03
775.897	820.55
776.079	798.03
776.261	830.79
776.444	773.45
776.626	871.75
776.808	800.07
776.99	793.93
777.173	779.59
777.355	773.45
777.537	779.59
777.719	800.07
777.901	752.97
778.083	761.16
778.265	726.35
778.447	752.97
778.629	789.83
778.811	707.91
778.993	654.67
779.175	623.95
779.357	802.12
779.539	726.35
779.721	619.85
779.903	654.67
780.085	652.62
780.267	734.54
780.449	755.02
780.631	699.72
780.812	740.68
780.994	703.82
781.176	632.14
781.358	642.38
781.54	671.05
781.721	683.34
781.903	669
782.085	666.96
782.267	644.43
782.448	630.09
782.63	576.84
782.812	564.56
782.993	546.12
783.175	593.23
783.357	505.17
783.538	519.5
783.72	648.52
783.901	589.13
784.083	619.85
784.264	574.8
784.446	482.64
784.627	460.11
784.809	556.36
784.99	505.17
785.172	476.49
785.353	613.71
785.535	507.21
785.716	531.79
785.897	486.73
786.079	554.32
786.26	507.21
786.441	494.93
786.623	558.41
786.804	466.25
786.985	453.97
787.167	529.74
787.348	451.92
787.529	464.21
787.71	515.41
787.891	441.68
788.073	486.73
788.254	503.12
788.435	519.5
788.616	445.77
788.797	406.86
788.978	490.83
789.159	468.3
789.34	427.34
789.522	402.77
789.703	398.67
789.884	396.62
790.065	447.82
790.246	413.01
790.427	365.9
790.607	370
790.788	441.68
790.969	343.38
791.15	386.38
791.331	433.49
791.512	396.62
791.693	372.05
791.874	382.29
792.054	421.2
792.235	378.19
792.416	384.34
792.597	333.14
792.778	443.73
792.958	456.01
793.139	382.29
793.32	376.14
793.5	335.18
793.681	326.99
793.862	376.14
794.042	329.04
794.223	312.66
794.404	384.34
794.584	386.38
794.765	341.33
794.945	404.82
795.126	374.1
795.306	388.43
795.487	370
795.667	380.24
795.848	374.1
796.028	347.47
796.209	355.66
796.389	339.28
796.57	394.58
796.75	245.07
796.93	314.7
797.111	410.96
797.291	265.55
797.471	365.9
797.652	357.71
797.832	273.75
798.012	333.14
798.192	226.64
798.373	243.03
798.553	349.52
798.733	269.65
798.913	245.07
799.093	343.38
799.274	288.08
799.454	249.17
799.634	417.1
799.814	275.79
799.994	290.13
800.174	314.7
800.354	343.38
800.534	255.31
800.714	320.85
800.894	322.9
801.074	308.56
801.254	329.04
801.434	349.52
801.614	234.83
801.794	243.03
801.974	707.91
802.154	269.65
802.334	341.33
802.514	259.41
802.693	324.94
802.873	200.02
803.053	288.08
803.233	220.5
803.413	257.36
803.592	243.03
803.772	228.69
803.952	222.55
804.131	245.07
804.311	279.89
804.491	302.42
804.67	214.35
804.85	281.94
805.03	263.51
805.209	261.46
805.389	286.03
805.568	298.32
805.748	300.37
805.928	300.37
806.107	200.02
806.287	202.07
806.466	200.02
806.646	204.11
806.825	200.02
807.004	200.02
807.184	232.79
807.363	230.74
807.543	304.46
807.722	200.02
807.901	249.17
808.081	212.31
808.26	236.88
808.439	191.83
808.619	148.82
808.798	206.16
808.977	308.56
809.156	212.31
809.336	271.7
809.515	224.59
809.694	171.35
809.873	216.4
810.052	271.7
810.231	271.7
810.411	279.89
810.59	273.75
810.769	224.59
810.948	300.37
811.127	146.77
811.306	230.74
811.485	253.27
811.664	234.83
811.843	212.31
812.022	136.53
812.201	200.02
812.38	212.31
812.559	134.48
812.737	185.68
812.916	218.45
813.095	167.25
813.274	197.97
813.453	183.63
813.632	255.31
813.811	243.03
813.989	169.3
814.168	157.01
814.347	200.02
814.526	167.25
814.704	148.82
814.883	218.45
815.062	183.63
815.24	222.55
815.419	124.24
815.598	132.44
815.776	167.25
815.955	150.87
816.133	138.58
816.312	249.17
816.49	85.33
816.669	109.91
816.847	148.82
817.026	193.87
817.204	91.48
817.383	200.02
817.561	124.24
817.74	177.49
817.918	208.21
818.097	152.91
818.275	175.44
818.453	148.82
818.632	124.24
818.81	136.53
818.988	124.24
819.167	163.15
819.345	120.15
819.523	183.63
819.701	175.44
819.879	167.25
820.058	148.82
820.236	163.15
820.414	204.11
820.592	189.78
820.77	64.85
820.948	167.25
821.127	183.63
821.305	165.2
821.483	54.61
821.661	154.96
821.839	157.01
822.017	130.39
822.195	148.82
822.373	140.63
822.551	202.07
822.729	171.35
822.907	142.68
823.085	193.87
823.262	220.5
823.44	167.25
823.618	120.15
823.796	169.3
823.974	226.64
824.152	204.11
824.329	126.29
824.507	163.15
824.685	179.54
824.863	161.11
825.04	150.87
825.218	150.87
825.396	118.1
825.574	128.34
825.751	154.96
825.929	144.72
826.107	183.63
826.284	144.72
826.462	148.82
826.639	130.39
826.817	126.29
826.994	130.39
827.172	146.77
827.349	142.68
827.527	161.11
827.704	183.63
827.882	150.87
828.059	191.83
828.237	64.85
828.414	187.73
828.591	105.81
828.769	171.35
828.946	103.76
829.124	144.72
829.301	93.52
829.478	128.34
829.655	52.56
829.833	46.42
830.01	87.38
830.187	124.24
830.364	71
830.542	150.87
830.719	124.24
830.896	95.57
831.073	107.86
831.25	105.81
831.427	83.28
831.604	161.11
831.782	91.48
831.959	107.86
832.136	81.24
832.313	99.67
832.49	99.67
832.667	91.48
832.844	89.43
833.021	101.72
833.198	114
833.374	107.86
833.551	95.57
833.728	95.57
833.905	73.04
834.082	79.19
834.259	136.53
834.436	128.34
834.612	66.9
834.789	21.85
834.966	138.58
835.143	136.53
835.319	120.15
835.496	97.62
835.673	103.76
835.85	181.59
836.026	161.11
836.203	91.48
836.38	154.96
836.556	111.96
836.733	83.28
836.909	161.11
837.086	68.95
837.262	152.91
837.439	114
837.616	54.61
837.792	128.34
837.968	79.19
838.145	114
838.321	48.47
838.498	87.38
838.674	91.48
838.851	116.05
839.027	142.68
839.203	75.09
839.38	177.49
839.556	50.52
839.732	126.29
839.909	87.38
840.085	138.58
840.261	114
840.437	114
840.614	62.8
840.79	116.05
840.966	48.47
841.142	30.04
841.318	44.37
841.494	77.14
841.671	167.25
841.847	54.61
842.023	83.28
842.199	71
842.375	138.58
842.551	54.61
842.727	38.23
842.903	42.32
843.079	36.18
843.255	93.52
843.431	91.48
843.607	101.72
843.783	99.67
843.959	62.8
844.134	50.52
844.31	50.52
844.486	73.04
844.662	56.66
844.838	91.48
845.013	101.72
845.189	73.04
845.365	103.76
845.541	124.24
845.716	185.68
845.892	109.91
846.068	93.52
846.244	89.43
846.419	85.33
846.595	62.8
846.77	79.19
846.946	101.72
847.122	81.24
847.297	73.04
847.473	142.68
847.648	62.8
847.824	68.95
847.999	-2.73
848.175	81.24
848.35	1.37
848.526	144.72
848.701	93.52
848.876	30.04
849.052	142.68
849.227	64.85
849.403	46.42
849.578	111.96
849.753	1.37
849.929	91.48
850.104	52.56
850.279	19.8
850.454	23.89
850.63	154.96
850.805	124.24
850.98	27.99
851.155	75.09
851.33	71
851.505	38.23
851.681	99.67
851.856	46.42
852.031	60.76
852.206	148.82
852.381	36.18
852.556	77.14
852.731	83.28
852.906	66.9
853.081	62.8
853.256	83.28
853.431	25.94
853.606	44.37
853.781	23.89
853.956	116.05
854.131	71
854.305	42.32
854.48	62.8
854.655	36.18
854.83	42.32
855.005	42.32
855.18	118.1
855.354	1.37
855.529	46.42
855.704	-15.02
855.879	93.52
856.053	54.61
856.228	71
856.403	32.08
856.577	73.04
856.752	19.8
856.926	38.23
857.101	81.24
857.276	38.23
857.45	17.75
857.625	122.2
857.799	42.32
857.974	23.89
858.148	60.76
858.323	52.56
858.497	101.72
858.672	60.76
858.846	48.47
859.02	73.04
859.195	73.04
859.369	60.76
859.543	34.13
859.718	25.94
859.892	52.56
860.066	13.65
860.241	99.67
860.415	107.86
860.589	1.37
860.763	-21.16
860.938	50.52
861.112	85.33
861.286	103.76
861.46	101.72
861.634	-15.02
861.808	77.14
861.982	68.95
862.157	97.62
862.331	-4.78
862.505	30.04
862.679	1.37
862.853	11.61
863.027	9.56
863.201	77.14
863.375	-17.07
863.549	68.95
863.722	50.52
863.896	71
864.07	75.09
864.244	54.61
864.418	79.19
864.592	42.32
864.766	34.13
864.939	81.24
865.113	38.23
865.287	19.8
865.461	101.72
865.634	62.8
865.808	95.57
865.982	-12.97
866.156	58.71
866.329	93.52
866.503	42.32
866.676	71
866.85	34.13
867.024	58.71
867.197	38.23
867.371	-2.73
867.544	60.76
867.718	19.8
867.891	-0.68
868.065	50.52
868.238	34.13
868.412	46.42
868.585	56.66
868.759	11.61
868.932	66.9
869.105	56.66
869.279	19.8
869.452	79.19
869.625	21.85
869.799	60.76
869.972	126.29
870.145	71
870.319	56.66
870.492	73.04
870.665	99.67
870.838	11.61
871.011	23.89
871.185	-6.83
871.358	95.57
871.531	66.9
871.704	25.94
871.877	1.37
872.05	-10.92
872.223	30.04
872.396	-0.68
872.569	56.66
872.742	27.99
872.915	-0.68
873.088	64.85
873.261	36.18
873.434	58.71
873.607	3.41
873.78	36.18
873.953	-49.83
874.126	30.04
874.299	-2.73
874.471	44.37
874.644	-27.31
874.817	77.14
874.99	25.94
875.163	32.08
875.335	36.18
875.508	89.43
875.681	89.43
875.853	-55.98
876.026	-10.92
876.199	54.61
876.371	52.56
876.544	-10.92
876.717	17.75
876.889	-45.74
877.062	-17.07
877.234	-21.16
877.407	19.8
877.579	27.99
877.752	105.81
877.924	66.9
878.097	75.09
878.269	23.89
878.442	60.76
878.614	5.46
878.786	58.71
878.959	38.23
879.131	64.85
879.303	36.18
879.476	36.18
879.648	93.52
879.82	44.37
879.993	34.13
880.165	-0.68
880.337	19.8
880.509	-2.73
880.681	64.85
880.854	-0.68
881.026	56.66
881.198	79.19
881.37	71
881.542	85.33
881.714	52.56
881.886	-12.97
882.058	17.75
882.23	17.75
882.402	95.57
882.574	52.56
882.746	34.13
882.918	46.42
883.09	-35.5
883.262	52.56
883.434	27.99
883.606	27.99
883.778	42.32
883.95	101.72
884.122	56.66
884.293	54.61
884.465	30.04
884.637	52.56
884.809	-17.07
884.98	9.56
885.152	-0.68
885.324	44.37
885.496	-27.31
885.667	30.04
885.839	-27.31
886.011	85.33
886.182	25.94
886.354	62.8
886.525	54.61
886.697	77.14
886.869	13.65
887.04	91.48
887.212	40.28
887.383	27.99
887.555	36.18
887.726	-43.69
887.897	27.99
888.069	60.76
888.24	21.85
888.412	34.13
888.583	23.89
888.754	71
888.926	17.75
889.097	95.57
889.268	-23.21
889.44	30.04
889.611	-6.83
889.782	27.99
889.953	-17.07
890.125	68.95
890.296	-2.73
890.467	40.28
890.638	17.75
890.809	42.32
890.98	50.52
891.151	19.8
891.323	68.95
891.494	46.42
891.665	48.47
891.836	93.52
892.007	56.66
892.178	11.61
892.349	9.56
892.52	11.61
892.691	9.56
892.862	89.43
893.032	-58.03
893.203	9.56
893.374	54.61
893.545	27.99
893.716	36.18
893.887	27.99
894.057	77.14
894.228	40.28
894.399	107.86
894.57	42.32
894.74	30.04
894.911	40.28
895.082	66.9
895.253	30.04
895.423	-23.21
895.594	68.95
895.764	-23.21
895.935	17.75
896.106	144.72
896.276	-27.31
896.447	-6.83
896.617	3.41
896.788	32.08
896.958	52.56
897.129	81.24
897.299	71
897.47	42.32
897.64	81.24
897.81	93.52
897.981	27.99
898.151	68.95
898.322	101.72
898.492	32.08
898.662	-55.98
898.832	75.09
899.003	75.09
899.173	50.52
899.343	38.23
899.513	-15.02
