Data from USB4F104151__69__12-27-45-312.txt Node

Date: Fri Mar 14 12:27:45 EDT 2025
User: louis
Spectrometer: USB4F10415
Trigger mode: 4
Integration Time (sec): 2.000000E-2
Scans to average: 1
Electric dark correction enabled: true
Nonlinearity correction enabled: false
Boxcar width: 0
XAxis mode: Wavelengths
Number of Pixels in Spectrum: 3648
>>>>>Begin Spectral Data<<<<<
178.204	-77.65
178.424	-77.65
178.644	-77.65
178.864	-73.56
179.084	-75.6
179.304	-22.36
179.524	-8.02
179.744	-22.36
179.964	57.51
180.184	-22.36
180.404	53.42
180.624	12.46
180.844	-18.26
181.064	-67.41
181.283	10.41
181.503	-8.02
181.723	34.99
181.943	49.32
182.163	59.56
182.383	-61.27
182.602	84.14
182.822	61.61
183.042	-12.12
183.262	20.65
183.482	16.55
183.701	59.56
183.921	141.48
184.141	-10.07
184.361	-16.21
184.58	53.42
184.8	14.51
185.02	30.89
185.239	-14.17
185.459	-16.21
185.679	39.08
185.898	-14.17
186.118	65.71
186.338	45.23
186.557	63.66
186.777	14.51
186.997	59.56
187.216	57.51
187.436	41.13
187.655	32.94
187.875	51.37
188.095	14.51
188.314	139.43
188.534	100.52
188.753	37.03
188.973	18.6
189.192	43.18
189.412	-14.17
189.631	61.61
189.851	39.08
190.07	51.37
190.29	-8.02
190.509	24.75
190.729	37.03
190.948	55.47
191.168	96.43
191.387	16.55
191.607	6.31
191.826	45.23
192.045	34.99
192.265	61.61
192.484	4.27
192.704	-10.07
192.923	30.89
193.142	39.08
193.362	-28.5
193.581	39.08
193.8	-30.55
194.02	57.51
194.239	10.41
194.458	82.09
194.678	8.36
194.897	-16.21
195.116	8.36
195.335	53.42
195.555	6.31
195.774	18.6
195.993	61.61
196.212	59.56
196.432	4.27
196.651	22.7
196.87	18.6
197.089	69.8
197.308	51.37
197.528	37.03
197.747	22.7
197.966	-26.45
198.185	28.84
198.404	-8.02
198.623	65.71
198.842	37.03
199.062	41.13
199.281	47.27
199.5	53.42
199.719	10.41
199.938	67.75
200.157	59.56
200.376	-3.93
200.595	28.84
200.814	2.22
201.033	63.66
201.252	4.27
201.471	53.42
201.69	-5.97
201.909	10.41
202.128	-83.8
202.347	108.71
202.566	47.27
202.785	18.6
203.004	-10.07
203.223	137.38
203.442	-12.12
203.661	-51.03
203.879	-12.12
204.098	71.85
204.317	-10.07
204.536	114.86
204.755	53.42
204.974	6.31
205.193	133.29
205.411	94.38
205.63	32.94
205.849	8.36
206.068	-32.6
206.287	-10.07
206.505	22.7
206.724	30.89
206.943	-77.65
207.162	80.04
207.381	6.31
207.599	-3.93
207.818	90.28
208.037	-10.07
208.255	24.75
208.474	34.99
208.693	30.89
208.911	26.79
209.13	59.56
209.349	94.38
209.567	12.46
209.786	30.89
210.005	30.89
210.223	-32.6
210.442	-42.84
210.661	-10.07
210.879	6.31
211.098	20.65
211.316	32.94
211.535	32.94
211.753	-18.26
211.972	20.65
212.191	22.7
212.409	28.84
212.628	39.08
212.846	20.65
213.065	49.32
213.283	43.18
213.502	30.89
213.72	116.9
213.938	-16.21
214.157	77.99
214.375	14.51
214.594	-26.45
214.812	28.84
215.031	12.46
215.249	-14.17
215.467	26.79
215.686	43.18
215.904	41.13
216.122	49.32
216.341	0.17
216.559	24.75
216.778	82.09
216.996	49.32
217.214	86.19
217.432	-12.12
217.651	-16.21
217.869	-20.31
218.087	73.9
218.306	112.81
218.524	71.85
218.742	-16.21
218.96	8.36
219.179	6.31
219.397	32.94
219.615	96.43
219.833	47.27
220.051	-69.46
220.27	125.1
220.488	2.22
220.706	57.51
220.924	32.94
221.142	-3.93
221.36	28.84
221.578	-100.18
221.796	6.31
222.015	63.66
222.233	53.42
222.451	37.03
222.669	-14.17
222.887	65.71
223.105	8.36
223.323	39.08
223.541	-12.12
223.759	12.46
223.977	22.7
224.195	65.71
224.413	71.85
224.631	34.99
224.849	-26.45
225.067	51.37
225.285	22.7
225.503	41.13
225.721	24.75
225.939	90.28
226.157	45.23
226.375	39.08
226.592	12.46
226.81	41.13
227.028	-30.55
227.246	114.86
227.464	6.31
227.682	100.52
227.9	45.23
228.117	67.75
228.335	10.41
228.553	69.8
228.771	24.75
228.989	37.03
229.206	47.27
229.424	28.84
229.642	20.65
229.86	84.14
230.077	-61.27
230.295	77.99
230.513	55.47
230.731	106.67
230.948	-10.07
231.166	71.85
231.384	-1.88
231.601	10.41
231.819	75.95
232.037	20.65
232.254	0.17
232.472	2.22
232.689	-18.26
232.907	10.41
233.125	45.23
233.342	45.23
233.56	49.32
233.777	16.55
233.995	69.8
234.213	24.75
234.43	-1.88
234.648	96.43
234.865	26.79
235.083	69.8
235.3	6.31
235.518	-18.26
235.735	4.27
235.953	8.36
236.17	4.27
236.388	-40.79
236.605	77.99
236.822	43.18
237.04	90.28
237.257	49.32
237.475	10.41
237.692	26.79
237.909	82.09
238.127	90.28
238.344	-8.02
238.562	53.42
238.779	34.99
238.996	-22.36
239.214	121
239.431	106.67
239.648	43.18
239.865	71.85
240.083	104.62
240.3	16.55
240.517	18.6
240.735	49.32
240.952	-5.97
241.169	6.31
241.386	34.99
241.603	63.66
241.821	49.32
242.038	67.75
242.255	47.27
242.472	-3.93
242.689	69.8
242.907	6.31
243.124	8.36
243.341	37.03
243.558	-5.97
243.775	112.81
243.992	-3.93
244.209	-1.88
244.426	102.57
244.643	129.19
244.86	73.9
245.078	-8.02
245.295	43.18
245.512	43.18
245.729	12.46
245.946	-28.5
246.163	53.42
246.38	80.04
246.597	22.7
246.814	4.27
247.031	67.75
247.248	37.03
247.464	69.8
247.681	37.03
247.898	-5.97
248.115	84.14
248.332	-16.21
248.549	37.03
248.766	112.81
248.983	92.33
249.2	-3.93
249.417	49.32
249.633	24.75
249.85	102.57
250.067	43.18
250.284	49.32
250.501	-22.36
250.717	-1.88
250.934	22.7
251.151	127.14
251.368	67.75
251.585	47.27
251.801	32.94
252.018	41.13
252.235	-10.07
252.451	-32.6
252.668	-1.88
252.885	71.85
253.102	34.99
253.318	-3.93
253.535	98.47
253.752	10.41
253.968	8.36
254.185	2.22
254.401	108.71
254.618	39.08
254.835	6.31
255.051	125.1
255.268	32.94
255.484	55.47
255.701	4.27
255.917	24.75
256.134	51.37
256.351	77.99
256.567	-12.12
256.784	8.36
257	-3.93
257.217	59.56
257.433	94.38
257.65	80.04
257.866	67.75
258.082	65.71
258.299	39.08
258.515	10.41
258.732	57.51
258.948	65.71
259.165	0.17
259.381	61.61
259.597	57.51
259.814	-5.97
260.03	39.08
260.246	0.17
260.463	43.18
260.679	59.56
260.895	43.18
261.112	45.23
261.328	18.6
261.544	18.6
261.761	59.56
261.977	80.04
262.193	-65.36
262.409	-30.55
262.626	45.23
262.842	114.86
263.058	37.03
263.274	86.19
263.49	28.84
263.707	-1.88
263.923	-10.07
264.139	-77.65
264.355	12.46
264.571	32.94
264.787	32.94
265.004	73.9
265.22	-20.31
265.436	-32.6
265.652	37.03
265.868	16.55
266.084	32.94
266.3	-26.45
266.516	10.41
266.732	0.17
266.948	69.8
267.164	94.38
267.38	86.19
267.596	-22.36
267.812	65.71
268.028	10.41
268.244	20.65
268.46	32.94
268.676	26.79
268.892	118.95
269.108	14.51
269.324	53.42
269.54	6.31
269.756	73.9
269.972	34.99
270.188	57.51
270.403	32.94
270.619	-5.97
270.835	32.94
271.051	20.65
271.267	2.22
271.483	-38.74
271.698	37.03
271.914	123.05
272.13	59.56
272.346	30.89
272.562	-12.12
272.777	14.51
272.993	18.6
273.209	108.71
273.425	-46.93
273.64	80.04
273.856	26.79
274.072	10.41
274.287	20.65
274.503	-8.02
274.719	8.36
274.934	-18.26
275.15	63.66
275.366	14.51
275.581	10.41
275.797	34.99
276.012	-24.4
276.228	53.42
276.444	75.95
276.659	22.7
276.875	-12.12
277.09	59.56
277.306	6.31
277.521	-24.4
277.737	41.13
277.952	45.23
278.168	32.94
278.383	41.13
278.599	18.6
278.814	41.13
279.03	28.84
279.245	94.38
279.461	-5.97
279.676	94.38
279.892	80.04
280.107	32.94
280.322	71.85
280.538	6.31
280.753	39.08
280.969	59.56
281.184	16.55
281.399	100.52
281.615	-8.02
281.83	80.04
282.045	49.32
282.26	8.36
282.476	53.42
282.691	106.67
282.906	39.08
283.122	16.55
283.337	24.75
283.552	82.09
283.767	4.27
283.983	47.27
284.198	71.85
284.413	61.61
284.628	73.9
284.843	57.51
285.058	24.75
285.274	41.13
285.489	88.23
285.704	75.95
285.919	30.89
286.134	55.47
286.349	4.27
286.564	49.32
286.779	45.23
286.995	8.36
287.21	-38.74
287.425	-22.36
287.64	45.23
287.855	43.18
288.07	4.27
288.285	30.89
288.5	20.65
288.715	53.42
288.93	-8.02
289.145	43.18
289.36	34.99
289.575	69.8
289.79	49.32
290.004	116.9
290.219	37.03
290.434	65.71
290.649	30.89
290.864	-46.93
291.079	-3.93
291.294	24.75
291.509	65.71
291.724	41.13
291.938	77.99
292.153	92.33
292.368	12.46
292.583	-10.07
292.798	18.6
293.012	41.13
293.227	80.04
293.442	20.65
293.657	55.47
293.871	2.22
294.086	34.99
294.301	71.85
294.516	57.51
294.73	-8.02
294.945	28.84
295.16	16.55
295.374	26.79
295.589	12.46
295.804	-12.12
296.018	41.13
296.233	67.75
296.447	-65.36
296.662	-22.36
296.877	45.23
297.091	32.94
297.306	28.84
297.52	-10.07
297.735	0.17
297.949	98.47
298.164	80.04
298.378	28.84
298.593	61.61
298.807	82.09
299.022	51.37
299.236	12.46
299.451	2.22
299.665	20.65
299.88	-12.12
300.094	-5.97
300.309	2.22
300.523	-3.93
300.737	20.65
300.952	75.95
301.166	63.66
301.381	28.84
301.595	49.32
301.809	16.55
302.024	10.41
302.238	28.84
302.452	145.58
302.667	-59.22
302.881	94.38
303.095	-1.88
303.309	61.61
303.524	26.79
303.738	8.36
303.952	57.51
304.166	-10.07
304.381	-46.93
304.595	32.94
304.809	43.18
305.023	18.6
305.237	-34.64
305.452	34.99
305.666	20.65
305.88	59.56
306.094	84.14
306.308	39.08
306.522	41.13
306.736	65.71
306.95	59.56
307.164	22.7
307.379	80.04
307.593	55.47
307.807	88.23
308.021	43.18
308.235	45.23
308.449	6.31
308.663	-18.26
308.877	114.86
309.091	92.33
309.305	139.43
309.519	6.31
309.733	49.32
309.947	30.89
310.161	73.9
310.374	59.56
310.588	96.43
310.802	24.75
311.016	28.84
311.23	94.38
311.444	18.6
311.658	104.62
311.872	94.38
312.085	59.56
312.299	90.28
312.513	43.18
312.727	18.6
312.941	-18.26
313.154	110.76
313.368	2.22
313.582	96.43
313.796	-20.31
314.009	94.38
314.223	49.32
314.437	63.66
314.651	32.94
314.864	88.23
315.078	59.56
315.292	18.6
315.505	32.94
315.719	45.23
315.933	102.57
316.146	16.55
316.36	22.7
316.573	65.71
316.787	98.47
317.001	73.9
317.214	-51.03
317.428	41.13
317.641	59.56
317.855	-1.88
318.068	32.94
318.282	34.99
318.495	32.94
318.709	-32.6
318.922	108.71
319.136	41.13
319.349	49.32
319.563	14.51
319.776	67.75
319.99	51.37
320.203	84.14
320.417	102.57
320.63	65.71
320.843	71.85
321.057	2.22
321.27	47.27
321.483	39.08
321.697	63.66
321.91	-8.02
322.124	61.61
322.337	2.22
322.55	24.75
322.763	75.95
322.977	-16.21
323.19	-40.79
323.403	20.65
323.617	2.22
323.83	22.7
324.043	69.8
324.256	4.27
324.469	-12.12
324.683	59.56
324.896	-22.36
325.109	45.23
325.322	39.08
325.535	12.46
325.748	86.19
325.962	41.13
326.175	24.75
326.388	43.18
326.601	110.76
326.814	6.31
327.027	24.75
327.24	67.75
327.453	45.23
327.666	94.38
327.879	6.31
328.092	49.32
328.305	24.75
328.518	47.27
328.731	114.86
328.944	96.43
329.157	51.37
329.37	2.22
329.583	75.95
329.796	55.47
330.009	8.36
330.222	96.43
330.435	90.28
330.648	57.51
330.861	90.28
331.073	10.41
331.286	8.36
331.499	24.75
331.712	16.55
331.925	67.75
332.138	73.9
332.35	129.19
332.563	55.47
332.776	55.47
332.989	34.99
333.202	57.51
333.414	14.51
333.627	127.14
333.84	-59.22
334.053	26.79
334.265	4.27
334.478	14.51
334.691	73.9
334.903	106.67
335.116	69.8
335.329	63.66
335.541	2.22
335.754	55.47
335.966	84.14
336.179	61.61
336.392	45.23
336.604	-14.17
336.817	125.1
337.029	18.6
337.242	-8.02
337.454	98.47
337.667	75.95
337.88	90.28
338.092	67.75
338.305	112.81
338.517	59.56
338.729	34.99
338.942	123.05
339.154	18.6
339.367	-32.6
339.579	116.9
339.792	22.7
340.004	98.47
340.217	51.37
340.429	37.03
340.641	14.51
340.854	63.66
341.066	84.14
341.278	67.75
341.491	168.1
341.703	49.32
341.915	55.47
342.128	-22.36
342.34	-12.12
342.552	71.85
342.764	114.86
342.977	-1.88
343.189	59.56
343.401	45.23
343.613	28.84
343.826	43.18
344.038	14.51
344.25	127.14
344.462	6.31
344.674	47.27
344.886	34.99
345.099	116.9
345.311	65.71
345.523	123.05
345.735	-5.97
345.947	51.37
346.159	59.56
346.371	2.22
346.583	12.46
346.795	2.22
347.007	118.95
347.219	161.96
347.431	84.14
347.643	12.46
347.855	37.03
348.067	69.8
348.279	-26.45
348.491	22.7
348.703	77.99
348.915	63.66
349.127	-10.07
349.339	43.18
349.551	22.7
349.763	28.84
349.975	32.94
350.187	77.99
350.399	84.14
350.61	69.8
350.822	26.79
351.034	53.42
351.246	-16.21
351.458	59.56
351.669	22.7
351.881	-20.31
352.093	12.46
352.305	108.71
352.517	30.89
352.728	114.86
352.94	80.04
353.152	106.67
353.363	69.8
353.575	75.95
353.787	92.33
353.999	28.84
354.21	84.14
354.422	43.18
354.633	37.03
354.845	45.23
355.057	32.94
355.268	88.23
355.48	82.09
355.692	28.84
355.903	-14.17
356.115	-40.79
356.326	8.36
356.538	55.47
356.749	139.43
356.961	49.32
357.172	14.51
357.384	26.79
357.595	80.04
357.807	73.9
358.018	53.42
358.23	12.46
358.441	96.43
358.653	32.94
358.864	26.79
359.075	0.17
359.287	61.61
359.498	104.62
359.709	20.65
359.921	67.75
360.132	65.71
360.344	106.67
360.555	34.99
360.766	-3.93
360.977	98.47
361.189	51.37
361.4	12.46
361.611	102.57
361.823	80.04
362.034	51.37
362.245	8.36
362.456	80.04
362.667	55.47
362.879	73.9
363.09	90.28
363.301	100.52
363.512	80.04
363.723	-22.36
363.935	59.56
364.146	69.8
364.357	30.89
364.568	49.32
364.779	-83.8
364.99	88.23
365.201	-67.41
365.412	73.9
365.623	84.14
365.834	28.84
366.045	63.66
366.256	88.23
366.467	84.14
366.678	34.99
366.889	10.41
367.1	12.46
367.311	77.99
367.522	4.27
367.733	18.6
367.944	37.03
368.155	8.36
368.366	75.95
368.577	71.85
368.788	53.42
368.999	39.08
369.209	84.14
369.42	88.23
369.631	98.47
369.842	28.84
370.053	57.51
370.264	41.13
370.474	82.09
370.685	90.28
370.896	88.23
371.107	24.75
371.317	61.61
371.528	45.23
371.739	104.62
371.95	57.51
372.16	47.27
372.371	2.22
372.582	86.19
372.792	41.13
373.003	108.71
373.214	108.71
373.424	88.23
373.635	67.75
373.846	34.99
374.056	96.43
374.267	51.37
374.477	16.55
374.688	67.75
374.898	43.18
375.109	84.14
375.319	59.56
375.53	65.71
375.74	30.89
375.951	57.51
376.161	39.08
376.372	172.2
376.582	65.71
376.793	14.51
377.003	86.19
377.214	86.19
377.424	145.58
377.635	92.33
377.845	-24.4
378.055	63.66
378.266	71.85
378.476	47.27
378.686	-3.93
378.897	39.08
379.107	77.99
379.317	77.99
379.528	77.99
379.738	88.23
379.948	69.8
380.158	61.61
380.369	57.51
380.579	61.61
380.789	94.38
380.999	98.47
381.21	121
381.42	102.57
381.63	24.75
381.84	55.47
382.05	145.58
382.261	147.62
382.471	102.57
382.681	112.81
382.891	77.99
383.101	59.56
383.311	55.47
383.521	69.8
383.731	82.09
383.941	32.94
384.151	88.23
384.361	-8.02
384.571	45.23
384.781	34.99
384.991	14.51
385.201	125.1
385.411	116.9
385.621	26.79
385.831	98.47
386.041	73.9
386.251	121
386.461	73.9
386.671	47.27
386.881	92.33
387.091	90.28
387.301	90.28
387.511	61.61
387.72	55.47
387.93	90.28
388.14	69.8
388.35	127.14
388.56	53.42
388.769	57.51
388.979	82.09
389.189	12.46
389.399	61.61
389.609	14.51
389.818	116.9
390.028	94.38
390.238	41.13
390.447	8.36
390.657	123.05
390.867	82.09
391.076	77.99
391.286	129.19
391.496	125.1
391.705	57.51
391.915	98.47
392.125	104.62
392.334	43.18
392.544	82.09
392.753	59.56
392.963	110.76
393.172	37.03
393.382	73.9
393.591	137.38
393.801	37.03
394.01	114.86
394.22	108.71
394.429	118.95
394.639	55.47
394.848	110.76
395.058	172.2
395.267	77.99
395.477	61.61
395.686	26.79
395.895	94.38
396.105	80.04
396.314	174.25
396.524	73.9
396.733	69.8
396.942	164.01
397.152	77.99
397.361	157.86
397.57	51.37
397.78	133.29
397.989	168.1
398.198	194.73
398.407	170.15
398.617	137.38
398.826	188.58
399.035	55.47
399.244	141.48
399.453	178.34
399.663	151.72
399.872	221.35
400.081	73.9
400.29	90.28
400.499	133.29
400.708	139.43
400.917	157.86
401.127	75.95
401.336	73.9
401.545	182.44
401.754	135.34
401.963	219.3
402.172	28.84
402.381	82.09
402.59	151.72
402.799	166.06
403.008	178.34
403.217	151.72
403.426	211.11
403.635	186.54
403.844	114.86
404.053	67.75
404.262	192.68
404.471	190.63
404.68	135.34
404.888	114.86
405.097	178.34
405.306	223.4
405.515	180.39
405.724	196.78
405.933	176.3
406.142	196.78
406.35	172.2
406.559	235.69
406.768	233.64
406.977	229.54
407.185	235.69
407.394	225.45
407.603	245.93
407.812	260.26
408.02	196.78
408.229	280.74
408.438	213.16
408.646	221.35
408.855	262.31
409.064	342.18
409.272	274.6
409.481	276.65
409.69	315.56
409.898	225.45
410.107	311.46
410.315	383.14
410.524	420
410.733	389.28
410.941	338.09
411.15	422.05
411.358	346.28
411.567	436.39
411.775	426.15
411.984	481.44
412.192	477.35
412.401	444.58
412.609	495.78
412.818	532.64
413.026	495.78
413.234	583.84
413.443	600.23
413.651	596.13
413.86	583.84
414.068	575.65
414.276	669.86
414.485	596.13
414.693	698.53
414.901	753.82
415.11	749.73
415.318	751.78
415.526	780.45
415.734	792.73
415.943	868.51
416.151	850.08
416.359	874.65
416.567	905.37
416.776	927.9
416.984	1003.68
417.192	1054.87
417.4	991.39
417.608	1095.83
417.817	1067.16
418.025	1114.27
418.233	1274.01
418.441	1208.47
418.649	1298.58
418.857	1392.79
419.065	1353.88
419.273	1450.13
419.481	1491.09
419.689	1513.62
419.897	1618.07
420.105	1675.41
420.313	1792.14
420.521	1599.63
420.729	1736.85
420.937	1802.38
421.145	1812.62
421.353	1964.17
421.561	2080.91
421.769	2181.26
421.977	2195.59
422.185	2279.56
422.393	2341
422.601	2310.28
422.809	2427.01
423.017	2592.9
423.224	2597
423.432	2732.16
423.64	2615.43
423.848	2875.52
424.056	2863.23
424.263	3088.51
424.471	3088.51
424.679	3174.52
424.887	3369.08
425.094	3371.13
425.302	3395.7
425.51	3545.2
425.718	3725.43
425.925	3618.93
426.133	3876.98
426.341	4051.05
426.548	4167.79
426.756	4210.79
426.964	4239.47
427.171	4522.09
427.379	4573.28
427.586	4669.54
427.794	5017.69
428.001	5152.86
428.209	5314.65
428.417	5152.86
428.624	5415
428.832	5662.8
429.039	5627.99
429.247	5638.23
429.454	6230.09
429.662	6467.66
429.869	6142.03
430.076	6537.29
430.284	6533.19
430.491	6512.71
430.699	7065.66
430.906	7096.38
431.114	7245.88
431.321	7557.18
431.528	7665.72
431.736	8020.02
431.943	8525.86
432.15	8228.91
432.358	8306.73
432.565	8667.17
432.772	8529.96
432.979	9267.23
433.187	9318.43
433.394	9279.52
433.601	10002.45
433.808	9943.06
434.016	9789.46
434.223	10291.21
434.43	10926.08
434.637	10868.74
434.844	11327.49
435.052	11616.25
435.259	11571.19
435.466	11749.37
435.673	11636.73
435.88	12314.61
436.087	12949.48
436.294	13228
436.501	12728.3
436.708	12939.24
436.915	13531.1
437.122	14073.81
437.329	14069.72
437.537	14280.66
437.743	14841.8
437.95	14677.96
438.157	15540.16
438.364	15957.94
438.571	15800.25
438.778	16070.58
438.985	17360.8
439.192	16523.18
439.399	17336.23
439.606	16832.43
439.813	17979.29
440.02	18710.41
440.227	18522
440.433	18685.84
440.64	19179.4
440.847	19101.58
441.054	19386.24
441.261	20909.93
441.467	20395.89
441.674	20856.68
441.881	21831.52
442.088	21796.7
442.294	21380.96
442.501	22206.3
442.708	22576.98
442.914	23310.15
443.121	24151.87
443.328	23936.83
443.534	25429.8
443.741	24805.17
443.948	24256.31
444.154	26271.51
444.361	26169.12
444.568	26285.85
444.774	26296.09
444.981	26736.4
445.187	27311.88
445.394	28491.51
445.6	28317.43
445.807	31080.14
446.013	29257.45
446.22	30133.98
446.426	31356.62
446.633	31385.29
446.839	32585.4
447.046	31485.64
447.252	32753.33
447.459	33054.39
447.665	33085.11
447.871	34369.18
448.078	35759.75
448.284	34201.25
448.491	35239.57
448.697	36699.77
448.903	37238.39
449.11	37269.11
449.316	36841.08
449.522	37267.06
449.728	38338.15
449.935	38563.42
450.141	38682.2
450.347	39466.58
450.553	38151.78
450.76	38925.91
450.966	40207.94
451.172	39761.48
451.378	40818.24
451.584	40390.21
451.791	40560.19
451.997	40592.96
452.203	41600.56
452.409	41375.28
452.615	41934.38
452.821	39738.96
453.027	39689.81
453.233	41379.38
453.44	40017.48
453.646	40504.9
453.852	40738.37
454.058	41268.79
454.264	39775.82
454.47	40816.19
454.676	39536.21
454.882	41264.69
455.088	37699.18
455.294	38522.46
455.5	38862.43
455.705	39032.41
455.911	37752.43
456.117	37224.05
456.323	36580.99
456.529	34805.4
456.735	36066.95
456.941	35432.08
457.147	34455.2
457.352	33801.89
457.558	33140.4
457.764	33463.98
457.97	32732.86
458.176	32036.55
458.381	31876.8
458.587	30467.8
458.793	30633.69
458.999	28985.07
459.204	30879.44
459.41	29945.57
459.616	28110.59
459.821	28389.11
460.027	28110.59
460.233	27528.97
460.438	26173.21
460.644	26441.5
460.85	25265.96
461.055	24778.54
461.261	24938.29
461.466	23377.73
461.672	21995.36
461.878	23897.92
462.083	22351.7
462.289	21915.48
462.494	21749.6
462.7	20774.77
462.905	20230.01
463.111	20815.73
463.316	21006.19
463.522	20488.05
463.727	20383.6
463.932	20397.94
464.138	20250.49
464.343	20496.24
464.549	19939.19
464.754	20215.67
464.959	20256.63
465.165	19994.49
465.37	19316.61
465.575	18745.23
465.781	19695.49
465.986	19722.11
466.191	19107.72
466.397	18356.11
466.602	17688.48
466.807	18390.93
467.012	18522
467.218	18276.24
467.423	18007.96
467.628	18001.82
467.833	18575.25
468.038	18309.01
468.244	17782.68
468.449	18188.18
468.654	17928.09
468.859	17581.98
469.064	17598.37
469.269	16963.5
469.474	17168.29
469.679	17493.92
469.885	16809.9
470.09	17151.91
470.295	16900.01
470.5	16646.06
470.705	16877.48
470.91	16258.99
471.115	16185.27
471.32	16537.52
471.525	16314.29
471.73	15822.78
471.935	16025.53
472.139	15345.6
472.344	15687.61
472.549	15458.24
472.754	15413.18
472.959	15030.21
473.164	14745.55
473.369	14415.82
473.574	15210.43
473.778	14510.03
473.983	14696.39
474.188	14729.16
474.393	13950.93
474.598	14204.88
474.802	13998.04
475.007	13959.13
475.212	13672.41
475.417	13232.1
475.621	13314.02
475.826	13268.96
476.031	13242.34
476.235	12705.77
476.44	13174.75
476.645	12840.93
476.849	12699.62
477.054	12638.19
477.259	12707.82
477.463	12509.16
477.668	12253.17
477.872	12322.8
478.077	12173.3
478.282	11825.14
478.486	11808.76
478.691	11757.56
478.895	11487.23
479.1	11581.43
479.304	11466.75
479.509	11233.28
479.713	11522.04
479.918	11216.9
480.122	11102.21
480.326	11229.18
480.531	11364.35
480.735	11020.29
480.94	10944.52
481.144	11182.08
481.348	10874.88
481.553	10897.41
481.757	10622.98
481.961	10850.31
482.166	11010.05
482.37	10907.65
482.574	10831.88
482.778	10631.18
482.983	10870.79
483.187	10672.14
483.391	10819.59
483.595	10729.48
483.8	10762.25
484.004	10790.92
484.208	10897.41
484.412	10676.23
484.616	10797.06
484.821	10866.69
485.025	10690.57
485.229	10969.09
485.433	10516.49
485.637	10719.24
485.841	10528.78
486.045	10725.38
486.249	10813.45
486.453	10502.15
486.657	10831.88
486.861	10493.96
487.065	10557.45
487.269	10797.06
487.473	10489.87
487.677	10844.17
487.881	10690.57
488.085	10743.81
488.289	10913.8
488.493	10688.52
488.697	10915.84
488.901	11024.39
489.105	10856.45
489.309	10827.78
489.512	10813.45
489.716	10674.18
489.92	10809.35
490.124	10827.78
490.328	11120.64
490.531	10921.99
490.735	10997.76
490.939	10979.33
491.143	11229.18
491.346	10999.81
491.55	11210.75
491.754	11198.46
491.958	11313.15
492.161	11163.65
492.365	11188.22
492.569	11319.29
492.772	11415.55
492.976	11421.69
493.18	11534.33
493.383	11393.02
493.587	11376.64
493.79	11851.77
493.994	11677.69
494.197	11831.29
494.401	11915.25
494.605	11886.58
494.808	12113.91
495.012	12292.08
495.215	12118
495.419	12308.46
495.622	12152.82
495.825	12546.03
496.029	12574.7
496.232	12695.53
496.436	12613.61
496.639	13228
496.843	12853.22
497.046	13285.34
497.249	13338.59
497.453	13311.97
497.656	13625.31
497.859	13518.81
498.063	13617.11
498.266	14065.62
498.469	13918.17
498.673	14069.72
498.876	14360.53
499.079	14419.92
499.282	14583.76
499.485	14776.27
499.689	14706.63
499.892	15050.69
500.095	15130.56
500.298	15556.54
500.501	15202.24
500.705	15947.7
500.908	15931.32
501.111	16035.77
501.314	16316.34
501.517	16474.03
501.72	16672.68
501.923	16558
502.126	16990.12
502.329	17094.57
502.532	17135.53
502.735	17387.43
502.938	17655.71
503.141	17913.75
503.344	18024.34
503.547	18300.82
503.75	18280.34
503.953	18687.89
504.156	18806.67
504.359	19052.42
504.562	19199.88
504.765	19646.33
504.968	19707.77
505.17	19838.84
505.373	19871.61
505.576	20178.81
505.779	20795.25
505.982	20772.72
506.185	21225.32
506.387	21077.87
506.59	21303.14
506.793	21653.34
506.996	21620.58
507.198	22103.9
507.401	22038.36
507.604	22521.68
507.807	22746.96
508.009	23080.78
508.212	23058.25
508.415	23480.13
508.617	23744.32
508.82	23684.93
509.022	23633.73
509.225	24622.9
509.428	24534.84
509.63	24588.08
509.833	24557.36
510.035	25630.5
510.238	25259.82
510.44	25710.37
510.643	25992.99
510.845	26496.79
511.048	26048.29
511.25	26685.2
511.453	26758.93
511.655	27631.37
511.858	27383.56
512.06	27793.15
512.262	28135.17
512.465	27920.13
512.667	28184.32
512.87	28628.73
513.072	28892.91
513.274	29249.26
513.477	29654.76
513.679	29738.72
513.881	30054.11
514.084	30314.2
514.286	30340.83
514.488	30750.42
514.69	31467.21
514.893	31401.68
515.095	31491.79
515.297	32022.21
515.499	32233.15
515.701	32505.53
515.904	32886.45
516.106	33064.63
516.308	33240.75
516.51	33736.36
516.712	33285.81
516.914	34053.8
517.116	34535.07
517.318	34514.59
517.52	34938.52
517.722	35030.68
517.925	35749.51
518.127	36304.51
518.329	36337.28
518.531	35884.68
518.733	36875.9
518.935	37336.69
519.136	37031.54
519.338	37494.38
519.54	37619.31
519.742	37955.18
519.944	38172.26
520.146	38520.41
520.348	39245.4
520.55	38770.27
520.752	38882.91
520.954	39990.86
521.155	39163.48
521.357	40322.63
521.559	40529.47
521.761	40801.85
521.963	40865.34
522.164	41360.95
522.366	41354.8
522.568	41971.24
522.77	42051.11
522.971	42495.52
523.173	42544.67
523.375	42802.72
523.576	42685.98
523.778	42855.96
523.98	43597.33
524.181	43331.09
524.383	43435.54
524.584	44326.41
524.786	44174.86
524.988	43879.95
525.189	44172.81
525.391	44609.03
525.592	44946.94
525.794	45026.81
525.995	45133.31
526.197	45018.62
526.398	45460.98
526.6	46083.56
526.801	46253.54
527.003	46069.23
527.204	45995.5
527.406	46423.53
527.607	46515.68
527.808	46644.71
528.01	45874.67
528.211	46736.87
528.412	47586.77
528.614	47029.73
528.815	47265.24
529.016	47611.35
529.218	47666.64
529.419	47615.44
529.62	47850.96
529.822	47470.04
530.023	47941.07
530.224	48055.76
530.425	47904.21
530.626	47605.2
530.828	47341.02
531.029	48821.7
531.23	47760.85
531.431	48092.62
531.632	48235.98
531.833	48371.14
532.035	48948.67
532.236	48666.05
532.437	48874.94
532.638	48639.43
532.839	48725.44
533.04	48993.73
533.241	48201.16
533.442	49440.18
533.643	48621
533.844	48899.52
534.045	48897.47
534.246	48854.47
534.447	49540.53
534.648	48940.48
534.849	49300.92
535.05	48553.41
535.251	49053.12
535.451	48549.32
535.652	49487.29
535.853	48764.35
536.054	49135.04
536.255	49028.54
536.456	48788.93
536.657	49446.33
536.857	48817.6
537.058	48608.71
537.259	49182.14
537.46	49079.74
537.66	49065.41
537.861	49518.01
538.062	48989.63
538.263	49051.07
538.463	48965.06
538.664	48979.39
538.865	49186.24
539.065	49325.5
539.266	49010.11
539.466	49219
539.667	48174.54
539.868	49632.69
540.068	49296.83
540.269	48999.87
540.469	49257.92
540.67	49030.59
540.87	48774.59
541.071	49434.04
541.271	49026.49
541.472	49098.17
541.672	49063.36
541.873	48700.87
542.073	48326.09
542.274	49266.11
542.474	48575.94
542.675	48592.33
542.875	49243.58
543.075	48821.7
543.276	48846.27
543.476	49354.17
543.676	48704.96
543.877	48977.34
544.077	48633.28
544.277	49022.4
544.478	48428.49
544.678	48514.5
544.878	48930.24
545.078	49182.14
545.279	48844.23
545.479	48594.37
545.679	49034.69
545.879	48651.72
546.079	49155.52
546.28	49182.14
546.48	48655.81
546.68	48866.75
546.88	48852.42
547.08	48494.02
547.28	48723.4
547.48	48498.12
547.68	48920
547.88	48467.4
548.081	48735.68
548.281	48920
548.481	48319.95
548.681	49012.16
548.881	48899.52
549.081	48793.03
549.28	48555.46
549.48	48879.04
549.68	48547.27
549.88	48983.49
550.08	48178.64
550.28	48762.31
550.48	48240.07
550.68	48846.27
550.88	48498.12
551.08	48573.89
551.279	48965.06
551.479	48328.14
551.679	48344.52
551.879	48586.18
552.079	48879.04
552.278	48565.7
552.478	48360.9
552.678	48354.76
552.878	48321.99
553.077	48203.21
553.277	47879.63
553.477	48811.46
553.676	48375.24
553.876	48375.24
554.076	48563.65
554.275	48321.99
554.475	48070.09
554.674	48471.5
554.874	48399.82
555.074	48344.52
555.273	48235.98
555.473	48684.48
555.672	48162.25
555.872	48557.51
556.071	47953.36
556.271	48131.53
556.47	47601.11
556.67	47728.08
556.869	47642.07
557.068	48483.78
557.268	47615.44
557.467	47797.71
557.667	48000.46
557.866	47629.78
558.065	47674.84
558.265	47293.91
558.464	47234.52
558.663	48215.5
558.863	47037.92
559.062	47945.17
559.261	47060.44
559.461	47597.01
559.66	47011.29
559.859	47207.9
560.058	47019.49
560.258	47357.4
560.457	46912.99
560.656	47705.55
560.855	47009.25
561.054	47236.57
561.253	46671.33
561.453	47013.34
561.652	47044.06
561.851	47121.88
562.05	46646.75
562.249	46458.34
562.448	46546.4
562.647	46794.21
562.846	46634.47
563.045	46302.7
563.244	46335.46
563.443	46863.84
563.642	46167.53
563.841	46298.6
564.04	46112.24
564.239	46751.2
564.438	46106.09
564.637	45708.79
564.836	45932.01
565.035	45821.42
565.234	46214.63
565.432	45897.2
565.631	45583.86
565.83	46145
566.029	45209.08
566.228	45284.86
566.427	45368.82
566.625	45274.62
566.824	44692.99
567.023	45620.72
567.222	45106.68
567.42	45485.56
567.619	44975.61
567.818	44875.26
568.016	45102.59
568.215	45426.17
568.414	44877.31
568.612	44772.86
568.811	44865.02
569.01	44240.39
569.208	43841.04
569.407	44432.9
569.605	44051.98
569.804	44670.47
570.002	44021.26
570.201	44324.36
570.4	43931.15
570.598	43324.95
570.797	43609.62
570.995	43925
571.193	43255.32
571.392	44037.64
571.59	43054.62
571.789	43533.84
571.987	43222.55
572.186	43496.98
572.384	43144.73
572.582	43144.73
572.781	43003.42
572.979	42393.12
573.177	43050.52
573.376	42939.93
573.574	42403.36
573.772	42839.58
573.971	43025.95
574.169	42366.5
574.367	42436.13
574.565	42573.35
574.763	42407.46
574.962	42014.25
575.16	42038.83
575.358	42153.51
575.556	41213.49
575.754	42429.99
575.952	41557.55
576.151	41836.08
576.349	41305.65
576.547	41600.56
576.745	41479.73
576.943	41471.54
577.141	41197.11
577.339	40957.5
577.537	41147.96
577.735	40859.2
577.933	40642.11
578.131	40754.75
578.329	40959.55
578.527	40607.3
578.725	40560.19
578.923	40445.51
579.121	40449.6
579.319	40121.93
579.516	40427.07
579.714	40056.39
579.912	40019.53
580.11	39908.94
580.308	40281.67
580.506	39853.64
580.704	39190.1
580.901	39933.51
581.099	39730.76
581.297	39335.51
581.495	39446.1
581.692	40003.14
581.89	39302.74
582.088	39442
582.285	39276.12
582.483	39292.5
582.681	39036.5
582.878	38796.89
583.076	38665.82
583.274	38983.26
583.471	38385.25
583.669	38475.36
583.866	38057.57
584.064	38098.53
584.262	37932.65
584.459	38442.59
584.657	37826.15
584.854	38274.66
585.052	37359.22
585.249	38030.95
585.447	37871.21
585.644	37301.87
585.841	37406.32
586.039	37656.17
586.236	37125.75
586.434	37009.01
586.631	36951.67
586.828	36996.73
587.026	36951.67
587.223	36615.8
587.42	36894.33
587.618	36836.98
587.815	36419.2
588.012	36349.57
588.21	36542.08
588.407	36587.13
588.604	36265.6
588.801	36107.91
588.999	36109.96
589.196	35970.69
589.393	35929.73
589.59	35821.19
589.787	35616.4
589.984	35612.3
590.182	35075.73
590.379	35417.74
590.576	35380.88
590.773	34678.43
590.97	35159.7
591.167	34959
591.364	34827.93
591.561	34725.53
591.758	34821.78
591.955	34789.02
592.152	35147.41
592.349	34213.54
592.546	34490.01
592.743	34281.12
592.94	34143.91
593.137	34485.92
593.334	34492.06
593.531	33605.29
593.727	34231.97
593.924	33906.34
594.121	33785.51
594.318	33517.23
594.515	33003.19
594.712	33783.46
594.908	33162.93
595.105	33537.71
595.302	32825.01
595.499	33193.65
595.696	32784.05
595.892	32648.89
596.089	32921.27
596.286	32800.44
596.482	32456.38
596.679	32687.8
596.876	32618.17
597.072	32196.29
597.269	32732.86
597.466	31866.56
597.662	32073.41
597.859	32341.69
598.055	32243.39
598.252	31807.17
598.448	31862.47
598.645	31925.96
598.841	31573.7
599.038	31344.33
599.234	31592.14
599.431	31211.21
599.627	31254.22
599.824	31440.59
600.02	31217.36
600.217	31162.06
600.413	30981.84
600.609	30809.81
600.806	30621.4
601.002	31063.76
601.198	30324.44
601.395	30234.33
601.591	30127.84
601.787	30279.39
601.984	30131.93
602.18	30531.29
602.376	30322.4
602.572	29890.27
602.769	30131.93
602.965	29783.78
603.161	29925.09
603.357	29456.11
603.553	29533.93
603.75	29705.96
603.946	29310.7
604.142	29439.72
604.338	29341.42
604.534	29411.05
604.73	28993.26
604.926	28894.96
605.122	29003.5
605.318	28786.42
605.514	28393.21
605.71	28569.33
605.906	28722.93
606.102	28741.36
606.298	28823.28
606.494	28415.74
606.69	28376.83
606.886	28624.63
607.082	28268.28
607.278	28286.72
607.474	28065.53
607.67	28231.42
607.866	27533.06
608.062	27928.32
608.257	27549.45
608.453	27836.16
608.649	27858.69
608.845	27483.91
609.041	27465.48
609.236	27967.23
609.432	27518.73
609.628	27967.23
609.824	27612.93
610.019	27223.82
610.215	27420.42
610.411	27680.52
610.606	27068.17
610.802	27320.07
610.998	27160.33
611.193	27270.92
611.389	26924.82
611.584	26709.78
611.78	26789.65
611.976	26990.35
612.171	26967.82
612.367	26894.1
612.562	27037.45
612.758	26674.96
612.953	26773.27
613.149	26767.12
613.344	26468.12
613.539	26631.96
613.735	26591
613.93	26711.83
614.126	26408.73
614.321	26543.89
614.517	26527.51
614.712	26537.75
614.907	26154.78
615.103	26363.67
615.298	25990.94
615.493	26326.81
615.688	25876.26
615.884	26300.19
616.079	25732.9
616.274	26361.62
616.47	25812.77
616.665	26287.9
616.86	25607.97
617.055	25880.35
617.25	25677.6
617.445	26195.74
617.641	25503.53
617.836	25736.99
618.031	25536.29
618.226	25630.5
618.421	25179.95
618.616	25562.92
618.811	25265.96
619.006	25401.13
619.201	24641.33
619.396	25200.43
619.591	24686.39
619.786	24954.67
619.981	24532.79
620.176	24469.3
620.371	24385.33
620.566	24389.43
620.761	24532.79
620.956	24536.88
621.151	24065.85
621.346	24280.89
621.541	23576.39
621.735	23846.72
621.93	23490.37
622.125	23697.22
622.32	23379.78
622.515	23666.5
622.709	23121.74
622.904	23119.69
623.099	23283.53
623.294	22933.32
623.488	22742.86
623.683	22937.42
623.878	22361.94
624.072	22468.44
624.267	22579.03
624.462	22460.24
624.656	22148.95
624.851	22060.89
625.046	21956.44
625.24	21577.57
625.435	21831.52
625.629	21866.33
625.824	21356.39
626.018	21305.19
626.213	20920.17
626.407	21190.5
626.602	20754.29
626.796	21075.82
626.991	21159.78
627.185	20799.34
627.38	20504.43
627.574	20492.15
627.768	20668.27
627.963	20295.54
628.157	19873.66
628.352	20375.41
628.546	19814.27
628.74	20027.26
628.935	19767.17
629.129	19584.9
629.323	19373.96
629.517	19117.96
629.712	19431.3
629.906	19214.21
630.1	19120.01
630.294	19113.86
630.489	18925.45
630.683	19033.99
630.877	18683.79
631.071	18464.66
631.265	18720.65
631.459	18511.76
631.653	18536.34
631.848	18315.16
632.042	18440.08
632.236	18266
632.43	18102.17
632.624	18382.74
632.818	17776.54
633.012	17641.37
633.206	17676.19
633.4	17600.41
633.594	17313.7
633.788	17549.21
633.982	17309.6
634.176	17153.96
634.369	16902.06
634.563	17207.2
634.757	17285.03
634.951	17043.37
635.145	16969.64
635.339	17012.65
635.533	16566.19
635.726	16369.58
635.92	16209.84
636.114	16601.01
636.308	16271.28
636.501	16379.82
636.695	16203.7
636.889	15959.99
637.083	16062.39
637.276	15959.99
637.47	15802.3
637.664	15882.17
637.857	15955.9
638.051	15812.54
638.244	15382.46
638.438	15398.85
638.632	15595.45
638.825	15337.41
639.019	14954.44
639.212	14903.24
639.406	15181.76
639.599	14837.7
639.793	14790.6
639.986	14675.91
640.18	15009.73
640.373	14727.11
640.567	14462.93
640.76	14569.42
640.954	14372.82
641.147	14309.33
641.34	14204.88
641.534	14215.12
641.727	14260.18
641.92	14198.74
642.114	14327.76
642.307	13955.03
642.5	14071.76
642.694	13705.18
642.887	13680.6
643.08	13778.9
643.273	13570.01
643.467	13535.2
643.66	13635.55
643.853	13457.37
644.046	13541.34
644.239	13207.52
644.432	13131.75
644.626	13193.19
644.819	12931.05
645.012	13039.59
645.205	12959.72
645.398	12781.54
645.591	12750.82
645.784	12724.2
645.977	12681.19
646.17	12759.02
646.363	12615.66
646.556	12441.58
646.749	12361.71
646.942	12398.57
647.135	12156.91
647.328	12074.99
647.521	12310.51
647.714	11952.12
647.907	12230.64
648.099	11855.86
648.292	11902.97
648.485	11859.96
648.678	11812.85
648.871	11532.28
649.064	11743.22
649.256	11761.66
649.449	11626.49
649.642	11497.47
649.835	11380.73
650.027	11311.1
650.22	11075.59
650.413	11171.84
650.605	11231.23
650.798	10991.62
650.991	11016.19
651.183	10944.52
651.376	10811.4
651.568	10944.52
651.761	10723.34
651.954	10749.96
652.146	10760.2
652.339	10627.08
652.531	10532.87
652.724	10336.27
652.916	10319.89
653.109	10266.64
653.301	10416.14
653.494	10395.66
653.686	10209.29
653.879	10311.69
654.071	10143.76
654.263	9914.39
654.456	10186.77
654.648	10133.52
654.84	9953.3
655.033	10131.47
655.225	9832.47
655.417	9840.66
655.61	9820.18
655.802	9793.56
655.994	9840.66
656.186	9828.37
656.379	9603.1
656.571	9549.85
656.763	9392.16
656.955	9508.89
657.148	9408.54
657.34	9269.28
657.532	9203.74
657.724	9377.82
657.916	9279.52
658.108	9218.08
658.3	9263.13
658.492	9306.14
658.684	9021.47
658.876	9039.9
659.068	9035.81
659.26	8947.75
659.452	8867.88
659.644	8974.37
659.836	8650.79
660.028	8810.53
660.22	8462.38
660.412	8638.5
660.604	8495.15
660.796	8730.66
660.988	8458.28
661.18	8456.23
661.372	8423.47
661.563	8402.99
661.755	8202.29
661.947	8382.51
662.139	8159.28
662.331	8353.84
662.522	8108.08
662.714	8233.01
662.906	8071.22
663.097	8114.22
663.289	7983.15
663.481	7909.43
663.673	7948.34
663.864	7804.98
664.056	7843.89
664.247	7833.65
664.439	7794.74
664.631	7942.19
664.822	7809.08
665.014	7782.45
665.205	7561.27
665.397	7608.37
665.588	7557.18
665.78	7755.83
665.971	7692.34
666.163	7403.58
666.354	7491.64
666.546	7385.15
666.737	7331.9
666.929	7383.1
667.12	7155.77
667.311	7239.74
667.503	7262.27
667.694	7221.31
667.885	6955.07
668.077	7190.59
668.268	7077.95
668.459	7000.13
668.651	7055.42
668.842	7137.34
669.033	6914.11
669.224	6846.53
669.416	6942.78
669.607	6955.07
669.798	6752.32
669.989	6828.1
670.18	6729.8
670.371	6826.05
670.563	6549.57
670.754	6660.17
670.945	6522.95
671.136	6647.88
671.327	6586.44
671.518	6498.38
671.709	6586.44
671.9	6897.73
672.091	6479.94
672.282	6481.99
672.473	6522.95
672.664	6621.25
672.855	6377.55
673.046	6520.9
673.237	6479.94
673.428	6365.26
673.619	6295.63
673.809	6178.89
674	6240.33
674.191	6330.44
674.382	6117.45
674.573	6217.8
674.764	6070.35
674.954	6127.69
675.145	6082.64
675.336	6156.36
675.527	6189.13
675.717	5941.33
675.908	5926.99
676.099	5953.62
676.289	5867.6
676.48	5967.95
676.671	6060.11
676.861	6072.4
677.052	6047.82
677.243	5754.96
677.433	5894.22
677.624	5808.21
677.814	5691.48
678.005	5830.74
678.195	5816.4
678.386	5761.11
678.576	5765.2
678.767	5773.39
678.957	5738.58
679.148	5654.61
679.338	5679.19
679.529	5570.65
679.719	5699.67
679.909	5761.11
680.1	5507.16
680.29	5673.04
680.481	5650.52
680.671	5769.3
680.861	5482.58
681.052	5689.43
681.242	5638.23
681.432	5578.84
681.622	5494.87
681.813	5531.73
682.003	5523.54
682.193	5369.94
682.383	5460.06
682.573	5462.1
682.764	5331.03
682.954	5443.67
683.144	5472.34
683.334	5546.07
683.524	5288.03
683.714	5353.56
683.904	5429.34
684.094	5435.48
684.284	5410.9
684.474	5347.42
684.664	5460.06
684.854	5249.11
685.044	5161.05
685.234	5111.9
685.424	5093.47
685.614	5199.96
685.804	5132.38
685.994	5189.72
686.184	5189.72
686.374	5132.38
686.564	4962.4
686.753	5099.61
686.943	4816.99
687.133	5025.89
687.323	5001.31
687.513	4876.38
687.702	5005.41
687.892	4892.77
688.082	4986.97
688.272	5001.31
688.461	4878.43
688.651	4812.9
688.841	4843.62
689.03	4989.02
689.22	4710.5
689.41	4788.32
689.599	4702.31
689.789	4771.94
689.979	4632.68
690.168	4511.85
690.358	4694.12
690.547	4743.27
690.737	4718.69
690.926	4585.57
691.116	4485.22
691.305	4608.1
691.495	4759.65
691.684	4528.23
691.874	4472.93
692.063	4329.58
692.252	4350.06
692.442	4450.41
692.631	4542.57
692.82	4393.06
693.01	4368.49
693.199	4296.81
693.388	4296.81
693.578	4376.68
693.767	4296.81
693.956	4305
694.146	4286.57
694.335	4270.19
694.524	4286.57
694.713	4190.31
694.902	4223.08
695.092	4102.25
695.281	4085.87
695.47	4225.13
695.659	4141.16
695.848	3926.13
696.037	4053.1
696.226	4108.4
696.415	4153.45
696.604	3975.28
696.793	4026.48
696.982	4094.06
697.171	4001.9
697.36	4034.67
697.549	4003.95
697.738	4038.77
697.927	3975.28
698.116	3993.71
698.305	3940.46
698.494	3891.31
698.683	3936.37
698.872	4012.14
699.061	3938.41
699.25	3952.75
699.438	3991.66
699.627	3973.23
699.816	3870.83
700.005	3799.15
700.193	3954.8
700.382	3852.4
700.571	3915.89
700.76	3897.46
700.948	3946.61
701.137	3987.57
701.326	3821.68
701.514	3856.5
701.703	3874.93
701.892	3803.25
702.08	3981.42
702.269	3891.31
702.457	3813.49
702.646	3764.34
702.834	3737.71
703.023	3743.86
703.212	3758.19
703.4	3647.6
703.589	3739.76
703.777	3811.44
703.965	3844.21
704.154	3797.1
704.342	3833.97
704.531	3848.3
704.719	3625.08
704.907	3686.51
705.096	3623.03
705.284	3709.04
705.472	3801.2
705.661	3580.02
705.849	3520.63
706.037	3600.5
706.226	3614.84
706.414	3612.79
706.602	3756.15
706.79	3647.6
706.979	3612.79
707.167	3647.6
707.355	3868.78
707.543	3682.42
707.731	3750
707.919	3801.2
708.107	3661.94
708.296	3639.41
708.484	3668.08
708.672	3573.88
708.86	3629.17
709.048	3528.82
709.236	3657.84
709.424	3676.27
709.612	3522.68
709.8	3567.73
709.988	3633.27
710.176	3528.82
710.364	3469.43
710.551	3553.4
710.739	3455.09
710.927	3561.59
711.115	3614.84
711.303	3485.81
711.491	3629.17
711.679	3606.64
711.866	3614.84
712.054	3559.54
712.242	3567.73
712.43	3565.68
712.617	3637.36
712.805	3494.01
712.993	3528.82
713.181	3508.34
713.368	3551.35
713.556	3491.96
713.744	3434.61
713.931	3485.81
714.119	3506.29
714.306	3518.58
714.494	3432.57
714.682	3608.69
714.869	3367.03
715.057	3459.19
715.244	3473.53
715.432	3532.92
715.619	3383.42
715.807	3506.29
715.994	3532.92
716.182	3399.8
716.369	3496.05
716.556	3412.09
716.744	3442.81
716.931	3494.01
717.119	3416.18
717.306	3475.57
717.493	3500.15
717.681	3442.81
717.868	3522.68
718.055	3422.33
718.242	3565.68
718.43	3291.26
718.617	3475.57
718.804	3356.79
718.991	3412.09
719.179	3522.68
719.366	3309.69
719.553	3461.24
719.74	3360.89
719.927	3405.94
720.114	3340.41
720.301	3295.35
720.488	3491.96
720.676	3448.95
720.863	3352.7
721.05	3373.18
721.237	3369.08
721.424	3340.41
721.611	3371.13
721.798	3381.37
721.985	3407.99
722.172	3385.46
722.358	3348.6
722.545	3352.7
722.732	3338.36
722.919	3426.42
723.106	3340.41
723.293	3321.98
723.48	3250.3
723.667	3299.45
723.853	3352.7
724.04	3393.65
724.227	3303.54
724.414	3229.82
724.6	3334.26
724.787	3258.49
724.974	3207.29
725.161	3264.63
725.347	3283.06
725.534	3285.11
725.72	3364.98
725.907	3379.32
726.094	3330.17
726.28	3195
726.467	3115.13
726.653	3186.81
726.84	3293.3
727.027	3293.3
727.213	3180.67
727.4	3315.83
727.586	3319.93
727.773	3197.05
727.959	3223.67
728.145	3235.96
728.332	3219.58
728.518	3301.5
728.705	3319.93
728.891	3151.99
729.077	3256.44
729.264	3203.19
729.45	3201.15
729.636	3270.78
729.823	3201.15
730.009	3299.45
730.195	3229.82
730.382	3213.43
730.568	3131.51
730.754	3233.91
730.94	3217.53
731.126	3186.81
731.313	3113.08
731.499	3197.05
731.685	3164.28
731.871	3096.7
732.057	3188.86
732.243	3225.72
732.429	3010.68
732.615	3276.92
732.801	3233.91
732.987	3131.51
733.173	3201.15
733.359	3242.11
733.545	3182.71
733.731	3082.36
733.917	3102.84
734.103	3283.06
734.289	3281.02
734.475	3080.32
734.661	3070.08
734.847	3063.93
735.033	3178.62
735.219	3149.95
735.404	3158.14
735.59	3211.39
735.776	3059.84
735.962	3151.99
736.148	3125.37
736.333	3012.73
736.519	3065.98
736.705	3025.02
736.89	3033.21
737.076	3092.6
737.262	3111.04
737.447	3033.21
737.633	3008.64
737.819	3057.79
738.004	3039.36
738.19	3141.75
738.375	3113.08
738.561	3129.47
738.747	2963.58
738.932	2957.44
739.118	3022.97
739.303	3012.73
739.489	2986.11
739.674	2998.4
739.859	2988.16
740.045	2957.44
740.23	2885.76
740.416	2896
740.601	3002.49
740.786	3004.54
740.972	2957.44
741.157	3004.54
741.342	2928.77
741.528	2941.05
741.713	2867.33
741.898	2828.42
742.084	2822.27
742.269	2824.32
742.454	2812.03
742.639	2910.33
742.824	2822.27
743.01	2760.83
743.195	2904.19
743.38	2730.11
743.565	2640
743.75	2746.5
743.935	2726.02
744.12	2721.92
744.305	2726.02
744.49	2705.54
744.675	2807.94
744.86	2693.25
745.045	2617.47
745.23	2644.1
745.415	2723.97
745.6	2752.64
745.785	2601.09
745.97	2566.28
746.155	2617.47
746.34	2580.61
746.525	2627.71
746.71	2545.8
746.895	2621.57
747.079	2533.51
747.264	2463.88
747.449	2535.56
747.634	2488.45
747.819	2474.12
748.003	2539.65
748.188	2351.24
748.373	2498.69
748.557	2418.82
748.742	2400.39
748.927	2447.49
749.111	2361.48
749.296	2326.66
749.481	2359.43
749.665	2386.05
749.85	2195.59
750.034	2373.77
750.219	2328.71
750.404	2228.36
750.588	2343.05
750.773	2195.59
750.957	2230.41
751.141	2207.88
751.326	2252.94
751.51	2185.35
751.695	2195.59
751.879	2023.56
752.064	2209.93
752.248	2109.58
752.432	2107.53
752.617	2134.15
752.801	2111.63
752.985	2093.19
753.17	2085
753.354	1960.08
753.538	1980.56
753.722	2046.09
753.907	2019.47
754.091	1951.88
754.275	1962.12
754.459	1892.49
754.643	1996.94
754.828	1929.36
755.012	1906.83
755.196	1841.29
755.38	1718.42
755.564	1759.38
755.748	1802.38
755.932	1972.36
756.116	1822.86
756.3	1878.16
756.484	1763.47
756.668	1775.76
756.852	1777.81
757.036	1810.58
757.22	1628.31
757.404	1726.61
757.588	1685.65
757.772	1788.05
757.956	1661.07
758.14	1769.62
758.323	1671.31
758.507	1683.6
758.691	1564.82
758.875	1706.13
759.059	1632.4
759.242	1542.29
759.426	1575.06
759.61	1573.01
759.794	1548.44
759.977	1613.97
760.161	1523.86
760.345	1581.2
760.528	1620.11
760.712	1568.91
760.895	1544.34
761.079	1548.44
761.263	1458.32
761.446	1484.95
761.63	1446.04
761.813	1525.91
761.997	1446.04
762.18	1491.09
762.364	1491.09
762.547	1480.85
762.731	1456.28
762.914	1314.97
763.098	1380.5
763.281	1462.42
763.464	1376.41
763.648	1413.27
763.831	1425.56
764.015	1337.49
764.198	1390.74
764.381	1347.73
764.564	1454.23
764.748	1349.78
764.931	1390.74
765.114	1302.68
765.297	1480.85
765.481	1353.88
765.664	1366.17
765.847	1298.58
766.03	1372.31
766.213	1257.62
766.397	1355.93
766.58	1357.97
766.763	1329.3
766.946	1255.58
767.129	1216.66
767.312	1319.06
767.495	1255.58
767.678	1292.44
767.861	1306.77
768.044	1259.67
768.227	1255.58
768.41	1267.86
768.593	1235.1
768.776	1274.01
768.959	1222.81
769.142	1204.38
769.324	1167.51
769.507	1239.19
769.69	1204.38
769.873	1237.14
770.056	1224.86
770.239	1224.86
770.421	1224.86
770.604	1173.66
770.787	1149.08
770.97	1200.28
771.152	1140.89
771.335	1052.83
771.518	1169.56
771.7	1104.03
771.883	1110.17
772.066	1048.73
772.248	1136.79
772.431	1083.55
772.613	1159.32
772.796	1097.88
772.978	1140.89
773.161	981.15
773.343	1101.98
773.526	1099.93
773.708	1128.6
773.891	1112.22
774.073	1022.11
774.256	1050.78
774.438	1013.92
774.621	1040.54
774.803	1022.11
774.985	1038.49
775.168	958.62
775.35	1054.87
775.532	975
775.715	868.51
775.897	907.42
776.079	934.04
776.261	972.96
776.444	862.37
776.626	905.37
776.808	1024.16
776.99	936.09
777.173	934.04
777.355	868.51
777.537	825.5
777.719	938.14
777.901	876.7
778.083	874.65
778.265	798.88
778.447	860.32
778.629	817.31
778.811	872.61
778.993	874.65
779.175	905.37
779.357	921.76
779.539	845.98
779.721	759.97
779.903	878.75
780.085	802.97
780.267	780.45
780.449	802.97
780.631	755.87
780.812	835.74
780.994	714.91
781.176	721.06
781.358	737.44
781.54	753.82
781.721	762.02
781.903	729.25
782.085	678.05
782.267	737.44
782.448	759.97
782.63	649.38
782.812	704.67
782.993	708.77
783.175	747.68
783.357	727.2
783.538	719.01
783.72	729.25
783.901	655.52
784.083	671.9
784.264	643.23
784.446	645.28
784.627	626.85
784.809	678.05
784.99	686.24
785.172	667.81
785.353	657.57
785.535	565.41
785.716	618.66
785.897	641.18
786.079	598.18
786.26	612.51
786.441	579.75
786.623	587.94
786.804	618.66
786.985	604.32
787.167	665.76
787.348	557.22
787.529	596.13
787.71	563.36
787.891	571.55
788.073	522.4
788.254	532.64
788.435	643.23
788.616	557.22
788.797	485.54
788.978	555.17
789.159	467.11
789.34	571.55
789.522	520.35
789.703	489.64
789.884	678.05
790.065	528.55
790.246	501.92
790.427	452.77
790.607	528.55
790.788	567.46
790.969	440.48
791.15	534.69
791.331	456.87
791.512	377
791.693	442.53
791.874	463.01
792.054	520.35
792.235	557.22
792.416	551.07
792.597	456.87
792.778	395.43
792.958	483.49
793.139	424.1
793.32	473.25
793.5	397.48
793.681	391.33
793.862	446.63
794.042	354.47
794.223	432.29
794.404	442.53
794.584	438.44
794.765	448.68
794.945	338.09
795.126	483.49
795.306	493.73
795.487	370.85
795.667	403.62
795.848	379.04
796.028	338.09
796.209	342.18
796.389	391.33
796.57	395.43
796.75	366.76
796.93	342.18
797.111	321.7
797.291	342.18
797.471	379.04
797.652	397.48
797.832	370.85
798.012	366.76
798.192	331.94
798.373	317.61
798.553	381.09
798.733	379.04
798.913	311.46
799.093	383.14
799.274	331.94
799.454	393.38
799.634	301.22
799.814	319.65
799.994	397.48
800.174	350.37
800.354	336.04
800.534	297.13
800.714	346.28
800.894	311.46
801.074	274.6
801.254	282.79
801.434	299.17
801.614	231.59
801.794	288.93
801.974	729.25
802.154	309.41
802.334	393.38
802.514	276.65
802.693	344.23
802.873	325.8
803.053	407.72
803.233	299.17
803.413	319.65
803.592	297.13
803.772	303.27
803.952	336.04
804.131	262.31
804.311	225.45
804.491	372.9
804.67	342.18
804.85	258.21
805.03	231.59
805.209	354.47
805.389	268.45
805.568	207.02
805.748	235.69
805.928	286.89
806.107	241.83
806.287	286.89
806.466	254.12
806.646	213.16
806.825	209.06
807.004	327.85
807.184	190.63
807.363	321.7
807.543	254.12
807.722	202.92
807.901	288.93
808.081	327.85
808.26	229.54
808.439	284.84
808.619	301.22
808.798	272.55
808.977	215.21
809.156	237.74
809.336	252.07
809.515	225.45
809.694	233.64
809.873	225.45
810.052	262.31
810.231	309.41
810.411	188.58
810.59	245.93
810.769	299.17
810.948	227.5
811.127	182.44
811.306	247.97
811.485	151.72
811.664	325.8
811.843	225.45
812.022	170.15
812.201	209.06
812.38	227.5
812.559	219.3
812.737	247.97
812.916	180.39
813.095	184.49
813.274	202.92
813.453	231.59
813.632	176.3
813.811	217.26
813.989	180.39
814.168	260.26
814.347	219.3
814.526	174.25
814.704	231.59
814.883	229.54
815.062	153.77
815.24	219.3
815.419	110.76
815.598	164.01
815.776	151.72
815.955	170.15
816.133	225.45
816.312	202.92
816.49	180.39
816.669	112.81
816.847	184.49
817.026	198.82
817.204	211.11
817.383	225.45
817.561	110.76
817.74	252.07
817.918	186.54
818.097	153.77
818.275	166.06
818.453	178.34
818.632	182.44
818.81	264.36
818.988	147.62
819.167	209.06
819.345	149.67
819.523	237.74
819.701	180.39
819.879	161.96
820.058	215.21
820.236	131.24
820.414	172.2
820.592	192.68
820.77	104.62
820.948	139.43
821.127	151.72
821.305	227.5
821.483	172.2
821.661	219.3
821.839	180.39
822.017	125.1
822.195	129.19
822.373	176.3
822.551	168.1
822.729	215.21
822.907	131.24
823.085	194.73
823.262	151.72
823.44	123.05
823.618	166.06
823.796	73.9
823.974	127.14
824.152	125.1
824.329	94.38
824.507	170.15
824.685	94.38
824.863	151.72
825.04	104.62
825.218	80.04
825.396	147.62
825.574	137.38
825.751	75.95
825.929	94.38
826.107	149.67
826.284	88.23
826.462	133.29
826.639	96.43
826.817	118.95
826.994	141.48
827.172	180.39
827.349	155.82
827.527	131.24
827.704	133.29
827.882	176.3
828.059	94.38
828.237	80.04
828.414	106.67
828.591	90.28
828.769	141.48
828.946	96.43
829.124	159.91
829.301	110.76
829.478	149.67
829.655	141.48
829.833	98.47
830.01	34.99
830.187	82.09
830.364	127.14
830.542	112.81
830.719	84.14
830.896	100.52
831.073	143.53
831.25	118.95
831.427	164.01
831.604	88.23
831.782	129.19
831.959	137.38
832.136	69.8
832.313	131.24
832.49	86.19
832.667	88.23
832.844	65.71
833.021	151.72
833.198	96.43
833.374	114.86
833.551	26.79
833.728	125.1
833.905	65.71
834.082	98.47
834.259	108.71
834.436	75.95
834.612	65.71
834.789	143.53
834.966	22.7
835.143	123.05
835.319	53.42
835.496	30.89
835.673	69.8
835.85	118.95
836.026	108.71
836.203	157.86
836.38	94.38
836.556	102.57
836.733	110.76
836.909	100.52
837.086	106.67
837.262	4.27
837.439	34.99
837.616	71.85
837.792	96.43
837.968	55.47
838.145	82.09
838.321	37.03
838.498	57.51
838.674	151.72
838.851	84.14
839.027	24.75
839.203	141.48
839.38	145.58
839.556	-14.17
839.732	84.14
839.909	41.13
840.085	84.14
840.261	39.08
840.437	112.81
840.614	127.14
840.79	133.29
840.966	106.67
841.142	106.67
841.318	110.76
841.494	88.23
841.671	118.95
841.847	61.61
842.023	77.99
842.199	65.71
842.375	159.91
842.551	65.71
842.727	49.32
842.903	155.82
843.079	-10.07
843.255	106.67
843.431	61.61
843.607	61.61
843.783	86.19
843.959	106.67
844.134	59.56
844.31	100.52
844.486	67.75
844.662	24.75
844.838	57.51
845.013	32.94
845.189	114.86
845.365	39.08
845.541	39.08
845.716	-30.55
845.892	47.27
846.068	96.43
846.244	57.51
846.419	61.61
846.595	88.23
846.77	24.75
846.946	94.38
847.122	71.85
847.297	61.61
847.473	133.29
847.648	45.23
847.824	55.47
847.999	67.75
848.175	24.75
848.35	104.62
848.526	123.05
848.701	32.94
848.876	71.85
849.052	57.51
849.227	39.08
849.403	63.66
849.578	80.04
849.753	47.27
849.929	39.08
850.104	61.61
850.279	14.51
850.454	63.66
850.63	16.55
850.805	53.42
850.98	75.95
851.155	71.85
851.33	104.62
851.505	0.17
851.681	112.81
851.856	69.8
852.031	71.85
852.206	73.9
852.381	-16.21
852.556	45.23
852.731	41.13
852.906	82.09
853.081	143.53
853.256	75.95
853.431	116.9
853.606	12.46
853.781	61.61
853.956	51.37
854.131	55.47
854.305	32.94
854.48	-16.21
854.655	30.89
854.83	20.65
855.005	14.51
855.18	22.7
855.354	39.08
855.529	-1.88
855.704	41.13
855.879	98.47
856.053	88.23
856.228	2.22
856.403	24.75
856.577	84.14
856.752	47.27
856.926	75.95
857.101	22.7
857.276	12.46
857.45	69.8
857.625	-30.55
857.799	32.94
857.974	-32.6
858.148	10.41
858.323	-3.93
858.497	30.89
858.672	18.6
858.846	73.9
859.02	112.81
859.195	-28.5
859.369	32.94
859.543	-14.17
859.718	47.27
859.892	30.89
860.066	10.41
860.241	-26.45
860.415	22.7
860.589	4.27
860.763	43.18
860.938	90.28
861.112	2.22
861.286	65.71
861.46	-12.12
861.634	-26.45
861.808	47.27
861.982	47.27
862.157	12.46
862.331	-38.74
862.505	51.37
862.679	-51.03
862.853	-3.93
863.027	45.23
863.201	61.61
863.375	34.99
863.549	129.19
863.722	37.03
863.896	100.52
864.07	8.36
864.244	61.61
864.418	55.47
864.592	-12.12
864.766	67.75
864.939	16.55
865.113	14.51
865.287	-18.26
865.461	37.03
865.634	69.8
865.808	-24.4
865.982	24.75
866.156	-16.21
866.329	24.75
866.503	6.31
866.676	28.84
866.85	92.33
867.024	30.89
867.197	90.28
867.371	-40.79
867.544	75.95
867.718	-24.4
867.891	118.95
868.065	16.55
868.238	-5.97
868.412	34.99
868.585	47.27
868.759	10.41
868.932	37.03
869.105	14.51
869.279	86.19
869.452	16.55
869.625	57.51
869.799	20.65
869.972	-44.88
870.145	-3.93
870.319	43.18
870.492	-3.93
870.665	-24.4
870.838	-26.45
871.011	28.84
871.185	26.79
871.358	26.79
871.531	-10.07
871.704	45.23
871.877	41.13
872.05	-26.45
872.223	20.65
872.396	61.61
872.569	30.89
872.742	6.31
872.915	45.23
873.088	-16.21
873.261	28.84
873.434	-3.93
873.607	75.95
873.78	6.31
873.953	80.04
874.126	-18.26
874.299	-20.31
874.471	-5.97
874.644	24.75
874.817	45.23
874.99	96.43
875.163	2.22
875.335	67.75
875.508	-14.17
875.681	-22.36
875.853	-36.69
876.026	20.65
876.199	16.55
876.371	51.37
876.544	59.56
876.717	2.22
876.889	-10.07
877.062	82.09
877.234	32.94
877.407	-34.64
877.579	-36.69
877.752	30.89
877.924	-5.97
878.097	20.65
878.269	16.55
878.442	-18.26
878.614	28.84
878.786	28.84
878.959	6.31
879.131	55.47
879.303	45.23
879.476	24.75
879.648	80.04
879.82	53.42
879.993	-48.98
880.165	53.42
880.337	10.41
880.509	34.99
880.681	-26.45
880.854	6.31
881.026	-3.93
881.198	57.51
881.37	-1.88
881.542	53.42
881.714	-5.97
881.886	0.17
882.058	-5.97
882.23	14.51
882.402	59.56
882.574	8.36
882.746	-5.97
882.918	84.14
883.09	-8.02
883.262	41.13
883.434	30.89
883.606	-48.98
883.778	-20.31
883.95	39.08
884.122	0.17
884.293	28.84
884.465	20.65
884.637	51.37
884.809	-8.02
884.98	-12.12
885.152	53.42
885.324	88.23
885.496	41.13
885.667	-10.07
885.839	-1.88
886.011	-10.07
886.182	-22.36
886.354	45.23
886.525	14.51
886.697	43.18
886.869	-1.88
887.04	-24.4
887.212	47.27
887.383	71.85
887.555	4.27
887.726	26.79
887.897	47.27
888.069	98.47
888.24	123.05
888.412	34.99
888.583	-10.07
888.754	24.75
888.926	-16.21
889.097	-69.46
889.268	10.41
889.44	71.85
889.611	80.04
889.782	-106.32
889.953	-1.88
890.125	55.47
890.296	-22.36
890.467	4.27
890.638	-40.79
890.809	-28.5
890.98	55.47
891.151	96.43
891.323	65.71
891.494	61.61
891.665	-18.26
891.836	-34.64
892.007	20.65
892.178	26.79
892.349	-24.4
892.52	12.46
892.691	43.18
892.862	55.47
893.032	-65.36
893.203	59.56
893.374	18.6
893.545	26.79
893.716	24.75
893.887	18.6
894.057	-32.6
894.228	4.27
894.399	8.36
894.57	16.55
894.74	32.94
894.911	-1.88
895.082	-28.5
895.253	55.47
895.423	18.6
895.594	49.32
895.764	-71.51
895.935	-20.31
896.106	65.71
896.276	65.71
896.447	-10.07
896.617	53.42
896.788	43.18
896.958	18.6
897.129	14.51
897.299	28.84
897.47	37.03
897.64	24.75
897.81	53.42
897.981	0.17
898.151	-10.07
898.322	61.61
898.492	71.85
898.662	59.56
898.832	-14.17
899.003	32.94
899.173	63.66
899.343	8.36
899.513	-51.03
