Data from USB4F104151__54__12-27-34-673.txt Node

Date: Fri Mar 14 12:27:34 EDT 2025
User: louis
Spectrometer: USB4F10415
Trigger mode: 4
Integration Time (sec): 2.000000E-2
Scans to average: 1
Electric dark correction enabled: true
Nonlinearity correction enabled: false
Boxcar width: 0
XAxis mode: Wavelengths
Number of Pixels in Spectrum: 3648
>>>>>Begin Spectral Data<<<<<
178.204	-67.58
178.424	-67.58
178.644	-67.58
178.864	-86.01
179.084	-79.87
179.304	-43.01
179.524	-0
179.744	-0
179.964	106.49
180.184	-88.06
180.404	36.86
180.624	43.01
180.844	4.1
181.064	-18.43
181.283	-20.48
181.503	-49.15
181.723	28.67
181.943	-0
182.163	96.25
182.383	-16.38
182.602	10.24
182.822	77.82
183.042	61.44
183.262	110.59
183.482	20.48
183.701	65.53
183.921	69.63
184.141	34.82
184.361	106.49
184.58	26.62
184.8	55.3
185.02	-8.19
185.239	143.36
185.459	49.15
185.679	59.39
185.898	45.06
186.118	153.6
186.338	12.29
186.557	67.58
186.777	2.05
186.997	69.63
187.216	-6.14
187.436	139.26
187.655	47.1
187.875	63.49
188.095	55.3
188.314	98.3
188.534	75.77
188.753	22.53
188.973	47.1
189.192	45.06
189.412	-16.38
189.631	61.44
189.851	26.62
190.07	124.93
190.29	-8.19
190.509	2.05
190.729	49.15
190.948	96.25
191.168	104.45
191.387	30.72
191.607	24.58
191.826	12.29
192.045	47.1
192.265	45.06
192.484	61.44
192.704	38.91
192.923	45.06
193.142	112.64
193.362	104.45
193.581	98.3
193.8	114.69
194.02	4.1
194.239	51.2
194.458	55.3
194.678	28.67
194.897	36.86
195.116	16.38
195.335	77.82
195.555	65.53
195.774	36.86
195.993	47.1
196.212	100.35
196.432	14.34
196.651	79.87
196.87	90.11
197.089	106.49
197.308	47.1
197.528	20.48
197.747	24.58
197.966	45.06
198.185	90.11
198.404	4.1
198.623	81.92
198.842	92.16
199.062	24.58
199.281	75.77
199.5	81.92
199.719	38.91
199.938	104.45
200.157	43.01
200.376	30.72
200.595	122.88
200.814	71.68
201.033	22.53
201.252	59.39
201.471	36.86
201.69	2.05
201.909	36.86
202.128	96.25
202.347	73.73
202.566	59.39
202.785	88.06
203.004	45.06
203.223	194.56
203.442	43.01
203.661	43.01
203.879	47.1
204.098	22.53
204.317	26.62
204.536	55.3
204.755	102.4
204.974	-4.1
205.193	14.34
205.411	67.58
205.63	81.92
205.849	-32.77
206.068	92.16
206.287	57.34
206.505	59.39
206.724	55.3
206.943	-10.24
207.162	69.63
207.381	4.1
207.599	-12.29
207.818	47.1
208.037	40.96
208.255	49.15
208.474	63.49
208.693	120.83
208.911	34.82
209.13	59.39
209.349	14.34
209.567	120.83
209.786	106.49
210.005	63.49
210.223	32.77
210.442	67.58
210.661	59.39
210.879	43.01
211.098	-18.43
211.316	53.25
211.535	51.2
211.753	55.3
211.972	71.68
212.191	43.01
212.409	47.1
212.628	4.1
212.846	61.44
213.065	96.25
213.283	110.59
213.502	45.06
213.72	90.11
213.938	30.72
214.157	77.82
214.375	122.88
214.594	-0
214.812	73.73
215.031	145.41
215.249	71.68
215.467	-14.34
215.686	30.72
215.904	67.58
216.122	51.2
216.341	47.1
216.559	57.34
216.778	47.1
216.996	18.43
217.214	22.53
217.432	131.07
217.651	26.62
217.869	94.21
218.087	43.01
218.306	100.35
218.524	63.49
218.742	71.68
218.96	135.17
219.179	12.29
219.397	49.15
219.615	51.2
219.833	120.83
220.051	18.43
220.27	92.16
220.488	65.53
220.706	43.01
220.924	45.06
221.142	45.06
221.36	16.38
221.578	57.34
221.796	73.73
222.015	28.67
222.233	12.29
222.451	43.01
222.669	-10.24
222.887	28.67
223.105	57.34
223.323	28.67
223.541	43.01
223.759	106.49
223.977	96.25
224.195	73.73
224.413	38.91
224.631	51.2
224.849	143.36
225.067	112.64
225.285	53.25
225.503	63.49
225.721	100.35
225.939	45.06
226.157	151.55
226.375	139.26
226.592	34.82
226.81	-0
227.028	34.82
227.246	100.35
227.464	104.45
227.682	63.49
227.9	26.62
228.117	69.63
228.335	104.45
228.553	75.77
228.771	6.14
228.989	102.4
229.206	63.49
229.424	12.29
229.642	-12.29
229.86	45.06
230.077	100.35
230.295	47.1
230.513	75.77
230.731	133.12
230.948	40.96
231.166	30.72
231.384	83.97
231.601	106.49
231.819	22.53
232.037	10.24
232.254	-2.05
232.472	-14.34
232.689	10.24
232.907	49.15
233.125	90.11
233.342	-24.58
233.56	55.3
233.777	4.1
233.995	2.05
234.213	135.17
234.43	12.29
234.648	43.01
234.865	12.29
235.083	81.92
235.3	90.11
235.518	8.19
235.735	79.87
235.953	98.3
236.17	81.92
236.388	8.19
236.605	53.25
236.822	102.4
237.04	94.21
237.257	59.39
237.475	-6.14
237.692	100.35
237.909	92.16
238.127	49.15
238.344	112.64
238.562	36.86
238.779	73.73
238.996	57.34
239.214	81.92
239.431	18.43
239.648	63.49
239.865	47.1
240.083	51.2
240.3	83.97
240.517	8.19
240.735	57.34
240.952	139.26
241.169	108.54
241.386	28.67
241.603	2.05
241.821	57.34
242.038	47.1
242.255	112.64
242.472	-2.05
242.689	57.34
242.907	133.12
243.124	51.2
243.341	40.96
243.558	92.16
243.775	43.01
243.992	63.49
244.209	135.17
244.426	65.53
244.643	59.39
244.86	75.77
245.078	61.44
245.295	81.92
245.512	61.44
245.729	38.91
245.946	55.3
246.163	116.73
246.38	65.53
246.597	88.06
246.814	81.92
247.031	-22.53
247.248	8.19
247.464	88.06
247.681	30.72
247.898	38.91
248.115	2.05
248.332	-4.1
248.549	102.4
248.766	106.49
248.983	6.14
249.2	55.3
249.417	69.63
249.633	-28.67
249.85	90.11
250.067	81.92
250.284	71.68
250.501	106.49
250.717	126.97
250.934	49.15
251.151	-6.14
251.368	10.24
251.585	110.59
251.801	57.34
252.018	34.82
252.235	2.05
252.451	69.63
252.668	34.82
252.885	114.69
253.102	63.49
253.318	22.53
253.535	69.63
253.752	40.96
253.968	88.06
254.185	49.15
254.401	40.96
254.618	86.01
254.835	73.73
255.051	45.06
255.268	32.77
255.484	26.62
255.701	53.25
255.917	30.72
256.134	18.43
256.351	26.62
256.567	-14.34
256.784	45.06
257	-67.58
257.217	73.73
257.433	38.91
257.65	59.39
257.866	94.21
258.082	47.1
258.299	49.15
258.515	32.77
258.732	30.72
258.948	34.82
259.165	14.34
259.381	112.64
259.597	47.1
259.814	53.25
260.03	4.1
260.246	86.01
260.463	71.68
260.679	53.25
260.895	28.67
261.112	86.01
261.328	12.29
261.544	77.82
261.761	90.11
261.977	45.06
262.193	86.01
262.409	133.12
262.626	118.78
262.842	92.16
263.058	-24.58
263.274	94.21
263.49	16.38
263.707	55.3
263.923	43.01
264.139	38.91
264.355	67.58
264.571	59.39
264.787	32.77
265.004	86.01
265.22	8.19
265.436	10.24
265.652	-20.48
265.868	40.96
266.084	2.05
266.3	43.01
266.516	86.01
266.732	94.21
266.948	47.1
267.164	63.49
267.38	92.16
267.596	-6.14
267.812	10.24
268.028	45.06
268.244	47.1
268.46	57.34
268.676	94.21
268.892	61.44
269.108	-16.38
269.324	24.58
269.54	59.39
269.756	63.49
269.972	24.58
270.188	45.06
270.403	30.72
270.619	102.4
270.835	53.25
271.051	36.86
271.267	81.92
271.483	65.53
271.698	36.86
271.914	126.97
272.13	67.58
272.346	65.53
272.562	69.63
272.777	63.49
272.993	69.63
273.209	14.34
273.425	71.68
273.64	20.48
273.856	92.16
274.072	26.62
274.287	30.72
274.503	104.45
274.719	88.06
274.934	2.05
275.15	75.77
275.366	122.88
275.581	36.86
275.797	92.16
276.012	69.63
276.228	4.1
276.444	83.97
276.659	69.63
276.875	4.1
277.09	88.06
277.306	67.58
277.521	90.11
277.737	32.77
277.952	126.97
278.168	18.43
278.383	67.58
278.599	26.62
278.814	180.22
279.03	71.68
279.245	104.45
279.461	71.68
279.676	96.25
279.892	49.15
280.107	36.86
280.322	28.67
280.538	55.3
280.753	36.86
280.969	10.24
281.184	59.39
281.399	47.1
281.615	47.1
281.83	55.3
282.045	32.77
282.26	47.1
282.476	92.16
282.691	102.4
282.906	86.01
283.122	83.97
283.337	2.05
283.552	26.62
283.767	28.67
283.983	96.25
284.198	96.25
284.413	45.06
284.628	43.01
284.843	104.45
285.058	129.02
285.274	26.62
285.489	28.67
285.704	38.91
285.919	49.15
286.134	34.82
286.349	77.82
286.564	71.68
286.779	40.96
286.995	71.68
287.21	75.77
287.425	98.3
287.64	30.72
287.855	51.2
288.07	57.34
288.285	63.49
288.5	69.63
288.715	69.63
288.93	92.16
289.145	118.78
289.36	57.34
289.575	79.87
289.79	49.15
290.004	143.36
290.219	98.3
290.434	22.53
290.649	45.06
290.864	79.87
291.079	92.16
291.294	75.77
291.509	49.15
291.724	55.3
291.938	-34.82
292.153	96.25
292.368	28.67
292.583	63.49
292.798	69.63
293.012	32.77
293.227	6.14
293.442	34.82
293.657	106.49
293.871	73.73
294.086	18.43
294.301	110.59
294.516	94.21
294.73	28.67
294.945	20.48
295.16	36.86
295.374	67.58
295.589	24.58
295.804	24.58
296.018	51.2
296.233	98.3
296.447	-40.96
296.662	88.06
296.877	112.64
297.091	75.77
297.306	28.67
297.52	96.25
297.735	83.97
297.949	51.2
298.164	165.89
298.378	102.4
298.593	133.12
298.807	47.1
299.022	69.63
299.236	122.88
299.451	67.58
299.665	38.91
299.88	90.11
300.094	-2.05
300.309	14.34
300.523	112.64
300.737	88.06
300.952	102.4
301.166	34.82
301.381	57.34
301.595	90.11
301.809	45.06
302.024	26.62
302.238	18.43
302.452	63.49
302.667	86.01
302.881	92.16
303.095	47.1
303.309	120.83
303.524	16.38
303.738	67.58
303.952	36.86
304.166	92.16
304.381	-49.15
304.595	126.97
304.809	47.1
305.023	30.72
305.237	122.88
305.452	51.2
305.666	61.44
305.88	59.39
306.094	75.77
306.308	102.4
306.522	4.1
306.736	18.43
306.95	4.1
307.164	38.91
307.379	67.58
307.593	98.3
307.807	-10.24
308.021	77.82
308.235	126.97
308.449	61.44
308.663	51.2
308.877	96.25
309.091	108.54
309.305	55.3
309.519	77.82
309.733	63.49
309.947	108.54
310.161	83.97
310.374	102.4
310.588	108.54
310.802	-24.58
311.016	73.73
311.23	67.58
311.444	-0
311.658	28.67
311.872	59.39
312.085	57.34
312.299	135.17
312.513	106.49
312.727	112.64
312.941	106.49
313.154	83.97
313.368	59.39
313.582	38.91
313.796	24.58
314.009	92.16
314.223	112.64
314.437	69.63
314.651	-34.82
314.864	90.11
315.078	38.91
315.292	106.49
315.505	96.25
315.719	47.1
315.933	81.92
316.146	73.73
316.36	36.86
316.573	32.77
316.787	36.86
317.001	-0
317.214	-8.19
317.428	67.58
317.641	55.3
317.855	22.53
318.068	61.44
318.282	96.25
318.495	51.2
318.709	92.16
318.922	110.59
319.136	126.97
319.349	63.49
319.563	-2.05
319.776	43.01
319.99	73.73
320.203	43.01
320.417	38.91
320.63	38.91
320.843	120.83
321.057	45.06
321.27	71.68
321.483	59.39
321.697	71.68
321.91	90.11
322.124	110.59
322.337	73.73
322.55	-12.29
322.763	92.16
322.977	57.34
323.19	102.4
323.403	28.67
323.617	59.39
323.83	61.44
324.043	65.53
324.256	71.68
324.469	24.58
324.683	73.73
324.896	81.92
325.109	120.83
325.322	-26.62
325.535	108.54
325.748	83.97
325.962	131.07
326.175	55.3
326.388	73.73
326.601	71.68
326.814	88.06
327.027	47.1
327.24	79.87
327.453	26.62
327.666	16.38
327.879	100.35
328.092	83.97
328.305	81.92
328.518	47.1
328.731	90.11
328.944	112.64
329.157	88.06
329.37	157.69
329.583	49.15
329.796	75.77
330.009	24.58
330.222	61.44
330.435	-22.53
330.648	38.91
330.861	6.14
331.073	75.77
331.286	135.17
331.499	51.2
331.712	79.87
331.925	77.82
332.138	137.21
332.35	86.01
332.563	30.72
332.776	73.73
332.989	63.49
333.202	30.72
333.414	110.59
333.627	59.39
333.84	63.49
334.053	86.01
334.265	59.39
334.478	77.82
334.691	-36.86
334.903	124.93
335.116	30.72
335.329	38.91
335.541	65.53
335.754	100.35
335.966	75.77
336.179	-32.77
336.392	63.49
336.604	26.62
336.817	112.64
337.029	40.96
337.242	55.3
337.454	88.06
337.667	34.82
337.88	108.54
338.092	83.97
338.305	79.87
338.517	45.06
338.729	98.3
338.942	51.2
339.154	30.72
339.367	120.83
339.579	161.79
339.792	51.2
340.004	112.64
340.217	75.77
340.429	63.49
340.641	14.34
340.854	65.53
341.066	16.38
341.278	104.45
341.491	59.39
341.703	73.73
341.915	65.53
342.128	88.06
342.34	90.11
342.552	12.29
342.764	-28.67
342.977	63.49
343.189	57.34
343.401	16.38
343.613	38.91
343.826	61.44
344.038	77.82
344.25	43.01
344.462	28.67
344.674	26.62
344.886	57.34
345.099	139.26
345.311	122.88
345.523	75.77
345.735	61.44
345.947	73.73
346.159	86.01
346.371	-10.24
346.583	67.58
346.795	83.97
347.007	65.53
347.219	71.68
347.431	55.3
347.643	77.82
347.855	90.11
348.067	118.78
348.279	47.1
348.491	65.53
348.703	67.58
348.915	45.06
349.127	26.62
349.339	102.4
349.551	16.38
349.763	12.29
349.975	71.68
350.187	108.54
350.399	90.11
350.61	12.29
350.822	98.3
351.034	77.82
351.246	88.06
351.458	53.25
351.669	6.14
351.881	49.15
352.093	69.63
352.305	104.45
352.517	77.82
352.728	22.53
352.94	57.34
353.152	30.72
353.363	57.34
353.575	88.06
353.787	102.4
353.999	73.73
354.21	135.17
354.422	40.96
354.633	110.59
354.845	106.49
355.057	108.54
355.268	43.01
355.48	6.14
355.692	51.2
355.903	71.68
356.115	47.1
356.326	53.25
356.538	98.3
356.749	77.82
356.961	129.02
357.172	104.45
357.384	67.58
357.595	106.49
357.807	77.82
358.018	34.82
358.23	30.72
358.441	124.93
358.653	135.17
358.864	92.16
359.075	43.01
359.287	26.62
359.498	90.11
359.709	133.12
359.921	59.39
360.132	104.45
360.344	131.07
360.555	98.3
360.766	69.63
360.977	53.25
361.189	38.91
361.4	45.06
361.611	40.96
361.823	53.25
362.034	83.97
362.245	-22.53
362.456	8.19
362.667	24.58
362.879	10.24
363.09	71.68
363.301	-36.86
363.512	57.34
363.723	24.58
363.935	36.86
364.146	8.19
364.357	-8.19
364.568	135.17
364.779	94.21
364.99	126.97
365.201	61.44
365.412	69.63
365.623	18.43
365.834	139.26
366.045	-55.3
366.256	49.15
366.467	45.06
366.678	71.68
366.889	116.73
367.1	94.21
367.311	110.59
367.522	88.06
367.733	176.13
367.944	79.87
368.155	63.49
368.366	88.06
368.577	102.4
368.788	88.06
368.999	77.82
369.209	79.87
369.42	79.87
369.631	108.54
369.842	102.4
370.053	-0
370.264	69.63
370.474	51.2
370.685	86.01
370.896	92.16
371.107	49.15
371.317	69.63
371.528	106.49
371.739	149.5
371.95	79.87
372.16	122.88
372.371	63.49
372.582	12.29
372.792	26.62
373.003	108.54
373.214	100.35
373.424	22.53
373.635	-8.19
373.846	88.06
374.056	-43.01
374.267	83.97
374.477	-49.15
374.688	96.25
374.898	86.01
375.109	90.11
375.319	22.53
375.53	79.87
375.74	49.15
375.951	98.3
376.161	71.68
376.372	102.4
376.582	112.64
376.793	73.73
377.003	43.01
377.214	116.73
377.424	61.44
377.635	106.49
377.845	36.86
378.055	38.91
378.266	79.87
378.476	65.53
378.686	6.14
378.897	102.4
379.107	18.43
379.317	61.44
379.528	59.39
379.738	96.25
379.948	30.72
380.158	92.16
380.369	16.38
380.579	96.25
380.789	120.83
380.999	59.39
381.21	59.39
381.42	106.49
381.63	20.48
381.84	81.92
382.05	45.06
382.261	32.77
382.471	38.91
382.681	86.01
382.891	94.21
383.101	141.31
383.311	61.44
383.521	51.2
383.731	83.97
383.941	77.82
384.151	71.68
384.361	14.34
384.571	49.15
384.781	24.58
384.991	116.73
385.201	151.55
385.411	86.01
385.621	-0
385.831	83.97
386.041	102.4
386.251	133.12
386.461	106.49
386.671	47.1
386.881	61.44
387.091	61.44
387.301	174.08
387.511	96.25
387.72	90.11
387.93	100.35
388.14	143.36
388.35	108.54
388.56	71.68
388.769	81.92
388.979	110.59
389.189	75.77
389.399	71.68
389.609	186.37
389.818	77.82
390.028	75.77
390.238	77.82
390.447	83.97
390.657	88.06
390.867	77.82
391.076	112.64
391.286	75.77
391.496	75.77
391.705	59.39
391.915	141.31
392.125	133.12
392.334	77.82
392.544	94.21
392.753	124.93
392.963	69.63
393.172	133.12
393.382	38.91
393.591	106.49
393.801	53.25
394.01	92.16
394.22	90.11
394.429	131.07
394.639	102.4
394.848	147.45
395.058	79.87
395.267	157.69
395.477	55.3
395.686	141.31
395.895	120.83
396.105	190.46
396.314	75.77
396.524	49.15
396.733	88.06
396.942	114.69
397.152	135.17
397.361	178.17
397.57	143.36
397.78	153.6
397.989	61.44
398.198	131.07
398.407	104.45
398.617	67.58
398.826	79.87
399.035	14.34
399.244	118.78
399.453	88.06
399.663	145.41
399.872	165.89
400.081	79.87
400.29	75.77
400.499	96.25
400.708	178.17
400.917	135.17
401.127	139.26
401.336	69.63
401.545	63.49
401.754	196.6
401.963	133.12
402.172	102.4
402.381	59.39
402.59	79.87
402.799	198.65
403.008	122.88
403.217	98.3
403.426	116.73
403.635	172.03
403.844	172.03
404.053	192.51
404.262	124.93
404.471	186.37
404.68	65.53
404.888	114.69
405.097	188.41
405.306	163.84
405.515	120.83
405.724	106.49
405.933	167.93
406.142	192.51
406.35	135.17
406.559	180.22
406.768	151.55
406.977	196.6
407.185	172.03
407.394	196.6
407.603	147.45
407.812	221.18
408.02	182.27
408.229	143.36
408.438	153.6
408.646	186.37
408.855	278.52
409.064	225.28
409.272	266.24
409.481	210.94
409.69	165.89
409.898	288.76
410.107	204.8
410.315	325.63
410.524	231.42
410.733	241.66
410.941	247.8
411.15	296.96
411.358	307.2
411.567	370.68
411.775	333.82
411.984	380.92
412.192	370.68
412.401	358.39
412.609	362.49
412.818	358.39
413.026	319.48
413.234	374.78
413.443	428.03
413.651	405.5
413.86	378.87
414.068	489.46
414.276	491.51
414.485	483.32
414.693	540.66
414.901	540.66
415.11	536.57
415.318	587.77
415.526	536.57
415.734	591.86
415.943	636.92
416.151	567.29
416.359	649.21
416.567	651.25
416.776	657.4
416.984	720.88
417.192	784.37
417.4	735.22
417.608	729.08
417.817	675.83
418.025	839.67
418.233	845.81
418.441	786.42
418.649	876.53
418.857	937.97
419.065	917.49
419.273	870.39
419.481	1030.13
419.689	1040.37
419.897	1087.47
420.105	1200.11
420.313	1153.01
420.521	1196.01
420.729	1198.06
420.937	1263.6
421.145	1339.37
421.353	1343.47
421.561	1474.54
421.769	1384.43
421.977	1380.33
422.185	1484.78
422.393	1591.27
422.601	1613.8
422.809	1683.43
423.017	1603.56
423.224	1724.39
423.432	1804.26
423.64	1837.03
423.848	2004.96
424.056	1988.58
424.263	2068.45
424.471	2056.16
424.679	2058.21
424.887	2228.19
425.094	2121.7
425.302	2256.86
425.51	2226.14
425.718	2383.84
425.925	2338.78
426.133	2496.47
426.341	2760.66
426.548	2922.45
426.756	2758.61
426.964	2912.21
427.171	2938.84
427.379	2977.75
427.586	3145.68
427.794	3190.74
428.001	3379.15
428.209	3481.55
428.417	3385.29
428.624	3739.59
428.832	3772.36
429.039	3657.67
429.247	3649.48
429.454	4079.55
429.662	4280.25
429.869	4253.63
430.076	4192.19
430.284	4235.2
430.491	4261.82
430.699	4679.61
430.906	4784.05
431.114	4571.07
431.321	4810.68
431.528	4945.84
431.736	5046.19
431.943	5545.9
432.15	5169.07
432.358	5355.44
432.565	5670.83
432.772	5713.83
432.979	6025.12
433.187	6117.28
433.394	6182.82
433.601	6586.27
433.808	6539.16
434.016	6666.14
434.223	6721.43
434.43	7313.3
434.637	7202.71
434.844	7544.72
435.052	7585.68
435.259	7591.82
435.466	7466.89
435.673	7585.68
435.88	8103.81
436.087	8677.24
436.294	8609.66
436.501	8478.59
436.708	8521.6
436.915	8693.63
437.122	9172.85
437.329	9002.87
437.537	9404.27
437.743	9609.07
437.95	9543.53
438.157	10114.92
438.364	10372.96
438.571	10424.16
438.778	10399.59
438.985	11358.03
439.192	11020.12
439.399	11521.87
439.606	11001.69
439.813	11720.53
440.02	12289.86
440.227	12189.51
440.433	12003.14
440.64	12355.4
440.847	12447.55
441.054	12640.06
441.261	13805.36
441.467	13268.79
441.674	13733.68
441.881	14206.76
442.088	14059.31
442.294	14077.74
442.501	14432.04
442.708	14896.92
442.914	15216.41
443.121	15759.12
443.328	15365.91
443.534	16664.32
443.741	16219.91
443.948	16150.28
444.154	17325.82
444.361	16854.78
444.568	17180.41
444.774	17086.2
444.981	17174.27
445.187	17809.14
445.394	18640.61
445.6	18331.37
445.807	20336.33
446.013	19232.47
446.22	19523.29
446.426	20457.16
446.633	20397.77
446.839	21223.1
447.046	20227.79
447.252	21395.13
447.459	21409.47
447.665	21655.22
447.871	22550.18
448.078	23613.08
448.284	22376.11
448.491	22754.98
448.697	23795.35
448.903	24172.18
449.11	24505.99
449.316	24028.82
449.522	24282.77
449.728	25220.74
449.935	25355.9
450.141	25566.84
450.347	25738.87
450.553	25052.8
450.76	25407.1
450.966	26058.35
451.172	25900.66
451.378	26613.35
451.584	25962.1
451.791	26900.07
451.997	26359.41
452.203	27123.3
452.409	27061.86
452.615	27203.17
452.821	26117.75
453.027	25740.92
453.233	27000.42
453.44	26107.51
453.646	26240.62
453.852	26238.58
454.058	26783.34
454.264	25869.94
454.47	26744.42
454.676	26044.02
454.882	26881.64
455.088	24710.79
455.294	25087.62
455.5	25243.26
455.705	25284.22
455.911	24467.08
456.117	24041.11
456.323	23873.17
456.529	22671.01
456.735	23484.06
456.941	22765.22
457.147	22630.05
457.352	21937.84
457.558	21483.19
457.764	21825.2
457.97	21145.28
458.176	20922.05
458.381	20778.69
458.587	19756.75
458.793	19859.15
458.999	18841.31
459.204	20141.77
459.41	19650.26
459.616	18022.12
459.821	18251.5
460.027	18142.96
460.233	17737.46
460.438	17045.24
460.644	17254.14
460.85	16451.33
461.055	16117.51
461.261	16135.95
461.466	14935.84
461.672	14581.54
461.878	15560.47
462.083	14532.39
462.289	14362.4
462.494	14100.26
462.7	13528.88
462.905	13078.33
463.111	13537.07
463.316	13319.99
463.522	13258.55
463.727	13360.95
463.932	13182.77
464.138	13276.98
464.343	13041.47
464.549	12767.04
464.754	13367.09
464.959	13119.29
465.165	12992.31
465.37	12449.6
465.575	12250.95
465.781	12664.64
465.986	12724.03
466.191	12234.57
466.397	12105.54
466.602	11530.06
466.807	12040.01
467.012	11933.51
467.218	11919.18
467.423	11913.03
467.628	11757.39
467.833	12302.15
468.038	11704.14
468.244	11632.46
468.449	12134.21
468.654	11611.98
468.859	11597.65
469.064	11476.82
469.269	10903.39
469.474	10989.4
469.679	11317.08
469.885	11040.6
470.09	11216.72
470.295	10950.49
470.5	10942.3
470.705	10942.3
470.91	10612.57
471.115	10483.55
471.32	10909.53
471.525	10600.29
471.73	10428.26
471.935	10241.89
472.139	9920.36
472.344	9985.9
472.549	10004.33
472.754	9912.17
472.959	9764.72
473.164	9549.68
473.369	9475.95
473.574	9809.77
473.778	9545.58
473.983	9504.62
474.188	9521.01
474.393	9207.67
474.598	9078.65
474.802	9017.21
475.007	9006.97
475.212	9006.97
475.417	8638.33
475.621	8671.1
475.826	8818.55
476.031	8550.27
476.235	8519.55
476.44	8478.59
476.645	8374.14
476.849	8396.67
477.054	8318.85
477.259	8124.29
477.463	8064.9
477.668	7927.69
477.872	8056.71
478.077	7913.35
478.282	7698.31
478.486	7792.52
478.691	7667.59
478.895	7518.09
479.1	7520.14
479.304	7524.24
479.509	7157.65
479.713	7427.98
479.918	7264.15
480.122	7128.98
480.326	7280.53
480.531	7194.51
480.735	7149.46
480.94	7153.55
481.144	7296.91
481.348	6956.95
481.553	6993.81
481.757	7059.35
481.961	6981.53
482.166	7137.17
482.37	7217.04
482.574	6979.48
482.778	7004.05
482.983	7030.68
483.187	6936.47
483.391	7045.01
483.595	6924.18
483.8	6961.05
484.004	6999.96
484.208	7141.27
484.412	7157.65
484.616	7014.29
484.821	7145.36
485.025	6856.6
485.229	6924.18
485.433	6887.32
485.637	7110.55
485.841	6973.33
486.045	6909.85
486.249	7055.25
486.453	7163.79
486.657	7108.5
486.861	7131.03
487.065	6883.22
487.269	6969.24
487.473	6901.65
487.677	6981.53
487.881	7026.58
488.085	7016.34
488.289	7067.54
488.493	6956.95
488.697	7141.27
488.901	6944.66
489.105	7161.75
489.309	7124.88
489.512	7102.36
489.716	7098.26
489.92	7045.01
490.124	7102.36
490.328	7198.61
490.531	7045.01
490.735	7202.71
490.939	7198.61
491.143	7032.72
491.346	7262.1
491.55	7354.26
491.754	7206.8
491.958	7393.17
492.161	7258
492.365	7466.89
492.569	7514
492.772	7417.74
492.976	7530.38
493.18	7481.23
493.383	7589.77
493.587	7593.87
493.79	7720.84
493.994	7620.49
494.197	7815.05
494.401	7716.75
494.605	7845.77
494.808	7810.95
495.012	7888.78
495.215	8097.67
495.419	7960.45
495.622	7989.13
495.825	8228.74
496.029	8140.68
496.232	8245.12
496.436	8435.58
496.639	8480.64
496.843	8449.92
497.046	8564.61
497.249	8730.49
497.453	8771.45
497.656	8775.55
497.859	8947.58
498.063	8970.1
498.266	9148.28
498.469	9158.52
498.673	9199.48
498.876	9293.68
499.079	9467.76
499.282	9502.58
499.485	9844.59
499.689	9600.88
499.892	9738.09
500.095	9840.49
500.298	9924.46
500.501	9842.54
500.705	10090.34
500.908	10573.66
501.111	10458.98
501.314	10430.3
501.517	10684.25
501.72	10637.15
501.923	10663.77
502.126	10850.14
502.329	11157.33
502.532	11263.83
502.735	11333.46
502.938	11566.93
503.141	11566.93
503.344	11747.15
503.547	11609.93
503.75	12091.21
503.953	12324.68
504.156	12236.61
504.359	12422.98
504.562	12644.16
504.765	12506.95
504.968	12961.59
505.17	12795.71
505.373	12908.35
505.576	13233.97
505.779	13195.06
505.982	13557.55
506.185	13578.03
506.387	13786.93
506.59	13793.07
506.793	14049.07
506.996	13868.84
507.198	14419.75
507.401	14231.33
507.604	14466.85
507.807	14804.77
508.009	14913.31
508.212	14984.99
508.415	15146.78
508.617	15357.72
508.82	15619.86
509.022	15435.54
509.225	15816.46
509.428	15757.07
509.63	16129.8
509.833	16131.85
510.035	16652.03
510.238	16477.96
510.44	16586.5
510.643	16948.99
510.845	17049.34
511.048	16869.12
511.25	17344.25
511.453	17311.48
511.655	17837.81
511.858	17731.31
512.06	17817.33
512.262	17983.21
512.465	18118.38
512.667	18706.15
512.87	18536.17
513.072	18732.77
513.274	19132.12
513.477	19283.67
513.679	19244.76
513.881	19635.92
514.084	19650.26
514.286	19828.43
514.488	19969.74
514.69	20344.52
514.893	20512.45
515.095	20422.34
515.297	20582.09
515.499	20969.15
515.701	21247.68
515.904	21233.34
516.106	21466.81
516.308	21343.93
516.51	22060.72
516.712	22036.14
516.914	22009.52
517.116	22425.26
517.318	22482.6
517.52	22642.34
517.722	22681.25
517.925	23137.95
518.127	23436.95
518.329	23453.34
518.531	23133.85
518.733	23740.05
518.935	23852.69
519.136	24002.19
519.338	24358.54
519.54	24305.29
519.742	24784.52
519.944	24536.71
520.146	25173.63
520.348	25265.79
520.55	25470.59
520.752	25603.71
520.954	25839.22
521.155	25734.78
521.357	26193.52
521.559	26257.01
521.761	26922.6
521.963	26599.02
522.164	26861.16
522.366	27039.33
522.568	27274.85
522.77	27711.07
522.971	27790.94
523.173	28038.74
523.375	27719.26
523.576	28032.6
523.778	27860.57
523.98	28395.09
524.181	28401.23
524.383	28446.29
524.584	28814.92
524.786	29027.91
524.988	28714.57
525.189	29150.79
525.391	29242.95
525.592	29419.07
525.794	29615.68
525.995	29451.84
526.197	29920.82
526.398	30207.54
526.6	30146.1
526.801	30094.9
527.003	30185.01
527.204	30090.8
527.406	30721.58
527.607	30791.21
527.808	30854.7
528.01	30502.45
528.211	30965.29
528.412	30838.31
528.614	31137.32
528.815	30961.19
529.016	31518.24
529.218	31295.01
529.419	31329.83
529.62	31393.31
529.822	31569.44
530.023	31204.9
530.224	31553.05
530.425	31606.3
530.626	31333.92
530.828	31520.29
531.029	31909.4
531.23	31581.73
531.431	31829.53
531.632	31823.39
531.833	32370.19
532.035	32185.88
532.236	31921.69
532.437	32099.86
532.638	32388.63
532.839	32357.91
533.04	32419.35
533.241	32091.67
533.442	32478.74
533.643	32243.22
533.844	32243.22
534.045	32259.6
534.246	32366.1
534.447	32681.49
534.648	32470.54
534.849	32507.41
535.05	32462.35
535.251	32491.02
535.451	32339.47
535.652	32640.53
535.853	32247.32
536.054	32628.24
536.255	32859.66
536.456	32017.94
536.657	32871.95
536.857	32028.18
537.058	32501.26
537.259	32382.48
537.46	32540.18
537.66	32353.81
537.861	32673.29
538.062	32382.48
538.263	32847.37
538.463	32550.42
538.664	32441.87
538.865	32601.61
539.065	32671.25
539.266	32482.83
539.466	32550.42
539.667	32292.37
539.868	32923.15
540.068	32513.55
540.269	32488.98
540.469	32583.18
540.67	32562.7
540.87	32486.93
541.071	32671.25
541.271	32738.83
541.472	32462.35
541.672	32751.12
541.873	32488.98
542.073	32173.59
542.274	32771.6
542.474	32796.17
542.675	32624.14
542.875	32679.44
543.075	32691.73
543.276	32132.63
543.476	32538.13
543.676	32273.94
543.877	32654.86
544.077	32437.78
544.277	32357.91
544.478	32333.33
544.678	32661.01
544.878	32343.57
545.078	32626.19
545.279	32280.08
545.479	32722.44
545.679	32994.82
545.879	32861.71
546.079	32620.05
546.28	32331.28
546.48	32439.82
546.68	32628.24
546.88	32556.56
547.08	32724.49
547.28	32288.28
547.48	32175.64
547.68	32542.22
547.88	32124.44
548.081	32378.39
548.281	32439.82
548.481	32411.15
548.681	32509.46
548.881	32357.91
549.081	32423.44
549.28	32134.68
549.48	32816.65
549.68	32601.61
549.88	32896.52
550.08	32235.03
550.28	32603.66
550.48	32155.16
550.68	32331.28
550.88	32235.03
551.08	32175.64
551.279	32572.94
551.479	32079.38
551.679	32628.24
551.879	32689.68
552.079	32484.88
552.278	32445.97
552.478	32431.63
552.678	32335.38
552.878	32636.43
553.077	32036.38
553.277	32173.59
553.477	32822.8
553.676	32296.47
553.876	32054.81
554.076	32370.19
554.275	32355.86
554.475	32046.61
554.674	32290.32
554.874	31985.18
555.074	32302.61
555.273	32390.67
555.473	32329.23
555.672	31850.01
555.872	32067.09
556.071	32181.78
556.271	32452.11
556.47	32177.68
556.67	31655.45
556.869	31966.74
557.068	32146.97
557.268	31727.13
557.467	31983.13
557.667	32163.35
557.866	32081.43
558.065	31743.52
558.265	31913.5
558.464	31579.68
558.663	31942.17
558.863	31567.39
559.062	32263.7
559.261	31536.67
559.461	31981.08
559.66	31555.1
559.859	31782.43
560.058	31389.22
560.258	31573.53
560.457	31397.41
560.656	31333.92
560.855	31356.45
561.054	31587.87
561.253	31288.87
561.453	31600.16
561.652	31411.74
561.851	31362.59
562.05	31088.17
562.249	31188.52
562.448	31274.53
562.647	31163.94
562.846	30748.2
563.045	30875.18
563.244	30531.12
563.443	31129.12
563.642	30336.56
563.841	30694.96
564.04	30596.65
564.239	31170.08
564.438	30637.61
564.637	30930.47
564.836	30742.06
565.035	30504.49
565.234	30621.23
565.432	30602.8
565.631	30375.47
565.83	30524.97
566.029	30279.22
566.228	30205.49
566.427	30232.11
566.625	30086.71
566.824	29890.1
567.023	30326.32
567.222	29666.88
567.42	30176.82
567.619	29638.2
567.818	29660.73
568.016	29662.78
568.215	29906.49
568.414	29638.2
568.612	29920.82
568.811	29361.73
569.01	29668.92
569.208	29191.75
569.407	29445.69
569.605	29038.15
569.804	29625.92
570.002	29386.3
570.201	29222.47
570.4	28919.37
570.598	29152.84
570.797	28714.57
570.995	29134.4
571.193	28708.43
571.392	29019.72
571.59	28851.78
571.789	28583.5
571.987	28522.06
572.186	28159.57
572.384	28626.51
572.582	28581.45
572.781	28624.46
572.979	28167.76
573.177	28186.19
573.376	28356.18
573.574	28337.74
573.772	28364.37
573.971	28091.99
574.169	28067.41
574.367	27635.29
574.565	28104.28
574.763	27985.49
574.962	27876.95
575.16	27797.08
575.358	27790.94
575.556	27541.08
575.754	27801.18
575.952	27098.72
576.151	27676.25
576.349	27352.67
576.547	27289.18
576.745	27450.97
576.943	27340.38
577.141	27301.47
577.339	27213.41
577.537	26979.94
577.735	26965.6
577.933	26900.07
578.131	27299.42
578.329	26709.61
578.527	26723.94
578.725	26855.01
578.923	27047.52
579.121	26535.53
579.319	26664.55
579.516	26629.74
579.714	26721.9
579.912	26545.77
580.11	26490.48
580.308	26412.65
580.506	25925.24
580.704	25886.32
580.901	26205.81
581.099	26343.02
581.297	25611.9
581.495	25773.69
581.692	26017.39
581.89	25681.53
582.088	25779.83
582.285	25411.2
582.483	25759.35
582.681	25613.95
582.878	25595.51
583.076	25396.86
583.274	25216.64
583.471	25259.65
583.669	25179.78
583.866	25319.04
584.064	25495.16
584.262	25065.09
584.459	25388.67
584.657	25052.8
584.854	24981.12
585.052	24673.93
585.249	24794.76
585.447	25097.86
585.644	24516.23
585.841	24567.43
586.039	25022.08
586.236	24419.98
586.434	24604.3
586.631	24366.73
586.828	24690.31
587.026	24354.44
587.223	24096.4
587.42	24444.55
587.618	24221.33
587.815	23959.19
588.012	24061.58
588.21	23887.51
588.407	24137.36
588.604	24049.3
588.801	23885.46
588.999	23953.04
589.196	23813.78
589.393	23697.05
589.59	23592.6
589.787	23482.01
589.984	23574.17
590.182	23303.84
590.379	23400.09
590.576	23109.28
590.773	23221.92
590.97	23107.23
591.167	23283.36
591.364	22939.3
591.561	23158.43
591.758	22814.37
591.955	22990.5
592.152	23086.75
592.349	22884
592.546	22951.59
592.743	22507.18
592.94	22390.44
593.137	22490.79
593.334	22716.07
593.531	22230.7
593.727	22458.03
593.924	22273.71
594.121	22259.37
594.318	21962.42
594.515	22103.73
594.712	22058.67
594.908	21956.27
595.105	22021.81
595.302	21894.83
595.499	22095.53
595.696	21894.83
595.892	21513.91
596.089	21804.72
596.286	21808.82
596.482	21905.07
596.679	21925.55
596.876	21855.92
597.072	21335.74
597.269	21581.49
597.466	21151.42
597.662	21298.87
597.859	21149.37
598.055	21085.89
598.252	21266.11
598.448	21141.18
598.645	21016.26
598.841	21049.02
599.038	21059.26
599.234	21042.88
599.431	20365
599.627	20479.69
599.824	20684.48
600.02	20625.09
600.217	20696.77
600.413	20395.72
600.609	20311.75
600.806	20205.26
601.002	20174.54
601.198	20215.5
601.395	20197.07
601.591	20264.65
601.787	20207.31
601.984	20072.14
602.18	20207.31
602.376	20057.81
602.572	19828.43
602.769	20014.8
602.965	19820.24
603.161	19762.9
603.357	19488.47
603.553	19402.46
603.75	19572.44
603.946	19617.49
604.142	19617.49
604.338	19193.56
604.534	19338.97
604.73	19115.74
604.926	18902.75
605.122	19345.11
605.318	18968.29
605.514	18878.18
605.71	18968.29
605.906	18874.08
606.102	18921.18
606.298	18865.89
606.494	18941.66
606.69	19140.32
606.886	18779.87
607.082	18562.79
607.278	18536.17
607.474	18394.86
607.67	18769.63
607.866	18419.43
608.062	18444.01
608.257	18378.47
608.453	18351.85
608.649	18638.56
608.845	18323.18
609.041	18081.52
609.236	18206.44
609.432	18431.72
609.628	18284.26
609.824	18151.15
610.019	18030.32
610.215	18140.91
610.411	18192.11
610.606	18081.52
610.802	18319.08
610.998	17843.95
611.193	18026.22
611.389	17858.29
611.584	17819.38
611.78	17737.46
611.976	18185.96
612.171	17934.06
612.367	18040.56
612.562	17905.39
612.758	17495.8
612.953	17602.29
613.149	17821.42
613.344	17753.84
613.539	17823.47
613.735	17581.81
613.93	17549.04
614.126	17731.31
614.321	17802.99
614.517	17567.48
614.712	17618.68
614.907	17624.82
615.103	17583.86
615.298	17233.66
615.493	17516.28
615.688	17331.96
615.884	17438.45
616.079	17272.57
616.274	17544.95
616.47	17514.23
616.665	17170.17
616.86	17080.06
617.055	17045.24
617.25	16840.45
617.445	17325.82
617.641	17039.1
617.836	16975.61
618.031	16905.98
618.226	17045.24
618.421	16733.95
618.616	17090.3
618.811	16768.77
619.006	17137.4
619.201	16297.74
619.396	16918.27
619.591	16387.85
619.786	16910.08
619.981	16543.49
620.176	16580.35
620.371	16137.99
620.566	16520.96
620.761	16226.06
620.956	16137.99
621.151	15914.77
621.346	16101.13
621.541	15662.86
621.735	15945.48
621.93	15490.84
622.125	15884.05
622.32	15400.73
622.515	15755.02
622.709	15484.69
622.904	15544.08
623.099	15304.47
623.294	15378.2
623.488	14956.32
623.683	15347.48
623.878	15058.71
624.072	15054.62
624.267	14972.7
624.462	15030.04
624.656	14716.7
624.851	14702.37
625.046	14739.23
625.24	14599.97
625.435	14374.69
625.629	14384.93
625.824	14505.76
626.018	14305.06
626.213	14063.4
626.407	14063.4
626.602	14280.49
626.796	14106.41
626.991	13997.87
627.185	13604.66
627.38	13608.75
627.574	13717.29
627.768	13649.71
627.963	13432.63
628.157	13489.97
628.352	13438.77
628.546	13307.7
628.74	13319.99
628.935	13268.79
629.129	13176.63
629.323	12816.19
629.517	13156.15
629.712	12977.98
629.906	13029.18
630.1	12592.96
630.294	12752.7
630.489	12635.97
630.683	12674.88
630.877	12584.77
631.071	12478.27
631.265	12529.47
631.459	12324.68
631.653	12472.13
631.848	12072.78
632.042	12105.54
632.236	12435.27
632.43	11968.33
632.624	12076.87
632.818	12048.2
633.012	11886.41
633.206	11779.92
633.4	11857.74
633.594	11558.74
633.788	11667.28
633.982	11722.57
634.176	11814.73
634.369	11507.54
634.563	11456.34
634.757	11177.81
634.951	11413.33
635.145	11388.75
635.339	11298.64
635.533	11335.51
635.726	11194.2
635.92	11077.46
636.114	10934.11
636.308	10932.06
636.501	10979.16
636.695	11149.14
636.889	10868.57
637.083	10549.09
637.276	10622.81
637.47	10768.22
637.664	10604.38
637.857	10530.66
638.051	10598.24
638.244	10463.07
638.438	10452.83
638.632	10340.19
638.825	10276.71
639.019	10202.98
639.212	10219.36
639.406	10088.29
639.599	10018.66
639.793	10004.33
639.986	10151.78
640.18	10010.47
640.373	9949.03
640.567	9856.87
640.76	9774.95
640.954	9768.81
641.147	9654.12
641.34	9449.33
641.534	9570.16
641.727	9365.36
641.92	9539.44
642.114	9385.84
642.307	9451.38
642.5	9166.71
642.694	9256.82
642.887	9219.96
643.08	9338.74
643.273	9215.86
643.467	8963.96
643.66	9140.08
643.853	9117.56
644.046	8992.63
644.239	9049.97
644.432	9084.79
644.626	9109.36
644.819	8658.81
645.012	8726.39
645.205	8658.81
645.398	8941.43
645.591	8652.67
645.784	8642.43
645.977	8345.47
646.17	8621.95
646.363	8550.27
646.556	8456.06
646.749	8497.02
646.942	8345.47
647.135	8218.5
647.328	8208.26
647.521	8451.97
647.714	8128.39
647.907	8238.98
648.099	8015.75
648.292	8009.61
648.485	8241.03
648.678	8023.94
648.871	8042.37
649.064	7837.58
649.256	8171.4
649.449	7821.19
649.642	7939.97
649.835	7804.81
650.027	7772.04
650.22	7585.68
650.413	7745.42
650.605	7673.74
650.798	7731.08
650.991	7432.08
651.183	7651.21
651.376	7442.32
651.568	7415.69
651.761	7567.24
651.954	7546.76
652.146	7337.87
652.339	7208.85
652.531	7534.48
652.724	7380.88
652.916	6983.57
653.109	7002.01
653.301	7214.99
653.494	7223.19
653.686	6879.13
653.879	7088.02
654.071	6883.22
654.263	6827.93
654.456	6932.37
654.648	6862.74
654.84	6698.91
655.033	6897.56
655.225	6786.97
655.417	6682.52
655.61	6772.63
655.802	6844.31
655.994	6688.67
656.186	6584.22
656.379	6524.83
656.571	6522.78
656.763	6567.84
656.955	6416.29
657.148	6526.88
657.34	6354.85
657.532	6328.22
657.724	6389.66
657.916	6315.94
658.108	6309.79
658.3	6238.11
658.492	6277.02
658.684	6225.82
658.876	6201.25
659.068	6221.73
659.26	5914.53
659.452	6221.73
659.644	6102.95
659.836	5975.97
660.028	5975.97
660.22	5834.66
660.412	6074.28
660.604	5894.05
660.796	5957.54
660.988	5773.22
661.18	5793.7
661.372	5812.14
661.563	5857.19
661.755	5826.47
661.947	5693.35
662.139	5728.17
662.331	5732.26
662.522	5615.53
662.714	5623.72
662.906	5685.16
663.097	5576.62
663.289	5552.04
663.481	5509.04
663.673	5451.69
663.864	5484.46
664.056	5515.18
664.247	5296.05
664.439	5296.05
664.631	5380.01
664.822	5361.58
665.014	5525.42
665.205	5320.62
665.397	5369.77
665.588	5265.33
665.78	5189.55
665.971	5255.09
666.163	5261.23
666.354	5109.68
666.546	5224.37
666.737	5003.19
666.929	5158.83
667.12	5027.76
667.311	5019.57
667.503	5058.48
667.694	4951.99
667.885	4939.7
668.077	5042.1
668.268	5025.72
668.459	4947.89
668.651	4917.17
668.842	4849.59
669.033	4927.41
669.224	4847.54
669.416	4960.18
669.607	4777.91
669.798	4927.41
669.989	4732.86
670.18	4734.9
670.371	4726.71
670.563	4714.42
670.754	4734.9
670.945	4745.14
671.136	4726.71
671.327	4585.4
671.518	4638.65
671.709	4782.01
671.9	4577.21
672.091	4691.9
672.282	4597.69
672.473	4493.24
672.664	4601.79
672.855	4489.15
673.046	4571.07
673.237	4556.73
673.428	4575.16
673.619	4519.87
673.809	4495.29
674	4534.2
674.191	4532.15
674.382	4376.51
674.573	4415.42
674.764	4462.52
674.954	4526.01
675.145	4409.28
675.336	4304.83
675.527	4308.93
675.717	4452.28
675.908	4347.84
676.099	4278.21
676.289	4261.82
676.48	4270.01
676.671	4284.35
676.861	4321.21
677.052	4157.38
677.243	4169.66
677.433	4261.82
677.624	4308.93
677.814	4270.01
678.005	4171.71
678.195	4345.79
678.386	4173.76
678.576	4153.28
678.767	4157.38
678.957	4032.45
679.148	4294.59
679.338	4171.71
679.529	4214.72
679.719	4118.47
679.909	4069.31
680.1	4097.99
680.29	3956.68
680.481	4177.86
680.671	4192.19
680.861	4143.04
681.052	4294.59
681.242	4095.94
681.432	4063.17
681.622	4036.55
681.813	3989.44
682.003	4020.16
682.193	3960.77
682.383	4089.79
682.573	4044.74
682.764	3964.87
682.954	4022.21
683.144	4067.27
683.334	4038.59
683.524	4042.69
683.714	3977.16
683.904	3940.29
684.094	4016.07
684.284	4065.22
684.474	4081.6
684.664	3973.06
684.854	3788.74
685.044	3944.39
685.234	3807.17
685.424	3991.49
685.614	3864.52
685.804	3872.71
685.994	3911.62
686.184	3868.61
686.374	3678.15
686.564	3909.57
686.753	3766.21
686.943	3809.22
687.133	3801.03
687.323	3676.1
687.513	3723.21
687.702	3637.19
687.892	3784.65
688.082	3629
688.272	3694.54
688.461	3696.58
688.651	3688.39
688.841	3588.04
689.03	3592.14
689.22	3581.9
689.41	3497.93
689.599	3440.59
689.789	3491.79
689.979	3536.84
690.168	3409.87
690.358	3413.96
690.547	3434.44
690.737	3571.66
690.926	3401.68
691.116	3422.16
691.305	3522.51
691.495	3323.85
691.684	3336.14
691.874	3340.24
692.063	3356.62
692.252	3366.86
692.442	3381.2
692.631	3166.16
692.82	3211.21
693.01	3217.36
693.199	3319.76
693.388	3323.85
693.578	3346.38
693.767	3153.87
693.956	3229.65
694.146	3100.62
694.335	3151.82
694.524	3102.67
694.713	3227.6
694.902	3192.78
695.092	3059.67
695.281	3092.43
695.47	2983.89
695.659	3043.28
695.848	2981.84
696.037	3153.87
696.226	3135.44
696.415	3141.58
696.604	3039.19
696.793	3106.77
696.982	2947.03
697.171	3125.2
697.36	3174.35
697.549	2947.03
697.738	2983.89
697.927	3080.14
698.116	2965.46
698.305	2842.58
698.494	3121.1
698.683	2949.07
698.872	2994.13
699.061	3008.47
699.25	3108.82
699.438	3033.04
699.627	2965.46
699.816	2877.4
700.005	2975.7
700.193	2971.6
700.382	2979.79
700.571	3024.85
700.76	2906.07
700.948	2955.22
701.137	2844.63
701.326	2936.79
701.514	2875.35
701.703	2959.31
701.892	2815.96
702.08	2822.1
702.269	2922.45
702.457	2992.08
702.646	2947.03
702.834	2758.61
703.023	2940.88
703.212	2979.79
703.4	2873.3
703.589	2848.72
703.777	2887.64
703.965	2850.77
704.154	2779.09
704.342	2875.35
704.531	2875.35
704.719	2914.26
704.907	2805.72
705.096	2795.48
705.284	2846.68
705.472	2895.83
705.661	2944.98
705.849	2904.02
706.037	2899.92
706.226	2803.67
706.414	2762.71
706.602	2818
706.79	2887.64
706.979	2832.34
707.167	2834.39
707.355	2709.46
707.543	2969.55
707.731	2856.92
707.919	2865.11
708.107	2832.34
708.296	2674.65
708.484	2904.02
708.672	2709.46
708.86	2805.72
709.048	2729.94
709.236	2813.91
709.424	2893.78
709.612	2815.96
709.8	2844.63
709.988	2828.24
710.176	2873.3
710.364	2793.43
710.551	2717.65
710.739	2893.78
710.927	2811.86
711.115	2777.05
711.303	2840.53
711.491	2850.77
711.679	2734.04
711.866	2871.25
712.054	2877.4
712.242	2736.09
712.43	2895.83
712.617	2791.38
712.805	2775
712.993	2793.43
713.181	2787.29
713.368	2889.68
713.556	2877.4
713.744	2701.27
713.931	2908.12
714.119	2750.42
714.306	2727.89
714.494	2830.29
714.682	2838.48
714.869	2832.34
715.057	2793.43
715.244	2779.09
715.432	2916.31
715.619	2824.15
715.807	2785.24
715.994	2828.24
716.182	2725.85
716.369	2764.76
716.556	2770.9
716.744	2738.13
716.931	2695.13
717.119	2832.34
717.306	2820.05
717.493	2834.39
717.681	2916.31
717.868	2762.71
718.055	2834.39
718.242	2764.76
718.43	2803.67
718.617	2912.21
718.804	2875.35
718.991	2873.3
719.179	2932.69
719.366	2854.87
719.553	2736.09
719.74	2820.05
719.927	2869.2
720.114	2818
720.301	2824.15
720.488	2740.18
720.676	2813.91
720.863	2811.86
721.05	2920.4
721.237	2885.59
721.424	2889.68
721.611	2846.68
721.798	2797.53
721.985	2742.23
722.172	2822.1
722.358	2795.48
722.545	2818
722.732	2768.85
722.919	2942.93
723.106	2791.38
723.293	2871.25
723.48	2803.67
723.667	2785.24
723.853	2951.12
724.04	2959.31
724.227	2895.83
724.414	2754.52
724.6	2752.47
724.787	2760.66
724.974	2801.62
725.161	2697.17
725.347	2854.87
725.534	2846.68
725.72	2850.77
725.907	2848.72
726.094	2981.84
726.28	2826.2
726.467	2871.25
726.653	2836.44
726.84	2861.01
727.027	2918.36
727.213	2844.63
727.4	2846.68
727.586	2830.29
727.773	2811.86
727.959	2766.81
728.145	2824.15
728.332	2869.2
728.518	2828.24
728.705	2789.33
728.891	2867.16
729.077	2910.16
729.264	2779.09
729.45	2848.72
729.636	2830.29
729.823	2770.9
730.009	2775
730.195	2809.81
730.382	2875.35
730.568	2781.14
730.754	2850.77
730.94	2899.92
731.126	2877.4
731.313	2947.03
731.499	2832.34
731.685	2977.75
731.871	2904.02
732.057	2850.77
732.243	2824.15
732.429	2883.54
732.615	2875.35
732.801	2928.6
732.987	2848.72
733.173	2807.77
733.359	2875.35
733.545	2781.14
733.731	2883.54
733.917	2877.4
734.103	2764.76
734.289	2717.65
734.475	2731.99
734.661	2764.76
734.847	2891.73
735.033	2772.95
735.219	2842.58
735.404	2867.16
735.59	2779.09
735.776	2838.48
735.962	2949.07
736.148	2854.87
736.333	2680.79
736.519	2701.27
736.705	2754.52
736.89	2736.09
737.076	2734.04
737.262	2750.42
737.447	2672.6
737.633	2734.04
737.819	2731.99
738.004	2656.22
738.19	2684.89
738.375	2695.13
738.561	2719.7
738.747	2752.47
738.932	2713.56
739.118	2807.77
739.303	2885.59
739.489	2807.77
739.674	2711.51
739.859	2705.37
740.045	2588.63
740.23	2705.37
740.416	2662.36
740.601	2684.89
740.786	2705.37
740.972	2553.82
741.157	2701.27
741.342	2828.24
741.528	2707.41
741.713	2633.69
741.898	2639.83
742.084	2588.63
742.269	2525.15
742.454	2547.67
742.639	2574.3
742.824	2500.57
743.01	2508.76
743.195	2557.91
743.38	2543.58
743.565	2549.72
743.75	2578.39
743.935	2594.78
744.12	2492.38
744.305	2496.47
744.49	2539.48
744.675	2488.28
744.86	2451.42
745.045	2488.28
745.23	2475.99
745.415	2455.51
745.6	2406.36
745.785	2463.71
745.97	2389.98
746.155	2398.17
746.34	2353.12
746.525	2359.26
746.71	2351.07
746.895	2308.06
747.079	2398.17
747.264	2271.2
747.449	2308.06
747.634	2363.36
747.819	2334.68
748.003	2240.48
748.188	2256.86
748.373	2269.15
748.557	2252.77
748.742	2228.19
748.927	2306.01
749.111	2207.71
749.296	2240.48
749.481	2201.57
749.665	2095.07
749.85	2111.46
750.034	2185.18
750.219	2181.09
750.404	2023.39
750.588	2125.79
750.773	2002.91
750.957	2086.88
751.141	2086.88
751.326	2107.36
751.51	2097.12
751.695	2000.87
751.879	1974.24
752.064	1990.63
752.248	2027.49
752.432	2023.39
752.617	1996.77
752.801	2000.87
752.985	1865.7
753.17	1970.15
753.354	1892.32
753.538	1953.76
753.722	1763.3
753.907	1785.83
754.091	1814.5
754.275	1935.33
754.459	1865.7
754.643	1794.02
754.828	1796.07
755.012	1716.2
755.196	1710.05
755.38	1779.68
755.564	1626.09
755.748	1665
755.932	1673.19
756.116	1658.85
756.3	1744.87
756.484	1597.42
756.668	1619.94
756.852	1505.26
757.036	1652.71
757.22	1613.8
757.404	1683.43
757.588	1521.64
757.772	1607.66
757.956	1621.99
758.14	1447.91
758.323	1595.37
758.507	1628.14
758.691	1589.22
758.875	1492.97
759.059	1587.18
759.242	1449.96
759.426	1478.63
759.61	1613.8
759.794	1441.77
759.977	1486.83
760.161	1366
760.345	1445.87
760.528	1423.34
760.712	1384.43
760.895	1499.11
761.079	1376.23
761.263	1298.41
761.446	1486.83
761.63	1353.71
761.813	1380.33
761.997	1290.22
762.18	1466.35
762.364	1380.33
762.547	1320.94
762.731	1255.4
762.914	1249.26
763.098	1357.8
763.281	1267.69
763.464	1300.46
763.648	1327.08
763.831	1325.04
764.015	1286.12
764.198	1333.23
764.381	1243.12
764.564	1181.68
764.748	1220.59
764.931	1318.89
765.114	1275.88
765.297	1284.08
765.481	1239.02
765.664	1185.77
765.847	1163.25
766.03	1247.21
766.213	1159.15
766.397	1214.45
766.58	1185.77
766.763	1269.74
766.946	1163.25
767.129	1183.73
767.312	1159.15
767.495	1153.01
767.678	1177.58
767.861	1187.82
768.044	1124.33
768.227	1028.08
768.41	1118.19
768.593	1126.38
768.776	1193.97
768.959	1095.66
769.142	1148.91
769.324	1114.09
769.507	1075.18
769.69	1171.44
769.873	1173.49
770.056	1146.86
770.239	1142.77
770.421	1146.86
770.604	1179.63
770.787	1101.81
770.97	1023.98
771.152	1032.18
771.335	1003.5
771.518	1015.79
771.7	1058.8
771.883	1054.7
772.066	1050.61
772.248	1075.18
772.431	1026.03
772.613	985.07
772.796	1021.94
772.978	1140.72
773.161	991.22
773.343	995.31
773.526	913.39
773.708	978.93
773.891	1017.84
774.073	1011.7
774.256	829.43
774.438	980.98
774.621	983.02
774.803	935.92
774.985	899.06
775.168	897.01
775.35	956.4
775.532	874.48
775.715	933.87
775.897	927.73
776.079	864.24
776.261	915.44
776.444	989.17
776.626	808.95
776.808	923.63
776.99	827.38
777.173	761.84
777.355	876.53
777.537	847.86
777.719	761.84
777.901	862.19
778.083	886.77
778.265	860.15
778.447	808.95
778.629	792.56
778.811	770.04
778.993	759.8
779.175	770.04
779.357	739.32
779.539	765.94
779.721	733.17
779.903	774.13
780.085	747.51
780.267	731.12
780.449	716.79
780.631	714.74
780.812	788.47
780.994	679.93
781.176	735.22
781.358	702.45
781.54	665.59
781.721	686.07
781.903	673.78
782.085	653.3
782.267	751.6
782.448	647.16
782.63	696.31
782.812	571.38
782.993	608.25
783.175	692.21
783.357	622.58
783.538	694.26
783.72	702.45
783.901	626.68
784.083	495.61
784.264	677.88
784.446	581.62
784.627	589.81
784.809	608.25
784.99	593.91
785.172	618.49
785.353	548.86
785.535	550.9
785.716	555
785.897	614.39
786.079	536.57
786.26	610.29
786.441	593.91
786.623	520.18
786.804	499.7
786.985	602.1
787.167	610.29
787.348	544.76
787.529	536.57
787.71	569.34
787.891	540.66
788.073	491.51
788.254	559.1
788.435	450.55
788.616	432.12
788.797	534.52
788.978	585.72
789.159	477.18
789.34	534.52
789.522	446.46
789.703	509.94
789.884	485.37
790.065	434.17
790.246	432.12
790.427	493.56
790.607	438.27
790.788	516.09
790.969	481.27
791.15	423.93
791.331	452.6
791.512	493.56
791.693	446.46
791.874	358.39
792.054	489.46
792.235	501.75
792.416	497.66
792.597	350.2
792.778	444.41
792.958	444.41
793.139	382.97
793.32	399.35
793.5	385.02
793.681	458.74
793.862	468.98
794.042	333.82
794.223	442.36
794.404	423.93
794.584	327.67
794.765	325.63
794.945	407.55
795.126	391.16
795.306	419.83
795.487	413.69
795.667	337.91
795.848	419.83
796.028	323.58
796.209	315.39
796.389	415.74
796.57	395.26
796.75	331.77
796.93	423.93
797.111	423.93
797.291	350.2
797.471	411.64
797.652	346.11
797.832	346.11
798.012	389.11
798.192	313.34
798.373	360.44
798.553	362.49
798.733	389.11
798.913	309.24
799.093	409.59
799.274	262.14
799.454	327.67
799.634	315.39
799.814	311.29
799.994	362.49
800.174	274.43
800.354	294.91
800.534	321.53
800.714	354.3
800.894	329.72
801.074	335.87
801.254	301.05
801.434	382.97
801.614	262.14
801.794	239.61
801.974	776.18
802.154	268.28
802.334	321.53
802.514	268.28
802.693	358.39
802.873	237.56
803.053	382.97
803.233	247.8
803.413	307.2
803.592	323.58
803.772	274.43
803.952	221.18
804.131	329.72
804.311	296.96
804.491	323.58
804.67	233.47
804.85	305.15
805.03	274.43
805.209	321.53
805.389	149.5
805.568	299
805.748	169.98
805.928	315.39
806.107	169.98
806.287	270.33
806.466	307.2
806.646	262.14
806.825	288.76
807.004	237.56
807.184	256
807.363	212.99
807.543	292.86
807.722	272.38
807.901	235.52
808.081	223.23
808.26	182.27
808.439	307.2
808.619	366.59
808.798	243.71
808.977	276.48
809.156	315.39
809.336	239.61
809.515	272.38
809.694	212.99
809.873	186.37
810.052	284.67
810.231	266.24
810.411	241.66
810.59	335.87
810.769	249.85
810.948	348.15
811.127	169.98
811.306	219.13
811.485	188.41
811.664	315.39
811.843	217.08
812.022	176.13
812.201	208.89
812.38	274.43
812.559	253.95
812.737	288.76
812.916	163.84
813.095	243.71
813.274	215.04
813.453	229.37
813.632	174.08
813.811	251.9
813.989	120.83
814.168	149.5
814.347	210.94
814.526	282.62
814.704	184.32
814.883	180.22
815.062	251.9
815.24	204.8
815.419	182.27
815.598	247.8
815.776	151.55
815.955	299
816.133	86.01
816.312	155.65
816.49	202.75
816.669	190.46
816.847	221.18
817.026	206.84
817.204	151.55
817.383	221.18
817.561	188.41
817.74	192.51
817.918	153.6
818.097	147.45
818.275	147.45
818.453	243.71
818.632	174.08
818.81	165.89
818.988	219.13
819.167	202.75
819.345	172.03
819.523	157.69
819.701	288.76
819.879	149.5
820.058	184.32
820.236	194.56
820.414	174.08
820.592	145.41
820.77	112.64
820.948	169.98
821.127	159.74
821.305	178.17
821.483	159.74
821.661	210.94
821.839	129.02
822.017	75.77
822.195	180.22
822.373	194.56
822.551	135.17
822.729	165.89
822.907	194.56
823.085	172.03
823.262	110.59
823.44	124.93
823.618	96.25
823.796	190.46
823.974	133.12
824.152	182.27
824.329	167.93
824.507	161.79
824.685	120.83
824.863	139.26
825.04	153.6
825.218	131.07
825.396	169.98
825.574	184.32
825.751	133.12
825.929	157.69
826.107	116.73
826.284	178.17
826.462	196.6
826.639	147.45
826.817	133.12
826.994	122.88
827.172	210.94
827.349	174.08
827.527	165.89
827.704	124.93
827.882	206.84
828.059	83.97
828.237	172.03
828.414	161.79
828.591	124.93
828.769	120.83
828.946	104.45
829.124	161.79
829.301	120.83
829.478	104.45
829.655	92.16
829.833	126.97
830.01	38.91
830.187	219.13
830.364	159.74
830.542	145.41
830.719	124.93
830.896	155.65
831.073	159.74
831.25	180.22
831.427	249.85
831.604	165.89
831.782	69.63
831.959	149.5
832.136	79.87
832.313	155.65
832.49	114.69
832.667	161.79
832.844	63.49
833.021	163.84
833.198	98.3
833.374	102.4
833.551	131.07
833.728	151.55
833.905	135.17
834.082	106.49
834.259	141.31
834.436	100.35
834.612	53.25
834.789	165.89
834.966	98.3
835.143	221.18
835.319	149.5
835.496	53.25
835.673	43.01
835.85	108.54
836.026	118.78
836.203	153.6
836.38	32.77
836.556	73.73
836.733	92.16
836.909	108.54
837.086	63.49
837.262	73.73
837.439	202.75
837.616	129.02
837.792	114.69
837.968	126.97
838.145	28.67
838.321	59.39
838.498	51.2
838.674	96.25
838.851	106.49
839.027	116.73
839.203	55.3
839.38	174.08
839.556	88.06
839.732	98.3
839.909	51.2
840.085	139.26
840.261	108.54
840.437	118.78
840.614	116.73
840.79	106.49
840.966	155.65
841.142	112.64
841.318	43.01
841.494	112.64
841.671	104.45
841.847	149.5
842.023	24.58
842.199	94.21
842.375	104.45
842.551	45.06
842.727	34.82
842.903	106.49
843.079	137.21
843.255	86.01
843.431	81.92
843.607	139.26
843.783	63.49
843.959	135.17
844.134	79.87
844.31	110.59
844.486	79.87
844.662	131.07
844.838	94.21
845.013	100.35
845.189	45.06
845.365	81.92
845.541	14.34
845.716	88.06
845.892	86.01
846.068	106.49
846.244	59.39
846.419	94.21
846.595	65.53
846.77	73.73
846.946	77.82
847.122	24.58
847.297	34.82
847.473	69.63
847.648	45.06
847.824	110.59
847.999	73.73
848.175	53.25
848.35	75.77
848.526	65.53
848.701	112.64
848.876	88.06
849.052	47.1
849.227	108.54
849.403	51.2
849.578	43.01
849.753	73.73
849.929	77.82
850.104	69.63
850.279	98.3
850.454	165.89
850.63	129.02
850.805	96.25
850.98	51.2
851.155	47.1
851.33	106.49
851.505	22.53
851.681	73.73
851.856	88.06
852.031	83.97
852.206	73.73
852.381	81.92
852.556	77.82
852.731	2.05
852.906	67.58
853.081	79.87
853.256	129.02
853.431	57.34
853.606	81.92
853.781	77.82
853.956	53.25
854.131	143.36
854.305	45.06
854.48	16.38
854.655	59.39
854.83	55.3
855.005	18.43
855.18	90.11
855.354	102.4
855.529	28.67
855.704	90.11
855.879	102.4
856.053	16.38
856.228	59.39
856.403	38.91
856.577	124.93
856.752	75.77
856.926	110.59
857.101	69.63
857.276	45.06
857.45	159.74
857.625	102.4
857.799	81.92
857.974	47.1
858.148	12.29
858.323	124.93
858.497	45.06
858.672	75.77
858.846	63.49
859.02	98.3
859.195	65.53
859.369	126.97
859.543	69.63
859.718	120.83
859.892	47.1
860.066	122.88
860.241	43.01
860.415	45.06
860.589	36.86
860.763	28.67
860.938	12.29
861.112	118.78
861.286	75.77
861.46	75.77
861.634	157.69
861.808	38.91
861.982	77.82
862.157	86.01
862.331	81.92
862.505	40.96
862.679	30.72
862.853	4.1
863.027	-14.34
863.201	155.65
863.375	-10.24
863.549	169.98
863.722	2.05
863.896	63.49
864.07	100.35
864.244	94.21
864.418	98.3
864.592	28.67
864.766	65.53
864.939	61.44
865.113	6.14
865.287	81.92
865.461	34.82
865.634	77.82
865.808	40.96
865.982	-10.24
866.156	16.38
866.329	20.48
866.503	86.01
866.676	90.11
866.85	96.25
867.024	-2.05
867.197	49.15
867.371	75.77
867.544	65.53
867.718	-28.67
867.891	57.34
868.065	12.29
868.238	16.38
868.412	112.64
868.585	98.3
868.759	34.82
868.932	67.58
869.105	67.58
869.279	55.3
869.452	30.72
869.625	108.54
869.799	8.19
869.972	86.01
870.145	36.86
870.319	61.44
870.492	102.4
870.665	77.82
870.838	43.01
871.011	32.77
871.185	32.77
871.358	8.19
871.531	94.21
871.704	40.96
871.877	22.53
872.05	61.44
872.223	86.01
872.396	120.83
872.569	83.97
872.742	38.91
872.915	77.82
873.088	-6.14
873.261	6.14
873.434	65.53
873.607	36.86
873.78	83.97
873.953	26.62
874.126	20.48
874.299	57.34
874.471	120.83
874.644	69.63
874.817	49.15
874.99	57.34
875.163	16.38
875.335	-8.19
875.508	20.48
875.681	88.06
875.853	-32.77
876.026	126.97
876.199	59.39
876.371	22.53
876.544	49.15
876.717	45.06
876.889	61.44
877.062	81.92
877.234	47.1
877.407	-4.1
877.579	49.15
877.752	16.38
877.924	83.97
878.097	51.2
878.269	30.72
878.442	67.58
878.614	63.49
878.786	75.77
878.959	-12.29
879.131	57.34
879.303	24.58
879.476	108.54
879.648	114.69
879.82	102.4
879.993	81.92
880.165	69.63
880.337	24.58
880.509	26.62
880.681	49.15
880.854	30.72
881.026	65.53
881.198	108.54
881.37	55.3
881.542	63.49
881.714	-2.05
881.886	51.2
882.058	75.77
882.23	77.82
882.402	45.06
882.574	65.53
882.746	153.6
882.918	16.38
883.09	61.44
883.262	131.07
883.434	-38.91
883.606	-10.24
883.778	28.67
883.95	75.77
884.122	45.06
884.293	51.2
884.465	53.25
884.637	81.92
884.809	-4.1
884.98	30.72
885.152	43.01
885.324	47.1
885.496	47.1
885.667	69.63
885.839	59.39
886.011	106.49
886.182	57.34
886.354	110.59
886.525	61.44
886.697	92.16
886.869	53.25
887.04	53.25
887.212	51.2
887.383	122.88
887.555	43.01
887.726	38.91
887.897	38.91
888.069	10.24
888.24	75.77
888.412	40.96
888.583	69.63
888.754	71.68
888.926	18.43
889.097	61.44
889.268	24.58
889.44	20.48
889.611	34.82
889.782	102.4
889.953	-12.29
890.125	86.01
890.296	43.01
890.467	43.01
890.638	-26.62
890.809	22.53
890.98	45.06
891.151	81.92
891.323	-12.29
891.494	83.97
891.665	53.25
891.836	49.15
892.007	79.87
892.178	67.58
892.349	55.3
892.52	6.14
892.691	10.24
892.862	43.01
893.032	-20.48
893.203	-18.43
893.374	45.06
893.545	26.62
893.716	-12.29
893.887	94.21
894.057	14.34
894.228	77.82
894.399	22.53
894.57	-59.39
894.74	-4.1
894.911	172.03
895.082	-10.24
895.253	22.53
895.423	16.38
895.594	10.24
895.764	6.14
895.935	38.91
896.106	18.43
896.276	55.3
896.447	20.48
896.617	53.25
896.788	-2.05
896.958	81.92
897.129	14.34
897.299	47.1
897.47	14.34
897.64	-10.24
897.81	61.44
897.981	69.63
898.151	6.14
898.322	16.38
898.492	-6.14
898.662	40.96
898.832	129.02
899.003	100.35
899.173	20.48
899.343	73.73
899.513	86.01
