Data from USB4F104151__17__12-27-05-796.txt Node

Date: Fri Mar 14 12:27:05 EDT 2025
User: louis
Spectrometer: USB4F10415
Trigger mode: 4
Integration Time (sec): 2.000000E-2
Scans to average: 1
Electric dark correction enabled: true
Nonlinearity correction enabled: false
Boxcar width: 0
XAxis mode: Wavelengths
Number of Pixels in Spectrum: 3648
>>>>>Begin Spectral Data<<<<<
178.204	-118.78
178.424	-118.78
178.644	-118.78
178.864	-141.31
179.084	-116.73
179.304	22.53
179.524	-18.43
179.744	59.39
179.964	-14.34
180.184	20.48
180.404	8.19
180.624	40.96
180.844	-49.15
181.064	-71.68
181.283	-24.58
181.503	-47.1
181.723	73.73
181.943	-16.38
182.163	4.1
182.383	-32.77
182.602	-49.15
182.822	-8.19
183.042	40.96
183.262	-12.29
183.482	-8.19
183.701	-40.96
183.921	8.19
184.141	4.1
184.361	24.58
184.58	38.91
184.8	28.67
185.02	47.1
185.239	59.39
185.459	8.19
185.679	43.01
185.898	-28.67
186.118	-14.34
186.338	-67.58
186.557	-45.06
186.777	26.62
186.997	-38.91
187.216	61.44
187.436	14.34
187.655	34.82
187.875	14.34
188.095	-0
188.314	65.53
188.534	28.67
188.753	20.48
188.973	-16.38
189.192	139.26
189.412	-38.91
189.631	53.25
189.851	18.43
190.07	38.91
190.29	45.06
190.509	-8.19
190.729	-30.72
190.948	67.58
191.168	75.77
191.387	-6.14
191.607	2.05
191.826	14.34
192.045	-16.38
192.265	-90.11
192.484	26.62
192.704	10.24
192.923	-49.15
193.142	79.87
193.362	18.43
193.581	30.72
193.8	77.82
194.02	22.53
194.239	-71.68
194.458	43.01
194.678	30.72
194.897	51.2
195.116	26.62
195.335	102.4
195.555	61.44
195.774	18.43
195.993	55.3
196.212	-36.86
196.432	-40.96
196.651	16.38
196.87	-51.2
197.089	81.92
197.308	83.97
197.528	-6.14
197.747	-51.2
197.966	45.06
198.185	18.43
198.404	32.77
198.623	-12.29
198.842	73.73
199.062	45.06
199.281	-18.43
199.5	4.1
199.719	55.3
199.938	18.43
200.157	73.73
200.376	-14.34
200.595	-63.49
200.814	-0
201.033	-40.96
201.252	-4.1
201.471	-18.43
201.69	12.29
201.909	-10.24
202.128	-30.72
202.347	-8.19
202.566	-14.34
202.785	-0
203.004	2.05
203.223	-12.29
203.442	-20.48
203.661	20.48
203.879	12.29
204.098	79.87
204.317	-12.29
204.536	34.82
204.755	10.24
204.974	10.24
205.193	10.24
205.411	30.72
205.63	-18.43
205.849	-43.01
206.068	12.29
206.287	49.15
206.505	-2.05
206.724	-30.72
206.943	-59.39
207.162	90.11
207.381	28.67
207.599	-2.05
207.818	45.06
208.037	-18.43
208.255	18.43
208.474	-16.38
208.693	36.86
208.911	16.38
209.13	49.15
209.349	-26.62
209.567	43.01
209.786	-10.24
210.005	-0
210.223	-36.86
210.442	-40.96
210.661	-71.68
210.879	90.11
211.098	-2.05
211.316	81.92
211.535	-0
211.753	-22.53
211.972	59.39
212.191	-40.96
212.409	47.1
212.628	4.1
212.846	-32.77
213.065	-4.1
213.283	26.62
213.502	8.19
213.72	8.19
213.938	22.53
214.157	-36.86
214.375	32.77
214.594	-2.05
214.812	38.91
215.031	40.96
215.249	-59.39
215.467	-53.25
215.686	32.77
215.904	16.38
216.122	-8.19
216.341	-28.67
216.559	-2.05
216.778	10.24
216.996	-20.48
217.214	18.43
217.432	-4.1
217.651	10.24
217.869	-2.05
218.087	65.53
218.306	-16.38
218.524	49.15
218.742	-30.72
218.96	36.86
219.179	-65.54
219.397	106.49
219.615	24.58
219.833	22.53
220.051	61.44
220.27	20.48
220.488	-24.58
220.706	53.25
220.924	34.82
221.142	-40.96
221.36	57.34
221.578	30.72
221.796	-16.38
222.015	55.3
222.233	16.38
222.451	-2.05
222.669	20.48
222.887	-10.24
223.105	10.24
223.323	36.86
223.541	2.05
223.759	77.82
223.977	47.1
224.195	61.44
224.413	-18.43
224.631	-43.01
224.849	10.24
225.067	45.06
225.285	10.24
225.503	12.29
225.721	-63.49
225.939	12.29
226.157	12.29
226.375	45.06
226.592	-34.82
226.81	38.91
227.028	14.34
227.246	83.97
227.464	-79.87
227.682	-12.29
227.9	-32.77
228.117	8.19
228.335	69.63
228.553	12.29
228.771	28.67
228.989	-55.3
229.206	30.72
229.424	-6.14
229.642	-2.05
229.86	-55.3
230.077	55.3
230.295	2.05
230.513	-4.1
230.731	67.58
230.948	-2.05
231.166	-12.29
231.384	-86.01
231.601	63.49
231.819	16.38
232.037	-24.58
232.254	-34.82
232.472	12.29
232.689	69.63
232.907	38.91
233.125	-40.96
233.342	47.1
233.56	28.67
233.777	38.91
233.995	43.01
234.213	77.82
234.43	26.62
234.648	45.06
234.865	36.86
235.083	40.96
235.3	16.38
235.518	-20.48
235.735	79.87
235.953	26.62
236.17	-18.43
236.388	24.58
236.605	-28.67
236.822	-34.82
237.04	-18.43
237.257	24.58
237.475	-49.15
237.692	18.43
237.909	26.62
238.127	67.58
238.344	-36.86
238.562	71.68
238.779	38.91
238.996	18.43
239.214	-6.14
239.431	-22.53
239.648	18.43
239.865	-47.1
240.083	88.06
240.3	2.05
240.517	43.01
240.735	38.91
240.952	-83.97
241.169	26.62
241.386	8.19
241.603	45.06
241.821	6.14
242.038	-26.62
242.255	6.14
242.472	-71.68
242.689	77.82
242.907	34.82
243.124	20.48
243.341	36.86
243.558	22.53
243.775	-38.91
243.992	-53.25
244.209	14.34
244.426	38.91
244.643	43.01
244.86	26.62
245.078	57.34
245.295	-67.58
245.512	18.43
245.729	-8.19
245.946	38.91
246.163	-30.72
246.38	30.72
246.597	69.63
246.814	-0
247.031	-4.1
247.248	2.05
247.464	86.01
247.681	47.1
247.898	-51.2
248.115	26.62
248.332	-4.1
248.549	-65.54
248.766	30.72
248.983	22.53
249.2	-14.34
249.417	-51.2
249.633	16.38
249.85	38.91
250.067	67.58
250.284	18.43
250.501	18.43
250.717	32.77
250.934	-36.86
251.151	-51.2
251.368	4.1
251.585	-10.24
251.801	61.44
252.018	-10.24
252.235	36.86
252.451	-30.72
252.668	-2.05
252.885	73.73
253.102	2.05
253.318	-12.29
253.535	6.14
253.752	2.05
253.968	-2.05
254.185	2.05
254.401	-26.62
254.618	10.24
254.835	24.58
255.051	69.63
255.268	30.72
255.484	-32.77
255.701	18.43
255.917	92.16
256.134	-10.24
256.351	-8.19
256.567	32.77
256.784	-0
257	-24.58
257.217	55.3
257.433	28.67
257.65	-12.29
257.866	6.14
258.082	65.53
258.299	32.77
258.515	-18.43
258.732	12.29
258.948	53.25
259.165	34.82
259.381	-36.86
259.597	-18.43
259.814	-6.14
260.03	6.14
260.246	12.29
260.463	-22.53
260.679	24.58
260.895	8.19
261.112	10.24
261.328	-18.43
261.544	-18.43
261.761	86.01
261.977	-8.19
262.193	4.1
262.409	51.2
262.626	10.24
262.842	34.82
263.058	22.53
263.274	12.29
263.49	-73.73
263.707	-14.34
263.923	24.58
264.139	20.48
264.355	-28.67
264.571	-79.87
264.787	14.34
265.004	45.06
265.22	14.34
265.436	-16.38
265.652	-47.1
265.868	12.29
266.084	6.14
266.3	34.82
266.516	43.01
266.732	79.87
266.948	20.48
267.164	12.29
267.38	-22.53
267.596	18.43
267.812	30.72
268.028	8.19
268.244	-57.34
268.46	-34.82
268.676	-28.67
268.892	18.43
269.108	38.91
269.324	-26.62
269.54	-61.44
269.756	38.91
269.972	4.1
270.188	12.29
270.403	-0
270.619	43.01
270.835	12.29
271.051	-16.38
271.267	-16.38
271.483	-40.96
271.698	34.82
271.914	-57.34
272.13	59.39
272.346	59.39
272.562	36.86
272.777	26.62
272.993	-14.34
273.209	-10.24
273.425	30.72
273.64	-6.14
273.856	-0
274.072	32.77
274.287	26.62
274.503	-22.53
274.719	65.53
274.934	-2.05
275.15	14.34
275.366	-16.38
275.581	26.62
275.797	-40.96
276.012	-30.72
276.228	16.38
276.444	-22.53
276.659	20.48
276.875	10.24
277.09	-32.77
277.306	20.48
277.521	-28.67
277.737	10.24
277.952	73.73
278.168	57.34
278.383	81.92
278.599	-20.48
278.814	-4.1
279.03	-24.58
279.245	61.44
279.461	6.14
279.676	49.15
279.892	-79.87
280.107	32.77
280.322	-36.86
280.538	-40.96
280.753	49.15
280.969	28.67
281.184	-2.05
281.399	102.4
281.615	12.29
281.83	57.34
282.045	-51.2
282.26	-26.62
282.476	61.44
282.691	67.58
282.906	24.58
283.122	47.1
283.337	49.15
283.552	-12.29
283.767	30.72
283.983	-0
284.198	-40.96
284.413	6.14
284.628	-47.1
284.843	53.25
285.058	71.68
285.274	30.72
285.489	-43.01
285.704	28.67
285.919	-26.62
286.134	96.25
286.349	61.44
286.564	-4.1
286.779	2.05
286.995	-0
287.21	-40.96
287.425	43.01
287.64	8.19
287.855	14.34
288.07	-32.77
288.285	-43.01
288.5	40.96
288.715	-32.77
288.93	6.14
289.145	36.86
289.36	-10.24
289.575	30.72
289.79	4.1
290.004	-28.67
290.219	-57.34
290.434	-18.43
290.649	-4.1
290.864	-34.82
291.079	8.19
291.294	-8.19
291.509	-47.1
291.724	10.24
291.938	-24.58
292.153	-4.1
292.368	-4.1
292.583	12.29
292.798	-16.38
293.012	-8.19
293.227	-4.1
293.442	8.19
293.657	45.06
293.871	124.93
294.086	38.91
294.301	26.62
294.516	-2.05
294.73	-40.96
294.945	-53.25
295.16	34.82
295.374	47.1
295.589	34.82
295.804	-47.1
296.018	-24.58
296.233	90.11
296.447	79.87
296.662	-79.87
296.877	133.12
297.091	20.48
297.306	8.19
297.52	43.01
297.735	38.91
297.949	18.43
298.164	-20.48
298.378	61.44
298.593	8.19
298.807	-22.53
299.022	4.1
299.236	4.1
299.451	-2.05
299.665	-14.34
299.88	59.39
300.094	20.48
300.309	-49.15
300.523	83.97
300.737	-22.53
300.952	2.05
301.166	-55.3
301.381	20.48
301.595	30.72
301.809	-4.1
302.024	32.77
302.238	-14.34
302.452	51.2
302.667	8.19
302.881	26.62
303.095	59.39
303.309	-0
303.524	-14.34
303.738	-4.1
303.952	57.34
304.166	36.86
304.381	-32.77
304.595	51.2
304.809	53.25
305.023	2.05
305.237	16.38
305.452	34.82
305.666	45.06
305.88	8.19
306.094	18.43
306.308	36.86
306.522	36.86
306.736	-4.1
306.95	-6.14
307.164	40.96
307.379	-4.1
307.593	28.67
307.807	-12.29
308.021	-16.38
308.235	30.72
308.449	51.2
308.663	30.72
308.877	45.06
309.091	10.24
309.305	-2.05
309.519	8.19
309.733	51.2
309.947	-6.14
310.161	-22.53
310.374	-0
310.588	-8.19
310.802	-12.29
311.016	-43.01
311.23	-45.06
311.444	4.1
311.658	73.73
311.872	47.1
312.085	81.92
312.299	47.1
312.513	51.2
312.727	59.39
312.941	26.62
313.154	-2.05
313.368	-6.14
313.582	40.96
313.796	-47.1
314.009	-28.67
314.223	34.82
314.437	57.34
314.651	51.2
314.864	-32.77
315.078	-10.24
315.292	4.1
315.505	4.1
315.719	36.86
315.933	-2.05
316.146	-20.48
316.36	-65.54
316.573	-4.1
316.787	-59.39
317.001	45.06
317.214	6.14
317.428	71.68
317.641	4.1
317.855	12.29
318.068	30.72
318.282	24.58
318.495	63.49
318.709	47.1
318.922	-12.29
319.136	57.34
319.349	-6.14
319.563	63.49
319.776	69.63
319.99	-20.48
320.203	-4.1
320.417	30.72
320.63	10.24
320.843	63.49
321.057	49.15
321.27	6.14
321.483	-24.58
321.697	57.34
321.91	-4.1
322.124	24.58
322.337	55.3
322.55	36.86
322.763	-51.2
322.977	49.15
323.19	26.62
323.403	30.72
323.617	-8.19
323.83	71.68
324.043	-38.91
324.256	53.25
324.469	-28.67
324.683	86.01
324.896	2.05
325.109	-6.14
325.322	-34.82
325.535	59.39
325.748	63.49
325.962	-8.19
326.175	32.77
326.388	-10.24
326.601	28.67
326.814	32.77
327.027	59.39
327.24	-32.77
327.453	20.48
327.666	53.25
327.879	34.82
328.092	43.01
328.305	-36.86
328.518	51.2
328.731	12.29
328.944	-22.53
329.157	36.86
329.37	-10.24
329.583	137.21
329.796	-4.1
330.009	-26.62
330.222	-18.43
330.435	30.72
330.648	30.72
330.861	-4.1
331.073	32.77
331.286	-20.48
331.499	61.44
331.712	59.39
331.925	10.24
332.138	30.72
332.35	61.44
332.563	-61.44
332.776	61.44
332.989	-22.53
333.202	-4.1
333.414	45.06
333.627	18.43
333.84	40.96
334.053	14.34
334.265	24.58
334.478	20.48
334.691	4.1
334.903	2.05
335.116	51.2
335.329	34.82
335.541	16.38
335.754	16.38
335.966	-73.73
336.179	120.83
336.392	-43.01
336.604	40.96
336.817	26.62
337.029	-12.29
337.242	26.62
337.454	-8.19
337.667	-30.72
337.88	55.3
338.092	28.67
338.305	4.1
338.517	-38.91
338.729	49.15
338.942	88.06
339.154	24.58
339.367	-28.67
339.579	47.1
339.792	2.05
340.004	28.67
340.217	-51.2
340.429	12.29
340.641	24.58
340.854	-20.48
341.066	14.34
341.278	92.16
341.491	28.67
341.703	16.38
341.915	-16.38
342.128	-6.14
342.34	45.06
342.552	47.1
342.764	24.58
342.977	6.14
343.189	-28.67
343.401	28.67
343.613	-8.19
343.826	30.72
344.038	-40.96
344.25	-26.62
344.462	69.63
344.674	8.19
344.886	32.77
345.099	28.67
345.311	69.63
345.523	10.24
345.735	6.14
345.947	12.29
346.159	32.77
346.371	22.53
346.583	-36.86
346.795	133.12
347.007	34.82
347.219	34.82
347.431	-14.34
347.643	43.01
347.855	34.82
348.067	28.67
348.279	24.58
348.491	4.1
348.703	12.29
348.915	-0
349.127	-4.1
349.339	-0
349.551	-81.92
349.763	69.63
349.975	-8.19
350.187	59.39
350.399	43.01
350.61	-2.05
350.822	32.77
351.034	53.25
351.246	26.62
351.458	43.01
351.669	141.31
351.881	47.1
352.093	77.82
352.305	55.3
352.517	53.25
352.728	126.97
352.94	12.29
353.152	36.86
353.363	51.2
353.575	81.92
353.787	28.67
353.999	81.92
354.21	24.58
354.422	-51.2
354.633	63.49
354.845	-10.24
355.057	-38.91
355.268	12.29
355.48	53.25
355.692	-14.34
355.903	4.1
356.115	28.67
356.326	-38.91
356.538	71.68
356.749	-30.72
356.961	104.45
357.172	-16.38
357.384	6.14
357.595	102.4
357.807	-4.1
358.018	-90.11
358.23	38.91
358.441	-28.67
358.653	30.72
358.864	14.34
359.075	34.82
359.287	61.44
359.498	55.3
359.709	6.14
359.921	12.29
360.132	8.19
360.344	26.62
360.555	-0
360.766	18.43
360.977	53.25
361.189	-20.48
361.4	47.1
361.611	57.34
361.823	-61.44
362.034	53.25
362.245	-20.48
362.456	59.39
362.667	36.86
362.879	26.62
363.09	8.19
363.301	12.29
363.512	45.06
363.723	122.88
363.935	36.86
364.146	-14.34
364.357	22.53
364.568	75.77
364.779	53.25
364.99	90.11
365.201	-0
365.412	67.58
365.623	-47.1
365.834	65.53
366.045	22.53
366.256	73.73
366.467	34.82
366.678	75.77
366.889	-55.3
367.1	96.25
367.311	28.67
367.522	24.58
367.733	-65.54
367.944	67.58
368.155	45.06
368.366	81.92
368.577	-6.14
368.788	28.67
368.999	40.96
369.209	38.91
369.42	2.05
369.631	45.06
369.842	83.97
370.053	45.06
370.264	79.87
370.474	32.77
370.685	10.24
370.896	61.44
371.107	55.3
371.317	49.15
371.528	8.19
371.739	106.49
371.95	40.96
372.16	83.97
372.371	32.77
372.582	-4.1
372.792	-28.67
373.003	-0
373.214	77.82
373.424	6.14
373.635	-20.48
373.846	-18.43
374.056	63.49
374.267	67.58
374.477	67.58
374.688	45.06
374.898	69.63
375.109	34.82
375.319	4.1
375.53	94.21
375.74	6.14
375.951	36.86
376.161	-14.34
376.372	10.24
376.582	36.86
376.793	8.19
377.003	65.53
377.214	55.3
377.424	51.2
377.635	141.31
377.845	49.15
378.055	102.4
378.266	34.82
378.476	94.21
378.686	73.73
378.897	55.3
379.107	55.3
379.317	30.72
379.528	14.34
379.738	110.59
379.948	-38.91
380.158	100.35
380.369	18.43
380.579	47.1
380.789	75.77
380.999	45.06
381.21	55.3
381.42	43.01
381.63	53.25
381.84	-32.77
382.05	-10.24
382.261	36.86
382.471	88.06
382.681	81.92
382.891	24.58
383.101	69.63
383.311	-20.48
383.521	86.01
383.731	63.49
383.941	8.19
384.151	12.29
384.361	24.58
384.571	55.3
384.781	63.49
384.991	45.06
385.201	110.59
385.411	90.11
385.621	98.3
385.831	63.49
386.041	69.63
386.251	43.01
386.461	135.17
386.671	73.73
386.881	40.96
387.091	-8.19
387.301	86.01
387.511	102.4
387.72	-28.67
387.93	86.01
388.14	32.77
388.35	51.2
388.56	16.38
388.769	45.06
388.979	20.48
389.189	67.58
389.399	-16.38
389.609	73.73
389.818	24.58
390.028	-16.38
390.238	-2.05
390.447	-55.3
390.657	47.1
390.867	32.77
391.076	4.1
391.286	47.1
391.496	61.44
391.705	149.5
391.915	77.82
392.125	51.2
392.334	126.97
392.544	88.06
392.753	86.01
392.963	32.77
393.172	137.21
393.382	4.1
393.591	67.58
393.801	63.49
394.01	126.97
394.22	81.92
394.429	122.88
394.639	49.15
394.848	108.54
395.058	139.26
395.267	110.59
395.477	26.62
395.686	45.06
395.895	151.55
396.105	135.17
396.314	18.43
396.524	55.3
396.733	55.3
396.942	75.77
397.152	71.68
397.361	135.17
397.57	118.78
397.78	43.01
397.989	114.69
398.198	137.21
398.407	55.3
398.617	133.12
398.826	120.83
399.035	47.1
399.244	153.6
399.453	90.11
399.663	67.58
399.872	100.35
400.081	96.25
400.29	120.83
400.499	102.4
400.708	122.88
400.917	131.07
401.127	40.96
401.336	73.73
401.545	47.1
401.754	96.25
401.963	49.15
402.172	100.35
402.381	145.41
402.59	69.63
402.799	94.21
403.008	172.03
403.217	16.38
403.426	137.21
403.635	55.3
403.844	100.35
404.053	100.35
404.262	96.25
404.471	194.56
404.68	88.06
404.888	258.04
405.097	151.55
405.306	120.83
405.515	120.83
405.724	143.36
405.933	204.8
406.142	190.46
406.35	174.08
406.559	151.55
406.768	71.68
406.977	260.09
407.185	192.51
407.394	221.18
407.603	172.03
407.812	233.47
408.02	258.04
408.229	264.19
408.438	210.94
408.646	239.61
408.855	253.95
409.064	245.76
409.272	161.79
409.481	385.02
409.69	325.63
409.898	256
410.107	331.77
410.315	339.96
410.524	268.28
410.733	315.39
410.941	311.29
411.15	389.11
411.358	378.87
411.567	380.92
411.775	444.41
411.984	440.31
412.192	466.94
412.401	413.69
412.609	483.32
412.818	489.46
413.026	509.94
413.234	444.41
413.443	550.9
413.651	569.34
413.86	645.11
414.068	624.63
414.276	667.64
414.485	569.34
414.693	708.6
414.901	690.17
415.11	743.41
415.318	770.04
415.526	788.47
415.734	782.32
415.943	763.89
416.151	876.53
416.359	935.92
416.567	890.87
416.776	839.67
416.984	962.55
417.192	1011.7
417.4	1075.18
417.608	997.36
417.817	1048.56
418.025	966.64
418.233	1228.78
418.441	1153.01
418.649	1171.44
418.857	1337.32
419.065	1343.47
419.273	1331.18
419.481	1429.48
419.689	1521.64
419.897	1564.65
420.105	1578.98
420.313	1619.94
420.521	1626.09
420.729	1648.61
420.937	1685.48
421.145	1890.28
421.353	1982.43
421.561	1961.95
421.769	2086.88
421.977	2125.79
422.185	2123.74
422.393	2283.49
422.601	2299.87
422.809	2361.31
423.017	2449.37
423.224	2496.47
423.432	2654.17
423.64	2713.56
423.848	2930.64
424.056	2818
424.263	3028.95
424.471	3078.1
424.679	3069.91
424.887	3254.22
425.094	3293.13
425.302	3463.12
425.51	3579.85
425.718	3588.04
425.925	3614.66
426.133	3839.94
426.341	4097.99
426.548	4227.01
426.756	4177.86
426.964	4140.99
427.171	4569.02
427.379	4517.82
427.586	4763.58
427.794	4882.36
428.001	4960.18
428.209	5171.12
428.417	5291.95
428.624	5726.12
428.832	5547.95
429.039	5435.31
429.247	5664.68
429.454	6025.12
429.662	6375.33
429.869	6045.6
430.076	6614.94
430.284	6279.07
430.491	6891.41
430.699	6954.9
430.906	6997.91
431.114	7149.46
431.321	7321.49
431.528	7368.59
431.736	7962.5
431.943	8175.49
432.15	7997.32
432.358	8120.2
432.565	8529.79
432.772	8494.97
432.979	9201.52
433.187	9056.12
433.394	9269.11
433.601	9854.83
433.808	9781.1
434.016	9680.75
434.223	10215.27
434.43	10993.5
434.637	10862.43
434.844	11425.62
435.052	11759.44
435.259	11431.76
435.466	11698
435.673	11405.14
435.88	12234.57
436.087	12998.46
436.294	12857.15
436.501	12527.42
436.708	13174.58
436.915	13446.96
437.122	13829.93
437.329	13944.62
437.537	14477.09
437.743	14778.14
437.95	14423.84
438.157	15226.65
438.364	15882
438.571	15628.05
438.778	15943.44
438.985	17127.16
439.192	16719.62
439.399	17114.87
439.606	16666.37
439.813	17932.01
440.02	18648.8
440.227	18210.54
440.433	18466.53
440.64	18919.14
440.847	18738.91
441.054	19400.41
441.261	20768.45
441.467	20428.49
441.674	20772.55
441.881	21542.58
442.088	21495.48
442.294	21067.45
442.501	22050.48
442.708	22378.15
442.914	23183.01
443.121	24090.26
443.328	23482.01
443.534	24903.3
443.741	24436.36
443.948	24364.68
444.154	26066.55
444.361	25878.13
444.568	26093.17
444.774	25839.22
444.981	26304.11
445.187	26992.23
445.394	28372.56
445.6	28167.76
445.807	30658.09
446.013	29314.62
446.22	30199.35
446.426	30670.38
446.633	31229.48
446.839	32536.08
447.046	31061.54
447.252	32658.96
447.459	32544.27
447.665	32390.67
447.871	33814.01
448.078	35759.58
448.284	33768.96
448.491	34502.13
448.697	35868.12
448.903	36697.55
449.11	36734.42
449.316	36183.51
449.522	36967.88
449.728	37889.47
449.935	38264.25
450.141	38495.67
450.347	38981.04
450.553	37793.22
450.76	38350.26
450.966	39458.21
451.172	39417.25
451.378	39978.4
451.584	39646.63
451.791	40680.85
451.997	40127.9
452.203	40818.07
452.409	40902.03
452.615	40439.19
452.821	39425.45
453.027	38974.89
453.233	41010.57
453.44	39251.37
453.646	39482.79
453.852	40097.18
454.058	40437.14
454.264	39349.67
454.47	40005.02
454.676	39482.79
454.882	40551.83
455.088	37041.61
455.294	37475.78
455.5	38280.63
455.705	38733.23
455.911	37371.33
456.117	36554.19
456.323	36054.49
456.529	34350.58
456.735	35632.61
456.941	34930.15
457.147	33889.79
457.352	32591.37
457.558	32609.81
457.764	32378.39
457.97	31991.32
458.176	31708.7
458.381	31639.07
458.587	30019.13
458.793	30062.13
458.999	28642.89
459.204	30273.07
459.41	29380.16
459.616	27700.83
459.821	27561.56
460.027	27600.47
460.233	27025
460.438	25570.94
460.644	25931.38
460.85	24518.28
461.055	24577.67
461.261	24426.12
461.466	22609.57
461.672	21915.31
461.878	23518.87
462.083	21741.24
462.289	21411.51
462.494	21259.96
462.7	20336.33
462.905	19992.27
463.111	20379.34
463.316	20416.2
463.522	20219.6
463.727	20000.46
463.932	20240.08
464.138	19881.68
464.343	20029.13
464.549	19404.5
464.754	20033.23
464.959	19762.9
465.165	20031.18
465.37	18947.81
465.575	18450.15
465.781	19199.71
465.986	19418.84
466.191	18527.97
466.397	18251.5
466.602	17463.03
466.807	18104.04
467.012	18177.77
467.218	17954.54
467.423	17911.53
467.628	17989.36
467.833	18704.1
468.038	17762.03
468.244	17618.68
468.449	18214.63
468.654	17538.8
468.859	17102.59
469.064	17301.24
469.269	16621.31
469.474	16717.57
469.679	17039.1
469.885	16611.07
470.09	16938.75
470.295	16490.24
470.5	16518.92
470.705	16264.97
470.91	16088.84
471.115	15701.78
471.32	15998.73
471.525	16105.23
471.73	15480.6
471.935	15539.99
472.139	15093.53
472.344	15249.18
472.549	15390.49
472.754	15034.14
472.959	14487.33
473.164	14454.56
473.369	14298.92
473.574	14718.75
473.778	14604.07
473.983	14436.13
474.188	14227.24
474.393	13774.64
474.598	13756.21
474.802	13598.51
475.007	13600.56
475.212	13457.2
475.417	13023.03
475.621	13209.4
475.826	13133.62
476.031	12789.56
476.235	12345.16
476.44	12746.56
476.645	12625.73
476.849	12611.39
477.054	12484.42
477.259	12369.73
477.463	12291.91
477.668	11861.83
477.872	11980.62
478.077	11913.03
478.282	11552.59
478.486	11573.07
478.691	11407.19
478.895	11267.92
479.1	11204.44
479.304	11335.51
479.509	11276.12
479.713	11128.66
479.918	10968.92
480.122	11011.93
480.326	10934.11
480.531	10999.64
480.735	10884.95
480.94	10911.58
481.144	10968.92
481.348	10637.15
481.553	10966.87
481.757	10641.25
481.961	10835.8
482.166	10856.28
482.37	10651.49
482.574	10499.94
482.778	10661.73
482.983	10710.88
483.187	10565.47
483.391	10717.02
483.595	10465.12
483.8	10303.33
484.004	10547.04
484.208	10602.33
484.412	10475.36
484.616	10610.53
484.821	10731.36
485.025	10272.61
485.229	10710.88
485.433	10514.27
485.637	10692.44
485.841	10579.81
486.045	10475.36
486.249	10569.57
486.453	10506.08
486.657	10583.9
486.861	10579.81
487.065	10329.95
487.269	10635.1
487.473	10332
487.677	10458.98
487.881	10571.61
488.085	10641.25
488.289	10649.44
488.493	10379.11
488.697	10755.93
488.901	10827.61
489.105	10618.72
489.309	10792.8
489.512	10751.84
489.716	10762.08
489.92	10653.53
490.124	10588
490.328	10719.07
490.531	10745.69
490.735	10729.31
490.939	10811.23
491.143	10878.81
491.346	10860.38
491.55	11120.47
491.754	11075.41
491.958	11095.89
492.161	11128.66
492.365	11153.24
492.569	10975.06
492.772	11263.83
492.976	11386.71
493.18	11419.47
493.383	11409.23
493.587	11628.37
493.79	11661.13
493.994	11542.35
494.197	11673.42
494.401	11857.74
494.605	11765.58
494.808	11765.58
495.012	12085.06
495.215	11984.71
495.419	12271.43
495.622	12025.67
495.825	12486.47
496.029	12253
496.232	12547.9
496.436	12435.27
496.639	12746.56
496.843	12738.37
497.046	13002.55
497.249	13188.92
497.453	13139.77
497.656	13514.55
497.859	13322.04
498.063	13545.27
498.266	13825.84
498.469	13969.19
498.673	13840.17
498.876	13995.82
499.079	14137.13
499.282	14157.61
499.485	14735.14
499.689	14673.7
499.892	14685.98
500.095	14626.59
500.298	15013.66
500.501	15234.84
500.705	15623.95
500.908	15609.62
501.111	15712.02
501.314	15914.77
501.517	16004.88
501.72	16400.13
501.923	16381.7
502.126	16807.68
502.329	16860.93
502.532	17028.86
502.735	16901.89
502.938	17360.63
503.141	17377.01
503.344	17782.51
503.547	17708.79
503.75	17987.31
503.953	18183.91
504.156	18429.67
504.359	18937.57
504.562	18679.52
504.765	19062.49
504.968	19066.59
505.17	19379.93
505.373	19259.1
505.576	19859.15
505.779	20141.77
505.982	20076.24
506.185	20547.27
506.387	20594.37
506.59	20958.91
506.793	21278.4
506.996	21149.37
507.198	22070.96
507.401	21556.92
507.604	21857.97
507.807	22017.71
508.009	22458.03
508.212	22544.04
508.415	22910.63
508.617	22988.45
508.82	23152.29
509.022	22777.51
509.225	23815.83
509.428	23781.01
509.63	24209.04
509.833	24327.82
510.035	24790.66
510.238	24606.34
510.44	24608.39
510.643	25314.94
510.845	25613.95
511.048	25532.03
511.25	26117.75
511.453	26101.36
511.655	26842.73
511.858	26484.33
512.06	26639.98
512.262	27131.49
512.465	27264.61
512.667	27614.81
512.87	27670.11
513.072	27948.63
513.274	28403.28
513.477	28524.11
513.679	28911.17
513.881	29118.02
514.084	29492.8
514.286	29435.45
514.488	29611.58
514.69	30260.79
514.893	30588.46
515.095	30236.21
515.297	30654
515.499	31051.3
515.701	31464.99
515.904	31917.59
516.106	31518.24
516.308	32024.09
516.51	32697.87
516.712	32443.92
516.914	32658.96
517.116	33197.57
517.318	33170.95
517.52	33283.59
517.722	33803.77
517.925	34129.4
518.127	34647.54
518.329	34559.47
518.531	34803.18
518.733	35175.91
518.935	35704.29
519.136	35202.53
519.338	36081.11
519.54	36382.16
519.742	36337.11
519.944	36718.03
520.146	37094.86
520.348	37490.12
520.55	37455.3
520.752	37422.53
520.954	38266.3
521.155	38118.84
521.357	38536.63
521.559	38978.99
521.761	39218.6
521.963	39116.2
522.164	39234.99
522.366	39490.98
522.568	40007.07
522.77	40215.96
522.971	40420.76
523.173	40285.59
523.375	40897.94
523.576	40670.61
523.778	40854.93
523.98	41362.82
524.181	41371.02
524.383	41731.46
524.584	42278.27
524.786	42034.56
524.988	42116.48
525.189	42573.17
525.391	42739.06
525.592	42890.61
525.794	43009.39
525.995	43148.65
526.197	43564.39
526.398	43187.57
526.6	43242.86
526.801	44053.86
527.003	43597.16
527.204	43685.22
527.406	44840.28
527.607	44090.72
527.808	44453.21
528.01	43865.44
528.211	44301.66
528.412	45288.78
528.614	44825.94
528.815	44643.67
529.016	45296.97
529.218	45047.12
529.419	45372.75
529.62	45251.92
529.822	45270.35
530.023	45253.97
530.224	45260.11
530.425	45649.22
530.626	45034.83
530.828	44967.25
531.029	45976.9
531.23	45339.98
531.431	45227.34
531.632	45972.8
531.833	45538.63
532.035	46144.83
532.236	45729.09
532.437	45833.54
532.638	45600.07
532.839	45921.6
533.04	46173.5
533.241	45628.74
533.442	46863.67
533.643	46196.03
533.844	46183.74
534.045	46050.63
534.246	45602.12
534.447	46275.9
534.648	46097.73
534.849	46490.94
535.05	45706.57
535.251	46402.88
535.451	45915.46
535.652	46273.85
535.853	46386.49
536.054	46310.72
536.255	46540.09
536.456	45835.59
536.657	46802.23
536.857	46366.01
537.058	46366.01
537.259	46415.16
537.46	46060.87
537.66	46116.16
537.861	46210.37
538.062	46144.83
538.263	46185.79
538.463	46208.32
538.664	46470.46
538.865	46421.31
539.065	46652.73
539.266	46177.6
539.466	46853.43
539.667	45909.32
539.868	46400.83
540.068	46269.76
540.269	46189.89
540.469	46556.47
540.67	46376.25
540.87	45860.16
541.071	45983.04
541.271	46456.12
541.472	46355.77
541.672	45909.32
541.873	45962.56
542.073	45534.54
542.274	46282.05
542.474	45972.8
542.675	46091.58
542.875	46355.77
543.075	45991.23
543.276	45659.46
543.476	46218.56
543.676	45837.64
543.877	46636.34
544.077	45890.88
544.277	46011.71
544.478	45856.07
544.678	46081.34
544.878	45770.05
545.078	45995.33
545.279	45602.12
545.479	45628.74
545.679	45901.12
545.879	45686.09
546.079	45598.02
546.28	45917.51
546.48	45458.76
546.68	45970.75
546.88	46128.45
547.08	45569.35
547.28	45624.65
547.48	45491.53
547.68	45765.96
547.88	45454.67
548.081	45808.96
548.281	45636.94
548.481	45808.96
548.681	45946.18
548.881	45626.7
549.081	45749.57
549.28	45557.06
549.48	46007.62
549.68	45284.68
549.88	46593.34
550.08	45053.26
550.28	45725
550.48	45894.98
550.68	46024
550.88	45501.77
551.08	45581.64
551.279	45823.3
551.479	45382.99
551.679	45473.1
551.879	45559.11
552.079	45927.75
552.278	45450.57
552.478	45387.08
552.678	45624.65
552.878	45899.08
553.077	45475.15
553.277	45372.75
553.477	45745.48
553.676	45454.67
553.876	45667.66
554.076	45667.66
554.275	45301.07
554.475	44733.78
554.674	45512.01
554.874	45184.33
555.074	44846.42
555.273	45077.84
555.473	45436.23
555.672	44655.96
555.872	45147.47
556.071	45024.59
556.271	45190.48
556.47	44827.99
556.67	44852.56
556.869	44436.83
557.068	45274.45
557.268	44758.36
557.467	44940.63
557.667	44784.98
557.866	45192.53
558.065	45100.37
558.265	44866.9
558.464	44741.97
558.663	45213.01
558.863	44199.26
559.062	44989.78
559.261	44406.11
559.461	44819.8
559.66	44422.49
559.859	44363.1
560.058	43984.22
560.258	44449.11
560.457	43861.35
560.656	44272.99
560.855	44115.29
561.054	44473.69
561.253	43734.37
561.453	44285.28
561.652	44137.82
561.851	44397.91
562.05	43711.85
562.249	43875.68
562.448	44180.83
562.647	43822.44
562.846	43758.95
563.045	43703.65
563.244	43474.28
563.443	43654.5
563.642	42997.1
563.841	43451.75
564.04	43257.2
564.239	43550.06
564.438	43625.83
564.637	43267.44
564.836	43425.13
565.035	43095.41
565.234	43210.09
565.432	42638.71
565.631	43093.36
565.83	43203.95
566.029	42501.5
566.228	42976.62
566.427	42712.44
566.625	42730.87
566.824	41600.39
567.023	42794.36
567.222	42104.19
567.42	42970.48
567.619	42407.29
567.818	42296.7
568.016	42605.94
568.215	42724.72
568.414	41934.21
568.612	42241.4
568.811	42323.32
569.01	42077.57
569.208	41723.27
569.407	41733.51
569.605	41563.53
569.804	41815.43
570.002	41721.22
570.201	42100.09
570.4	41227.66
570.598	41420.17
570.797	40877.46
570.995	41633.16
571.193	40883.6
571.392	41411.98
571.59	41106.83
571.789	40723.86
571.987	40942.99
572.186	40557.97
572.384	40832.4
572.582	41022.86
572.781	40844.69
572.979	39853.47
573.177	40627.6
573.376	40869.26
573.574	40041.89
573.772	40234.39
573.971	40453.53
574.169	39902.62
574.367	39884.19
574.565	40052.12
574.763	39837.09
574.962	39486.89
575.16	39323.05
575.358	39712.16
575.556	39265.7
575.754	39904.67
575.952	39163.31
576.151	39427.49
576.349	38809.01
576.547	38911.41
576.745	39138.73
576.943	39226.79
577.141	38938.03
577.339	38925.74
577.537	38634.93
577.735	38933.93
577.933	38866.35
578.131	38565.3
578.329	38493.62
578.527	38034.88
578.725	38337.97
578.923	38350.26
579.121	38389.17
579.319	37887.42
579.516	38211
579.714	38626.74
579.912	37443.01
580.11	37627.33
580.308	37668.29
580.506	37449.16
580.704	37307.85
580.901	37653.95
581.099	37574.08
581.297	37021.13
581.495	37324.23
581.692	37561.79
581.89	36765.14
582.088	37242.31
582.285	36939.21
582.483	37006.8
582.681	37238.22
582.878	36335.06
583.076	36595.15
583.274	36978.12
583.471	35954.14
583.669	36709.84
583.866	36376.02
584.064	36658.64
584.262	35870.17
584.459	36093.4
584.657	36122.07
584.854	36050.39
585.052	35618.27
585.249	35829.21
585.447	35745.25
585.644	35317.22
585.841	35440.1
586.039	35823.07
586.236	35093.99
586.434	35104.23
586.631	35079.66
586.828	34792.94
587.026	34780.65
587.223	35073.51
587.42	35075.56
587.618	35077.61
587.815	34446.83
588.012	34817.52
588.21	34323.96
588.407	34403.83
588.604	34416.11
588.801	34186.74
588.999	33891.83
589.196	34147.83
589.393	33625.6
589.59	33936.89
589.787	34055.67
589.984	33568.26
590.182	33078.79
590.379	33547.78
590.576	33248.77
590.773	33768.96
590.97	33203.72
591.167	32996.87
591.364	32781.84
591.561	32775.69
591.758	32763.4
591.955	32474.64
592.152	33136.13
592.349	32751.12
592.546	32603.66
592.743	32808.46
592.94	32177.68
593.137	32503.31
593.334	32460.3
593.531	32015.9
593.727	32024.09
593.924	31909.4
594.121	32114.2
594.318	32255.51
594.515	31647.26
594.712	32165.4
594.908	31200.8
595.105	31888.92
595.302	31163.94
595.499	31512.1
595.696	31168.04
595.892	30785.07
596.089	31135.27
596.286	30877.22
596.482	30764.59
596.679	31102.5
596.876	30912.04
597.072	30488.11
597.269	30864.94
597.466	30674.48
597.662	30459.44
597.859	30748.2
598.055	30453.3
598.252	30381.62
598.448	30230.07
598.645	30240.31
598.841	29969.97
599.038	29687.35
599.234	29906.49
599.431	29636.16
599.627	29490.75
599.824	29910.58
600.02	29529.66
600.217	29531.71
600.413	29312.58
600.609	29167.17
600.806	29113.92
601.002	29470.27
601.198	29130.31
601.395	28491.34
601.591	28702.28
601.787	28989
601.984	28542.54
602.18	29075.01
602.376	28659.27
602.572	28515.92
602.769	28882.5
602.965	28464.72
603.161	28190.29
603.357	27893.33
603.553	28175.95
603.75	28063.32
603.946	27944.53
604.142	28130.9
604.338	27493.98
604.534	27903.57
604.73	27432.54
604.926	27293.28
605.122	27629.15
605.318	27518.56
605.514	27280.99
605.71	27051.62
605.906	26928.74
606.102	27160.16
606.298	27342.43
606.494	27090.53
606.69	26977.89
606.886	26936.93
607.082	26242.67
607.278	26687.08
607.474	26463.85
607.67	26783.34
607.866	26328.69
608.062	26711.66
608.257	26570.35
608.453	26336.88
608.649	26742.38
608.845	26244.72
609.041	26322.54
609.236	26254.96
609.432	26193.52
609.628	26334.83
609.824	26226.29
610.019	26068.59
610.215	26021.49
610.411	26107.51
610.606	25636.47
610.802	26142.32
610.998	25833.08
611.193	25800.31
611.389	25777.78
611.584	25630.33
611.78	25112.19
611.976	25364.09
612.171	25671.29
612.367	25480.83
612.562	25503.35
612.758	25106.05
612.953	25118.34
613.149	25409.15
613.344	24956.55
613.539	25464.44
613.735	25284.22
613.93	25497.21
614.126	24880.77
614.321	25613.95
614.517	25491.07
614.712	24944.26
614.907	24934.02
615.103	24874.63
615.298	24833.67
615.493	25054.85
615.688	24675.98
615.884	25151.1
616.079	24663.69
616.274	24680.07
616.47	24868.48
616.665	24790.66
616.86	24442.51
617.055	24602.25
617.25	24563.34
617.445	24503.95
617.641	24260.24
617.836	24587.91
618.031	24118.93
618.226	24182.41
618.421	23797.4
618.616	24428.17
618.811	23977.62
619.006	24252.05
619.201	23625.37
619.396	23586.46
619.591	23103.14
619.786	23498.39
619.981	23266.97
620.176	23488.15
620.371	23150.24
620.566	23236.25
620.761	23064.22
620.956	23252.64
621.151	22671.01
621.346	23148.19
621.541	22560.42
621.735	22709.93
621.93	22179.5
622.125	22484.65
622.32	21907.12
622.515	22625.96
622.709	22152.88
622.904	21909.17
623.099	21827.25
623.294	21890.74
623.488	21348.03
623.683	21765.81
623.878	21374.65
624.072	21687.99
624.267	21360.31
624.462	21073.6
624.656	21243.58
624.851	21042.88
625.046	21010.11
625.24	20948.67
625.435	20664
625.629	20735.68
625.824	20356.81
626.018	20135.63
626.213	19820.24
626.407	20068.05
626.602	19748.56
626.796	19742.42
626.991	19926.74
627.185	19787.47
627.38	19818.19
627.574	19310.3
627.768	19283.67
627.963	19291.87
628.157	18904.8
628.352	19025.63
628.546	18812.64
628.74	19193.56
628.935	18880.22
629.129	18495.21
629.323	18609.89
629.517	18327.27
629.712	18384.62
629.906	18366.18
630.1	18298.6
630.294	18102
630.489	17766.13
630.683	17925.87
630.877	17850.1
631.071	17606.39
631.265	17497.84
631.459	17659.63
631.653	17397.49
631.848	17323.77
632.042	17274.62
632.236	17293.05
632.43	17026.81
632.624	17053.44
632.818	16905.98
633.012	16615.17
633.206	16854.78
633.4	16903.93
633.594	16334.6
633.788	16480
633.982	16432.9
634.176	16320.26
634.369	16334.6
634.563	16430.85
634.757	16258.82
634.951	16176.91
635.145	15828.75
635.339	16103.18
635.533	15736.59
635.726	15666.96
635.92	15660.82
636.114	15468.31
636.308	15730.45
636.501	15568.66
636.695	15449.88
636.889	15286.04
637.083	15349.53
637.276	15171.35
637.47	14946.08
637.664	14964.51
637.857	14849.82
638.051	14954.27
638.244	14864.16
638.438	14747.42
638.632	14757.66
638.825	14599.97
639.019	14468.9
639.212	14368.55
639.406	14221.09
639.599	14532.39
639.793	14071.59
639.986	14077.74
640.18	13926.19
640.373	13881.13
640.567	13637.42
640.76	14073.64
640.954	13690.67
641.147	13322.04
641.34	13731.63
641.534	13582.13
641.727	13455.15
641.92	13565.74
642.114	13420.34
642.307	13360.95
642.5	13334.32
642.694	12949.31
642.887	13119.29
643.08	13160.25
643.273	13238.07
643.467	12879.68
643.66	13004.6
643.853	12558.14
644.046	12584.77
644.239	12699.45
644.432	12642.11
644.626	12379.97
644.819	12463.94
645.012	12511.04
645.205	12193.61
645.398	12246.85
645.591	12199.75
645.784	12353.35
645.977	12175.17
646.17	11988.81
646.363	12021.58
646.556	11720.53
646.749	11941.71
646.942	11816.78
647.135	11673.42
647.328	11542.35
647.521	11491.15
647.714	11474.77
647.907	11542.35
648.099	11466.58
648.292	11327.32
648.485	11317.08
648.678	11382.61
648.871	11241.3
649.064	11081.56
649.256	11261.78
649.449	11136.85
649.642	11032.41
649.835	10895.19
650.027	10874.71
650.22	10788.7
650.413	10643.29
650.605	10686.3
650.798	10643.29
650.991	10516.32
651.183	10678.11
651.376	10407.78
651.568	10583.9
651.761	10305.38
651.954	10289
652.146	10284.9
652.339	10096.49
652.531	10237.8
652.724	10073.96
652.916	9830.25
653.109	9889.64
653.301	9959.27
653.494	10086.25
653.686	9723.76
653.879	9901.93
654.071	9856.87
654.263	9539.44
654.456	9713.52
654.648	9711.47
654.84	9564.01
655.033	9602.93
655.225	9351.03
655.417	9381.74
655.61	9416.56
655.802	9459.57
655.994	9185.14
656.186	9179
656.379	9236.34
656.571	9062.26
656.763	9047.93
656.955	8929.14
657.148	9123.7
657.34	8740.73
657.532	9023.35
657.724	8750.97
657.916	8816.51
658.108	8974.2
658.3	8716.16
658.492	8785.79
658.684	8480.64
658.876	8568.7
659.068	8636.28
659.26	8519.55
659.452	8546.17
659.644	8394.62
659.836	8341.38
660.028	8331.14
660.22	8302.47
660.412	8394.62
660.604	7978.89
660.796	8107.91
660.988	7991.17
661.18	7985.03
661.372	8025.99
661.563	8058.76
661.755	7901.06
661.947	7960.45
662.139	7890.82
662.331	7786.38
662.522	7894.92
662.714	7767.95
662.906	7702.41
663.097	7708.55
663.289	7608.2
663.481	7616.4
663.673	7675.79
663.864	7475.09
664.056	7458.7
664.247	7657.36
664.439	7182.23
664.631	7262.1
664.822	7382.93
665.014	7352.21
665.205	7346.06
665.397	7458.7
665.588	7155.6
665.78	7026.58
665.971	7225.23
666.163	7083.92
666.354	7065.49
666.546	7053.2
666.737	6983.57
666.929	6817.69
667.12	6907.8
667.311	6985.62
667.503	6772.63
667.694	6907.8
667.885	7018.39
668.077	6674.33
668.268	6657.95
668.459	6832.02
668.651	6686.62
668.842	6467.49
669.033	6647.71
669.224	6528.92
669.416	6535.07
669.607	6635.42
669.798	6530.97
669.989	6563.74
670.18	6385.57
670.371	6463.39
670.563	6287.26
670.754	6338.46
670.945	6125.47
671.136	6279.07
671.327	6258.59
671.518	6397.85
671.709	6100.9
671.9	6215.59
672.091	6279.07
672.282	6076.32
672.473	6107.04
672.664	6113.19
672.855	6043.56
673.046	5851.05
673.237	6168.48
673.428	5957.54
673.619	5932.97
673.809	5920.68
674	5877.67
674.191	5986.21
674.382	5900.2
674.573	5908.39
674.764	5855.14
674.954	5810.09
675.145	5660.59
675.336	5722.02
675.527	5699.5
675.717	5601.19
675.908	5662.63
676.099	5601.19
676.289	5550
676.48	5758.89
676.671	5468.08
676.861	5658.54
677.052	5476.27
677.243	5552.04
677.433	5511.08
677.624	5556.14
677.814	5455.79
678.005	5562.28
678.195	5437.36
678.386	5416.88
678.576	5398.45
678.767	5412.78
678.957	5253.04
679.148	5343.15
679.338	5257.14
679.529	5347.25
679.719	5109.68
679.909	5357.49
680.1	5214.13
680.29	5257.14
680.481	5093.3
680.671	5244.85
680.861	5281.71
681.052	5210.03
681.242	5132.21
681.432	5074.87
681.622	5038
681.813	5070.77
682.003	4974.52
682.193	4921.27
682.383	5169.07
682.573	5058.48
682.764	4894.65
682.954	5091.25
683.144	4876.21
683.334	4890.55
683.524	4962.23
683.714	4829.11
683.904	4816.82
684.094	5027.76
684.284	4773.82
684.474	4906.93
684.664	4929.46
684.854	5126.07
685.044	4927.41
685.234	4685.75
685.424	4825.01
685.614	4708.28
685.804	4728.76
685.994	4730.81
686.184	4763.58
686.374	4741.05
686.564	4585.4
686.753	4632.51
686.943	4644.79
687.133	4579.26
687.323	4511.68
687.513	4628.41
687.702	4693.94
687.892	4526.01
688.082	4423.61
688.272	4470.72
688.461	4458.43
688.651	4515.77
688.841	4380.61
689.03	4390.84
689.22	4212.67
689.41	4325.31
689.599	4159.42
689.789	4245.44
689.979	4118.47
690.168	4128.7
690.358	4126.66
690.547	4110.27
690.737	4220.86
690.926	4155.33
691.116	4114.37
691.305	4097.99
691.495	4077.51
691.684	4050.88
691.874	4097.99
692.063	4202.43
692.252	4050.88
692.442	4050.88
692.631	4026.31
692.82	3999.68
693.01	3983.3
693.199	3854.28
693.388	3919.81
693.578	3891.14
693.767	3897.28
693.956	3901.38
694.146	3913.67
694.335	3766.21
694.524	3745.73
694.713	3815.37
694.902	3782.6
695.092	3708.87
695.281	3758.02
695.47	3694.54
695.659	3790.79
695.848	3665.86
696.037	3694.54
696.226	3563.47
696.415	3606.47
696.604	3704.78
696.793	3555.27
696.982	3514.31
697.171	3532.75
697.36	3583.95
697.549	3463.12
697.738	3608.52
697.927	3547.08
698.116	3391.44
698.305	3475.4
698.494	3467.21
698.683	3424.2
698.872	3536.84
699.061	3356.62
699.25	3565.51
699.438	3518.41
699.627	3356.62
699.816	3409.87
700.005	3459.02
700.193	3497.93
700.382	3573.71
700.571	3319.76
700.76	3411.92
700.948	3438.54
701.137	3276.75
701.326	3280.85
701.514	3319.76
701.703	3469.26
701.892	3311.57
702.08	3215.31
702.269	3243.98
702.457	3246.03
702.646	3354.57
702.834	3289.04
703.023	3303.37
703.212	3182.54
703.4	3311.57
703.589	3284.94
703.777	3188.69
703.965	3155.92
704.154	3106.77
704.342	3198.93
704.531	3241.93
704.719	3252.17
704.907	3334.09
705.096	3209.17
705.284	3362.76
705.472	3272.65
705.661	3219.41
705.849	3104.72
706.037	3211.21
706.226	3123.15
706.414	3270.61
706.602	3119.06
706.79	3307.47
706.979	3153.87
707.167	3297.23
707.355	3194.83
707.543	3143.63
707.731	3192.78
707.919	3104.72
708.107	3008.47
708.296	3127.25
708.484	3051.47
708.672	3080.14
708.86	3028.95
709.048	3114.96
709.236	3112.91
709.424	3057.62
709.612	3030.99
709.8	3176.4
709.988	3182.54
710.176	3108.82
710.364	3049.43
710.551	3092.43
710.739	3090.38
710.927	3074
711.115	2971.6
711.303	3018.71
711.491	3131.34
711.679	3063.76
711.866	3071.95
712.054	3080.14
712.242	2969.55
712.43	3074
712.617	3157.97
712.805	2983.89
712.993	2975.7
713.181	3018.71
713.368	3172.3
713.556	3002.32
713.744	2944.98
713.931	3102.67
714.119	3078.1
714.306	3121.1
714.494	3006.42
714.682	3104.72
714.869	2975.7
715.057	3041.23
715.244	2942.93
715.432	2969.55
715.619	3059.67
715.807	3020.75
715.994	2949.07
716.182	3018.71
716.369	3041.23
716.556	3065.81
716.744	2893.78
716.931	2938.84
717.119	2992.08
717.306	2924.5
717.493	3018.71
717.681	2967.51
717.868	2979.79
718.055	2936.79
718.242	2985.94
718.43	3098.58
718.617	3059.67
718.804	2977.75
718.991	2930.64
719.179	3061.71
719.366	2965.46
719.553	2895.83
719.74	2793.43
719.927	2885.59
720.114	2959.31
720.301	2867.16
720.488	2940.88
720.676	2883.54
720.863	2951.12
721.05	2904.02
721.237	2914.26
721.424	2936.79
721.611	2916.31
721.798	2899.92
721.985	2742.23
722.172	2852.82
722.358	2893.78
722.545	2906.07
722.732	2895.83
722.919	2955.22
723.106	2811.86
723.293	2910.16
723.48	2879.44
723.667	2756.57
723.853	2811.86
724.04	2846.68
724.227	3004.37
724.414	2910.16
724.6	2793.43
724.787	2818
724.974	2846.68
725.161	2836.44
725.347	2826.2
725.534	2975.7
725.72	2889.68
725.907	2901.97
726.094	2764.76
726.28	2877.4
726.467	2772.95
726.653	2799.57
726.84	2852.82
727.027	2752.47
727.213	2682.84
727.4	2838.48
727.586	2895.83
727.773	2926.55
727.959	2760.66
728.145	2764.76
728.332	2877.4
728.518	2953.17
728.705	2787.29
728.891	2820.05
729.077	2707.41
729.264	2762.71
729.45	2770.9
729.636	2818
729.823	2781.14
730.009	2783.19
730.195	2844.63
730.382	2770.9
730.568	2787.29
730.754	2740.18
730.94	2775
731.126	2852.82
731.313	2809.81
731.499	2846.68
731.685	2904.02
731.871	2766.81
732.057	2910.16
732.243	2770.9
732.429	2711.51
732.615	2770.9
732.801	2832.34
732.987	2883.54
733.173	2711.51
733.359	2758.61
733.545	2789.33
733.731	2799.57
733.917	2727.89
734.103	2764.76
734.289	2746.33
734.475	2897.88
734.661	2721.75
734.847	2795.48
735.033	2781.14
735.219	2818
735.404	2717.65
735.59	2791.38
735.776	2676.7
735.962	2791.38
736.148	2746.33
736.333	2676.7
736.519	2674.65
736.705	2752.47
736.89	2721.75
737.076	2627.54
737.262	2627.54
737.447	2664.41
737.633	2553.82
737.819	2760.66
738.004	2680.79
738.19	2670.55
738.375	2592.73
738.561	2760.66
738.747	2650.07
738.932	2633.69
739.118	2582.49
739.303	2684.89
739.489	2549.72
739.674	2574.3
739.859	2555.86
740.045	2615.26
740.23	2609.11
740.416	2697.17
740.601	2598.87
740.786	2557.91
740.972	2594.78
741.157	2514.91
741.342	2467.8
741.528	2455.51
741.713	2596.82
741.898	2480.09
742.084	2494.43
742.269	2527.19
742.454	2502.62
742.639	2441.18
742.824	2498.52
743.01	2408.41
743.195	2469.85
743.38	2465.75
743.565	2410.46
743.75	2367.45
743.935	2349.02
744.12	2365.4
744.305	2342.88
744.49	2316.25
744.675	2346.97
744.86	2285.53
745.045	2371.55
745.23	2238.43
745.415	2246.62
745.6	2377.69
745.785	2230.24
745.97	2303.96
746.155	2312.16
746.34	2349.02
746.525	2271.2
746.71	2275.29
746.895	2174.94
747.079	2285.53
747.264	2195.42
747.449	2207.71
747.634	2291.68
747.819	2154.46
748.003	2019.3
748.188	2187.23
748.373	2215.9
748.557	2205.66
748.742	2109.41
748.927	2074.59
749.111	2076.64
749.296	2138.08
749.481	2183.13
749.665	2070.5
749.85	2025.44
750.034	2023.39
750.219	2074.59
750.404	1966.05
750.588	1980.39
750.773	1925.09
750.957	1955.81
751.141	1945.57
751.326	1941.47
751.51	1931.23
751.695	1949.67
751.879	1890.28
752.064	1953.76
752.248	2017.25
752.432	1929.19
752.617	1765.35
752.801	1789.92
752.985	1742.82
753.17	1943.52
753.354	1779.68
753.538	1730.53
753.722	1796.07
753.907	1742.82
754.091	1683.43
754.275	1720.29
754.459	1705.96
754.643	1648.61
754.828	1701.86
755.012	1687.53
755.196	1607.66
755.38	1617.9
755.564	1689.57
755.748	1601.51
755.932	1632.23
756.116	1654.76
756.3	1591.27
756.484	1572.84
756.668	1572.84
756.852	1574.89
757.036	1495.02
757.22	1585.13
757.404	1503.21
757.588	1497.07
757.772	1513.45
757.956	1507.3
758.14	1521.64
758.323	1447.91
758.507	1458.15
758.691	1548.26
758.875	1521.64
759.059	1544.17
759.242	1417.19
759.426	1433.58
759.61	1468.39
759.794	1382.38
759.977	1427.43
760.161	1355.76
760.345	1400.81
760.528	1433.58
760.712	1329.13
760.895	1380.33
761.079	1439.72
761.263	1204.21
761.446	1292.27
761.63	1259.5
761.813	1398.76
761.997	1230.83
762.18	1316.84
762.364	1353.71
762.547	1214.45
762.731	1212.4
762.914	1327.08
763.098	1279.98
763.281	1259.5
763.464	1282.03
763.648	1259.5
763.831	1380.33
764.015	1230.83
764.198	1224.69
764.381	1230.83
764.564	1255.4
764.748	1191.92
764.931	1224.69
765.114	1169.39
765.297	1187.82
765.481	1232.88
765.664	1284.08
765.847	1208.3
766.03	1120.24
766.213	1054.7
766.397	1212.4
766.58	1208.3
766.763	1153.01
766.946	1191.92
767.129	1138.67
767.312	1132.53
767.495	1132.53
767.678	1122.29
767.861	1040.37
768.044	1044.46
768.227	1136.62
768.41	1036.27
768.593	1155.05
768.776	1116.14
768.959	1105.9
769.142	1105.9
769.324	1150.96
769.507	1062.9
769.69	974.83
769.873	1101.81
770.056	1046.51
770.239	1021.94
770.421	1095.66
770.604	1075.18
770.787	948.21
770.97	1001.46
771.152	1007.6
771.335	1075.18
771.518	909.3
771.7	954.35
771.883	1071.09
772.066	995.31
772.248	980.98
772.431	978.93
772.613	1011.7
772.796	831.48
772.978	892.91
773.161	950.26
773.343	894.96
773.526	940.02
773.708	894.96
773.891	1013.74
774.073	972.79
774.256	901.11
774.438	911.35
774.621	995.31
774.803	915.44
774.985	831.48
775.168	950.26
775.35	837.62
775.532	825.33
775.715	870.39
775.897	897.01
776.079	909.3
776.261	841.72
776.444	847.86
776.626	792.56
776.808	733.17
776.99	778.23
777.173	780.28
777.355	743.41
777.537	788.47
777.719	790.52
777.901	780.28
778.083	741.36
778.265	817.14
778.447	788.47
778.629	749.56
778.811	774.13
778.993	720.88
779.175	770.04
779.357	794.61
779.539	684.02
779.721	686.07
779.903	847.86
780.085	573.43
780.267	704.5
780.449	741.36
780.631	655.35
780.812	663.54
780.994	716.79
781.176	628.73
781.358	677.88
781.54	647.16
781.721	681.97
781.903	688.12
782.085	651.25
782.267	618.49
782.448	673.78
782.63	622.58
782.812	686.07
782.993	581.62
783.175	614.39
783.357	538.62
783.538	634.87
783.72	550.9
783.901	548.86
784.083	632.82
784.264	593.91
784.446	485.37
784.627	575.48
784.809	516.09
784.99	569.34
785.172	606.2
785.353	550.9
785.535	575.48
785.716	505.85
785.897	569.34
786.079	561.14
786.26	544.76
786.441	546.81
786.623	448.51
786.804	485.37
786.985	534.52
787.167	559.1
787.348	483.32
787.529	509.94
787.71	516.09
787.891	452.6
788.073	417.79
788.254	446.46
788.435	505.85
788.616	448.51
788.797	493.56
788.978	524.28
789.159	468.98
789.34	448.51
789.522	497.66
789.703	436.22
789.884	421.88
790.065	454.65
790.246	440.31
790.427	442.36
790.607	411.64
790.788	477.18
790.969	397.31
791.15	423.93
791.331	364.54
791.512	342.01
791.693	425.98
791.874	503.8
792.054	421.88
792.235	380.92
792.416	331.77
792.597	344.06
792.778	331.77
792.958	397.31
793.139	344.06
793.32	405.5
793.5	395.26
793.681	473.08
793.862	391.16
794.042	389.11
794.223	366.59
794.404	393.21
794.584	391.16
794.765	311.29
794.945	299
795.126	290.81
795.306	344.06
795.487	405.5
795.667	364.54
795.848	337.91
796.028	374.78
796.209	346.11
796.389	354.3
796.57	305.15
796.75	372.73
796.93	311.29
797.111	280.57
797.291	342.01
797.471	329.72
797.652	208.89
797.832	337.91
798.012	274.43
798.192	335.87
798.373	290.81
798.553	376.83
798.733	307.2
798.913	219.13
799.093	346.11
799.274	280.57
799.454	311.29
799.634	305.15
799.814	346.11
799.994	243.71
800.174	272.38
800.354	327.67
800.534	303.1
800.714	299
800.894	231.42
801.074	239.61
801.254	268.28
801.434	303.1
801.614	272.38
801.794	258.04
801.974	632.82
802.154	253.95
802.334	253.95
802.514	161.79
802.693	233.47
802.873	311.29
803.053	247.8
803.233	237.56
803.413	245.76
803.592	215.04
803.772	329.72
803.952	167.93
804.131	212.99
804.311	280.57
804.491	217.08
804.67	235.52
804.85	217.08
805.03	292.86
805.209	317.44
805.389	184.32
805.568	227.32
805.748	204.8
805.928	219.13
806.107	231.42
806.287	272.38
806.466	215.04
806.646	233.47
806.825	174.08
807.004	241.66
807.184	169.98
807.363	208.89
807.543	256
807.722	163.84
807.901	256
808.081	192.51
808.26	217.08
808.439	182.27
808.619	176.13
808.798	227.32
808.977	157.69
809.156	159.74
809.336	227.32
809.515	217.08
809.694	204.8
809.873	180.22
810.052	206.84
810.231	229.37
810.411	155.65
810.59	182.27
810.769	204.8
810.948	227.32
811.127	143.36
811.306	143.36
811.485	200.7
811.664	141.31
811.843	145.41
812.022	176.13
812.201	202.75
812.38	174.08
812.559	196.6
812.737	180.22
812.916	147.45
813.095	98.3
813.274	124.93
813.453	210.94
813.632	212.99
813.811	225.28
813.989	116.73
814.168	184.32
814.347	210.94
814.526	231.42
814.704	163.84
814.883	235.52
815.062	178.17
815.24	204.8
815.419	90.11
815.598	186.37
815.776	75.77
815.955	237.56
816.133	217.08
816.312	212.99
816.49	112.64
816.669	131.07
816.847	196.6
817.026	210.94
817.204	139.26
817.383	126.97
817.561	124.93
817.74	190.46
817.918	212.99
818.097	143.36
818.275	137.21
818.453	141.31
818.632	86.01
818.81	161.79
818.988	90.11
819.167	131.07
819.345	155.65
819.523	102.4
819.701	178.17
819.879	182.27
820.058	69.63
820.236	212.99
820.414	180.22
820.592	120.83
820.77	151.55
820.948	51.2
821.127	135.17
821.305	155.65
821.483	88.06
821.661	108.54
821.839	114.69
822.017	180.22
822.195	38.91
822.373	196.6
822.551	90.11
822.729	147.45
822.907	38.91
823.085	157.69
823.262	83.97
823.44	100.35
823.618	34.82
823.796	135.17
823.974	129.02
824.152	96.25
824.329	20.48
824.507	153.6
824.685	141.31
824.863	145.41
825.04	110.59
825.218	110.59
825.396	71.68
825.574	67.58
825.751	81.92
825.929	133.12
826.107	116.73
826.284	163.84
826.462	92.16
826.639	86.01
826.817	65.53
826.994	167.93
827.172	75.77
827.349	155.65
827.527	88.06
827.704	94.21
827.882	131.07
828.059	102.4
828.237	59.39
828.414	110.59
828.591	63.49
828.769	53.25
828.946	120.83
829.124	139.26
829.301	71.68
829.478	55.3
829.655	77.82
829.833	126.97
830.01	94.21
830.187	141.31
830.364	98.3
830.542	71.68
830.719	155.65
830.896	67.58
831.073	174.08
831.25	116.73
831.427	59.39
831.604	67.58
831.782	45.06
831.959	129.02
832.136	49.15
832.313	73.73
832.49	36.86
832.667	86.01
832.844	43.01
833.021	73.73
833.198	32.77
833.374	92.16
833.551	40.96
833.728	118.78
833.905	98.3
834.082	65.53
834.259	51.2
834.436	45.06
834.612	16.38
834.789	190.46
834.966	86.01
835.143	73.73
835.319	38.91
835.496	92.16
835.673	96.25
835.85	108.54
836.026	75.77
836.203	114.69
836.38	124.93
836.556	61.44
836.733	65.53
836.909	112.64
837.086	94.21
837.262	-18.43
837.439	16.38
837.616	83.97
837.792	30.72
837.968	59.39
838.145	88.06
838.321	165.89
838.498	55.3
838.674	96.25
838.851	-26.62
839.027	43.01
839.203	86.01
839.38	12.29
839.556	-20.48
839.732	51.2
839.909	28.67
840.085	40.96
840.261	30.72
840.437	4.1
840.614	36.86
840.79	45.06
840.966	-28.67
841.142	67.58
841.318	16.38
841.494	63.49
841.671	69.63
841.847	92.16
842.023	14.34
842.199	22.53
842.375	69.63
842.551	34.82
842.727	40.96
842.903	69.63
843.079	22.53
843.255	120.83
843.431	63.49
843.607	49.15
843.783	26.62
843.959	30.72
844.134	24.58
844.31	77.82
844.486	47.1
844.662	-4.1
844.838	4.1
845.013	53.25
845.189	69.63
845.365	34.82
845.541	28.67
845.716	30.72
845.892	34.82
846.068	-69.63
846.244	92.16
846.419	67.58
846.595	55.3
846.77	-75.77
846.946	14.34
847.122	55.3
847.297	-53.25
847.473	65.53
847.648	55.3
847.824	73.73
847.999	-67.58
848.175	36.86
848.35	-4.1
848.526	-30.72
848.701	40.96
848.876	24.58
849.052	77.82
849.227	-10.24
849.403	47.1
849.578	69.63
849.753	-47.1
849.929	24.58
850.104	40.96
850.279	55.3
850.454	36.86
850.63	30.72
850.805	-6.14
850.98	88.06
851.155	30.72
851.33	47.1
851.505	4.1
851.681	83.97
851.856	20.48
852.031	139.26
852.206	-2.05
852.381	-8.19
852.556	-2.05
852.731	57.34
852.906	-45.06
853.081	53.25
853.256	49.15
853.431	22.53
853.606	12.29
853.781	-16.38
853.956	-59.39
854.131	26.62
854.305	10.24
854.48	16.38
854.655	-75.77
854.83	-16.38
855.005	30.72
855.18	77.82
855.354	-8.19
855.529	51.2
855.704	24.58
855.879	59.39
856.053	-4.1
856.228	57.34
856.403	-38.91
856.577	36.86
856.752	14.34
856.926	45.06
857.101	63.49
857.276	24.58
857.45	38.91
857.625	16.38
857.799	45.06
857.974	67.58
858.148	12.29
858.323	-2.05
858.497	10.24
858.672	36.86
858.846	-32.77
859.02	30.72
859.195	51.2
859.369	-10.24
859.543	-94.21
859.718	-34.82
859.892	22.53
860.066	26.62
860.241	6.14
860.415	-6.14
860.589	-8.19
860.763	24.58
860.938	34.82
861.112	10.24
861.286	8.19
861.46	-4.1
861.634	-30.72
861.808	73.73
861.982	49.15
862.157	26.62
862.331	38.91
862.505	-22.53
862.679	61.44
862.853	57.34
863.027	6.14
863.201	55.3
863.375	30.72
863.549	10.24
863.722	24.58
863.896	71.68
864.07	-10.24
864.244	75.77
864.418	-36.86
864.592	30.72
864.766	-90.11
864.939	65.53
865.113	-2.05
865.287	-14.34
865.461	12.29
865.634	-20.48
865.808	10.24
865.982	-18.43
866.156	38.91
866.329	47.1
866.503	20.48
866.676	16.38
866.85	-77.82
867.024	2.05
867.197	40.96
867.371	-6.14
867.544	-32.77
867.718	-24.58
867.891	102.4
868.065	22.53
868.238	90.11
868.412	26.62
868.585	4.1
868.759	96.25
868.932	34.82
869.105	20.48
869.279	-61.44
869.452	-6.14
869.625	83.97
869.799	12.29
869.972	63.49
870.145	-26.62
870.319	-14.34
870.492	-0
870.665	26.62
870.838	-40.96
871.011	10.24
871.185	-32.77
871.358	45.06
871.531	14.34
871.704	47.1
871.877	22.53
872.05	47.1
872.223	24.58
872.396	2.05
872.569	30.72
872.742	-16.38
872.915	-18.43
873.088	10.24
873.261	14.34
873.434	2.05
873.607	-38.91
873.78	-2.05
873.953	2.05
874.126	-53.25
874.299	32.77
874.471	14.34
874.644	-10.24
874.817	6.14
874.99	88.06
875.163	-30.72
875.335	28.67
875.508	6.14
875.681	83.97
875.853	10.24
876.026	-6.14
876.199	-40.96
876.371	4.1
876.544	40.96
876.717	-14.34
876.889	-20.48
877.062	-22.53
877.234	10.24
877.407	38.91
877.579	18.43
877.752	34.82
877.924	14.34
878.097	-55.3
878.269	12.29
878.442	-24.58
878.614	-12.29
878.786	-28.67
878.959	-18.43
879.131	-47.1
879.303	-6.14
879.476	-45.06
879.648	65.53
879.82	-32.77
879.993	-36.86
880.165	77.82
880.337	-63.49
880.509	-45.06
880.681	2.05
880.854	-75.77
881.026	32.77
881.198	55.3
881.37	-75.77
881.542	6.14
881.714	16.38
881.886	2.05
882.058	38.91
882.23	47.1
882.402	-36.86
882.574	12.29
882.746	16.38
882.918	49.15
883.09	-61.44
883.262	-30.72
883.434	-47.1
883.606	-45.06
883.778	-59.39
883.95	-20.48
884.122	2.05
884.293	28.67
884.465	20.48
884.637	-8.19
884.809	-30.72
884.98	-6.14
885.152	22.53
885.324	32.77
885.496	26.62
885.667	-30.72
885.839	-57.34
886.011	81.92
886.182	-16.38
886.354	22.53
886.525	6.14
886.697	-47.1
886.869	2.05
887.04	43.01
887.212	26.62
887.383	75.77
887.555	-22.53
887.726	-24.58
887.897	-79.87
888.069	69.63
888.24	12.29
888.412	55.3
888.583	20.48
888.754	-10.24
888.926	-20.48
889.097	53.25
889.268	-12.29
889.44	-0
889.611	-59.39
889.782	22.53
889.953	-4.1
890.125	14.34
890.296	10.24
890.467	-0
890.638	-77.82
890.809	16.38
890.98	-16.38
891.151	4.1
891.323	12.29
891.494	-67.58
891.665	-30.72
891.836	8.19
892.007	-28.67
892.178	-53.25
892.349	-18.43
892.52	-47.1
892.691	26.62
892.862	-8.19
893.032	-8.19
893.203	-2.05
893.374	-53.25
893.545	43.01
893.716	18.43
893.887	14.34
894.057	-47.1
894.228	-38.91
894.399	-43.01
894.57	10.24
894.74	-28.67
894.911	12.29
895.082	-14.34
895.253	-6.14
895.423	-6.14
895.594	-47.1
895.764	-10.24
895.935	40.96
896.106	6.14
896.276	-18.43
896.447	-2.05
896.617	36.86
896.788	-53.25
896.958	16.38
897.129	-53.25
897.299	-59.39
897.47	18.43
897.64	4.1
897.81	-28.67
897.981	-51.2
898.151	-12.29
898.322	-6.14
898.492	-30.72
898.662	-38.91
898.832	8.19
899.003	-30.72
899.173	-32.77
899.343	-30.72
899.513	10.24
