Data from USB4F104151__87__12-28-14-308.txt Node

Date: Fri Mar 14 12:28:14 EDT 2025
User: louis
Spectrometer: USB4F10415
Trigger mode: 4
Integration Time (sec): 2.000000E-2
Scans to average: 1
Electric dark correction enabled: true
Nonlinearity correction enabled: false
Boxcar width: 0
XAxis mode: Wavelengths
Number of Pixels in Spectrum: 3648
>>>>>Begin Spectral Data<<<<<
178.204	-86.7
178.424	-86.7
178.644	-86.7
178.864	-139.94
179.084	-115.37
179.304	-68.27
179.524	44.37
179.744	-37.55
179.964	17.75
180.184	9.56
180.404	-0.68
180.624	-43.69
180.844	1.37
181.064	25.94
181.283	32.08
181.503	17.75
181.723	1.37
181.943	-80.55
182.163	27.99
182.383	-17.07
182.602	75.09
182.822	36.18
183.042	19.8
183.262	-17.07
183.482	-31.4
183.701	-43.69
183.921	-10.92
184.141	-17.07
184.361	-55.98
184.58	52.56
184.8	-82.6
185.02	5.46
185.239	38.23
185.459	103.76
185.679	1.37
185.898	-58.03
186.118	21.85
186.338	11.61
186.557	-19.11
186.777	79.19
186.997	30.04
187.216	40.28
187.436	50.52
187.655	-37.55
187.875	75.09
188.095	54.61
188.314	5.46
188.534	-27.31
188.753	7.51
188.973	54.61
189.192	34.13
189.412	17.75
189.631	38.23
189.851	-17.07
190.07	23.89
190.29	-41.64
190.509	-19.11
190.729	32.08
190.948	-0.68
191.168	71
191.387	-6.83
191.607	5.46
191.826	36.18
192.045	-70.31
192.265	19.8
192.484	25.94
192.704	73.04
192.923	-25.26
193.142	30.04
193.362	-0.68
193.581	-55.98
193.8	17.75
194.02	23.89
194.239	-4.78
194.458	56.66
194.678	-33.45
194.897	-60.07
195.116	58.71
195.335	21.85
195.555	13.65
195.774	-25.26
195.993	21.85
196.212	9.56
196.432	56.66
196.651	-41.64
196.87	-23.21
197.089	52.56
197.308	36.18
197.528	9.56
197.747	-35.5
197.966	17.75
198.185	1.37
198.404	56.66
198.623	60.76
198.842	44.37
199.062	25.94
199.281	9.56
199.5	-53.93
199.719	30.04
199.938	7.51
200.157	52.56
200.376	-4.78
200.595	-25.26
200.814	9.56
201.033	-23.21
201.252	66.9
201.471	64.85
201.69	64.85
201.909	19.8
202.128	15.7
202.347	-15.02
202.566	-17.07
202.785	15.7
203.004	-43.69
203.223	79.19
203.442	-41.64
203.661	-15.02
203.879	-43.69
204.098	-35.5
204.317	-66.22
204.536	9.56
204.755	21.85
204.974	87.38
205.193	-8.87
205.411	87.38
205.63	93.52
205.849	7.51
206.068	52.56
206.287	19.8
206.505	-25.26
206.724	-35.5
206.943	-4.78
207.162	36.18
207.381	-25.26
207.599	-37.55
207.818	-12.97
208.037	15.7
208.255	-41.64
208.474	-6.83
208.693	27.99
208.911	34.13
209.13	17.75
209.349	50.52
209.567	-15.02
209.786	15.7
210.005	-55.98
210.223	56.66
210.442	-15.02
210.661	11.61
210.879	-4.78
211.098	11.61
211.316	25.94
211.535	103.76
211.753	-33.45
211.972	1.37
212.191	-12.97
212.409	68.95
212.628	56.66
212.846	-68.27
213.065	11.61
213.283	25.94
213.502	-60.07
213.72	23.89
213.938	-23.21
214.157	62.8
214.375	87.38
214.594	5.46
214.812	9.56
215.031	60.76
215.249	-47.79
215.467	-2.73
215.686	-23.21
215.904	-58.03
216.122	-17.07
216.341	50.52
216.559	-53.93
216.778	38.23
216.996	-6.83
217.214	3.41
217.432	-53.93
217.651	3.41
217.869	32.08
218.087	7.51
218.306	-19.11
218.524	36.18
218.742	5.46
218.96	-31.4
219.179	46.42
219.397	-66.22
219.615	36.18
219.833	7.51
220.051	-25.26
220.27	-29.35
220.488	99.67
220.706	-29.35
220.924	48.47
221.142	38.23
221.36	13.65
221.578	-33.45
221.796	-4.78
222.015	-10.92
222.233	-8.87
222.451	68.95
222.669	11.61
222.887	32.08
223.105	11.61
223.323	-29.35
223.541	-25.26
223.759	-41.64
223.977	-66.22
224.195	-0.68
224.413	99.67
224.631	-19.11
224.849	-41.64
225.067	130.39
225.285	1.37
225.503	21.85
225.721	-4.78
225.939	60.76
226.157	42.32
226.375	75.09
226.592	66.9
226.81	-21.16
227.028	34.13
227.246	3.41
227.464	-27.31
227.682	83.28
227.9	66.9
228.117	-33.45
228.335	-23.21
228.553	-23.21
228.771	114
228.989	15.7
229.206	-12.97
229.424	42.32
229.642	52.56
229.86	27.99
230.077	44.37
230.295	111.96
230.513	-8.87
230.731	25.94
230.948	71
231.166	48.47
231.384	-37.55
231.601	-43.69
231.819	93.52
232.037	-8.87
232.254	-17.07
232.472	-2.73
232.689	-15.02
232.907	36.18
233.125	-17.07
233.342	-37.55
233.56	5.46
233.777	9.56
233.995	-23.21
234.213	46.42
234.43	-6.83
234.648	50.52
234.865	32.08
235.083	-23.21
235.3	75.09
235.518	-10.92
235.735	21.85
235.953	7.51
236.17	32.08
236.388	27.99
236.605	-19.11
236.822	30.04
237.04	5.46
237.257	-0.68
237.475	30.04
237.692	-17.07
237.909	21.85
238.127	-25.26
238.344	30.04
238.562	15.7
238.779	11.61
238.996	-4.78
239.214	-10.92
239.431	36.18
239.648	79.19
239.865	58.71
240.083	-6.83
240.3	1.37
240.517	25.94
240.735	-0.68
240.952	50.52
241.169	27.99
241.386	7.51
241.603	-23.21
241.821	23.89
242.038	9.56
242.255	38.23
242.472	-12.97
242.689	81.24
242.907	15.7
243.124	50.52
243.341	21.85
243.558	-0.68
243.775	1.37
243.992	13.65
244.209	71
244.426	58.71
244.643	62.8
244.86	-27.31
245.078	30.04
245.295	44.37
245.512	118.1
245.729	-19.11
245.946	-15.02
246.163	40.28
246.38	64.85
246.597	46.42
246.814	9.56
247.031	-2.73
247.248	5.46
247.464	15.7
247.681	25.94
247.898	19.8
248.115	27.99
248.332	17.75
248.549	13.65
248.766	58.71
248.983	17.75
249.2	-19.11
249.417	25.94
249.633	64.85
249.85	62.8
250.067	-35.5
250.284	46.42
250.501	-4.78
250.717	30.04
250.934	-4.78
251.151	36.18
251.368	11.61
251.585	58.71
251.801	-23.21
252.018	-2.73
252.235	-15.02
252.451	13.65
252.668	-0.68
252.885	75.09
253.102	-0.68
253.318	46.42
253.535	-41.64
253.752	-8.87
253.968	25.94
254.185	-60.07
254.401	-21.16
254.618	54.61
254.835	50.52
255.051	27.99
255.268	60.76
255.484	36.18
255.701	-29.35
255.917	111.96
256.134	15.7
256.351	11.61
256.567	44.37
256.784	-25.26
257	23.89
257.217	66.9
257.433	64.85
257.65	30.04
257.866	60.76
258.082	42.32
258.299	3.41
258.515	60.76
258.732	30.04
258.948	3.41
259.165	-21.16
259.381	48.47
259.597	87.38
259.814	36.18
260.03	77.14
260.246	111.96
260.463	21.85
260.679	83.28
260.895	23.89
261.112	136.53
261.328	-12.97
261.544	60.76
261.761	68.95
261.977	-37.55
262.193	-19.11
262.409	36.18
262.626	-8.87
262.842	44.37
263.058	7.51
263.274	-41.64
263.49	17.75
263.707	27.99
263.923	21.85
264.139	44.37
264.355	25.94
264.571	27.99
264.787	36.18
265.004	44.37
265.22	-21.16
265.436	-21.16
265.652	-23.21
265.868	54.61
266.084	-21.16
266.3	83.28
266.516	23.89
266.732	-6.83
266.948	46.42
267.164	1.37
267.38	38.23
267.596	79.19
267.812	48.47
268.028	40.28
268.244	-39.59
268.46	13.65
268.676	1.37
268.892	-88.75
269.108	5.46
269.324	-12.97
269.54	1.37
269.756	17.75
269.972	-4.78
270.188	-25.26
270.403	-27.31
270.619	68.95
270.835	56.66
271.051	46.42
271.267	40.28
271.483	-47.79
271.698	50.52
271.914	-17.07
272.13	-21.16
272.346	-15.02
272.562	54.61
272.777	83.28
272.993	23.89
273.209	73.04
273.425	-0.68
273.64	-21.16
273.856	25.94
274.072	-6.83
274.287	-45.74
274.503	5.46
274.719	17.75
274.934	54.61
275.15	1.37
275.366	-4.78
275.581	-47.79
275.797	-17.07
276.012	81.24
276.228	42.32
276.444	34.13
276.659	-6.83
276.875	-8.87
277.09	46.42
277.306	11.61
277.521	34.13
277.737	52.56
277.952	130.39
278.168	-12.97
278.383	89.43
278.599	21.85
278.814	27.99
279.03	34.13
279.245	50.52
279.461	42.32
279.676	5.46
279.892	-27.31
280.107	38.23
280.322	-12.97
280.538	81.24
280.753	15.7
280.969	60.76
281.184	66.9
281.399	17.75
281.615	30.04
281.83	30.04
282.045	27.99
282.26	7.51
282.476	-25.26
282.691	79.19
282.906	9.56
283.122	9.56
283.337	-2.73
283.552	56.66
283.767	60.76
283.983	7.51
284.198	58.71
284.413	-0.68
284.628	15.7
284.843	89.43
285.058	71
285.274	-23.21
285.489	-39.59
285.704	34.13
285.919	-66.22
286.134	21.85
286.349	73.04
286.564	46.42
286.779	93.52
286.995	-2.73
287.21	11.61
287.425	95.57
287.64	81.24
287.855	36.18
288.07	-19.11
288.285	-37.55
288.5	27.99
288.715	60.76
288.93	40.28
289.145	13.65
289.36	40.28
289.575	-12.97
289.79	21.85
290.004	-33.45
290.219	46.42
290.434	44.37
290.649	48.47
290.864	11.61
291.079	52.56
291.294	105.81
291.509	23.89
291.724	-2.73
291.938	-27.31
292.153	21.85
292.368	-25.26
292.583	9.56
292.798	13.65
293.012	-55.98
293.227	148.82
293.442	3.41
293.657	60.76
293.871	54.61
294.086	11.61
294.301	-4.78
294.516	60.76
294.73	34.13
294.945	-8.87
295.16	-72.36
295.374	-17.07
295.589	64.85
295.804	36.18
296.018	17.75
296.233	5.46
296.447	48.47
296.662	-10.92
296.877	107.86
297.091	9.56
297.306	50.52
297.52	-0.68
297.735	-0.68
297.949	-15.02
298.164	-10.92
298.378	40.28
298.593	-10.92
298.807	15.7
299.022	73.04
299.236	-12.97
299.451	64.85
299.665	38.23
299.88	73.04
300.094	13.65
300.309	40.28
300.523	73.04
300.737	11.61
300.952	19.8
301.166	32.08
301.381	7.51
301.595	-29.35
301.809	23.89
302.024	77.14
302.238	-35.5
302.452	17.75
302.667	-4.78
302.881	30.04
303.095	48.47
303.309	3.41
303.524	17.75
303.738	-0.68
303.952	-33.45
304.166	-17.07
304.381	-47.79
304.595	36.18
304.809	7.51
305.023	-4.78
305.237	42.32
305.452	-2.73
305.666	79.19
305.88	66.9
306.094	-12.97
306.308	75.09
306.522	183.63
306.736	-4.78
306.95	68.95
307.164	60.76
307.379	44.37
307.593	68.95
307.807	-27.31
308.021	46.42
308.235	32.08
308.449	15.7
308.663	42.32
308.877	15.7
309.091	-15.02
309.305	27.99
309.519	-133.8
309.733	44.37
309.947	-51.88
310.161	103.76
310.374	66.9
310.588	-39.59
310.802	-8.87
311.016	30.04
311.23	34.13
311.444	13.65
311.658	9.56
311.872	62.8
312.085	38.23
312.299	25.94
312.513	93.52
312.727	5.46
312.941	-62.12
313.154	64.85
313.368	-37.55
313.582	48.47
313.796	15.7
314.009	21.85
314.223	85.33
314.437	120.15
314.651	17.75
314.864	75.09
315.078	40.28
315.292	15.7
315.505	15.7
315.719	15.7
315.933	-8.87
316.146	-6.83
316.36	-47.79
316.573	27.99
316.787	17.75
317.001	-0.68
317.214	13.65
317.428	105.81
317.641	11.61
317.855	58.71
318.068	36.18
318.282	-2.73
318.495	34.13
318.709	44.37
318.922	60.76
319.136	42.32
319.349	64.85
319.563	11.61
319.776	66.9
319.99	25.94
320.203	109.91
320.417	-84.65
320.63	-39.59
320.843	-70.31
321.057	19.8
321.27	58.71
321.483	-21.16
321.697	27.99
321.91	97.62
322.124	38.23
322.337	13.65
322.55	36.18
322.763	58.71
322.977	32.08
323.19	-35.5
323.403	11.61
323.617	-17.07
323.83	60.76
324.043	30.04
324.256	-8.87
324.469	25.94
324.683	66.9
324.896	-4.78
325.109	42.32
325.322	83.28
325.535	46.42
325.748	36.18
325.962	30.04
326.175	-35.5
326.388	21.85
326.601	-58.03
326.814	52.56
327.027	19.8
327.24	101.72
327.453	44.37
327.666	11.61
327.879	56.66
328.092	21.85
328.305	27.99
328.518	54.61
328.731	-2.73
328.944	46.42
329.157	44.37
329.37	-29.35
329.583	19.8
329.796	50.52
330.009	1.37
330.222	-15.02
330.435	68.95
330.648	52.56
330.861	42.32
331.073	23.89
331.286	5.46
331.499	3.41
331.712	68.95
331.925	1.37
332.138	38.23
332.35	79.19
332.563	66.9
332.776	97.62
332.989	-39.59
333.202	1.37
333.414	40.28
333.627	71
333.84	3.41
334.053	23.89
334.265	15.7
334.478	5.46
334.691	58.71
334.903	-43.69
335.116	-8.87
335.329	83.28
335.541	50.52
335.754	50.52
335.966	-19.11
336.179	68.95
336.392	30.04
336.604	13.65
336.817	46.42
337.029	44.37
337.242	99.67
337.454	58.71
337.667	66.9
337.88	91.48
338.092	27.99
338.305	75.09
338.517	-6.83
338.729	83.28
338.942	91.48
339.154	-37.55
339.367	13.65
339.579	-15.02
339.792	-23.21
340.004	105.81
340.217	54.61
340.429	54.61
340.641	25.94
340.854	-33.45
341.066	-29.35
341.278	71
341.491	77.14
341.703	-0.68
341.915	15.7
342.128	97.62
342.34	46.42
342.552	-23.21
342.764	42.32
342.977	-27.31
343.189	-4.78
343.401	23.89
343.613	-4.78
343.826	93.52
344.038	34.13
344.25	19.8
344.462	19.8
344.674	66.9
344.886	19.8
345.099	17.75
345.311	-37.55
345.523	36.18
345.735	-49.83
345.947	38.23
346.159	52.56
346.371	32.08
346.583	89.43
346.795	64.85
347.007	64.85
347.219	71
347.431	60.76
347.643	19.8
347.855	-21.16
348.067	56.66
348.279	-2.73
348.491	23.89
348.703	48.47
348.915	-49.83
349.127	116.05
349.339	3.41
349.551	-37.55
349.763	44.37
349.975	66.9
350.187	56.66
350.399	116.05
350.61	77.14
350.822	48.47
351.034	7.51
351.246	-0.68
351.458	1.37
351.669	109.91
351.881	9.56
352.093	-4.78
352.305	81.24
352.517	25.94
352.728	60.76
352.94	34.13
353.152	91.48
353.363	109.91
353.575	71
353.787	64.85
353.999	3.41
354.21	91.48
354.422	75.09
354.633	25.94
354.845	36.18
355.057	-12.97
355.268	91.48
355.48	73.04
355.692	-21.16
355.903	79.19
356.115	-51.88
356.326	52.56
356.538	64.85
356.749	23.89
356.961	75.09
357.172	71
357.384	50.52
357.595	9.56
357.807	48.47
358.018	23.89
358.23	77.14
358.441	17.75
358.653	71
358.864	77.14
359.075	38.23
359.287	-80.55
359.498	62.8
359.709	52.56
359.921	40.28
360.132	42.32
360.344	36.18
360.555	27.99
360.766	62.8
360.977	27.99
361.189	56.66
361.4	68.95
361.611	54.61
361.823	19.8
362.034	77.14
362.245	-62.12
362.456	-8.87
362.667	32.08
362.879	52.56
363.09	27.99
363.301	58.71
363.512	52.56
363.723	-6.83
363.935	-35.5
364.146	36.18
364.357	62.8
364.568	68.95
364.779	-39.59
364.99	107.86
365.201	3.41
365.412	38.23
365.623	-4.78
365.834	48.47
366.045	21.85
366.256	50.52
366.467	64.85
366.678	-37.55
366.889	-17.07
367.1	52.56
367.311	23.89
367.522	38.23
367.733	13.65
367.944	-17.07
368.155	36.18
368.366	99.67
368.577	-0.68
368.788	50.52
368.999	46.42
369.209	46.42
369.42	32.08
369.631	91.48
369.842	19.8
370.053	36.18
370.264	38.23
370.474	3.41
370.685	60.76
370.896	36.18
371.107	13.65
371.317	111.96
371.528	9.56
371.739	97.62
371.95	85.33
372.16	68.95
372.371	-23.21
372.582	48.47
372.792	19.8
373.003	1.37
373.214	-4.78
373.424	81.24
373.635	34.13
373.846	97.62
374.056	15.7
374.267	48.47
374.477	-17.07
374.688	15.7
374.898	46.42
375.109	52.56
375.319	21.85
375.53	40.28
375.74	23.89
375.951	77.14
376.161	-27.31
376.372	75.09
376.582	36.18
376.793	101.72
377.003	32.08
377.214	11.61
377.424	73.04
377.635	23.89
377.845	42.32
378.055	85.33
378.266	5.46
378.476	46.42
378.686	79.19
378.897	11.61
379.107	71
379.317	56.66
379.528	30.04
379.738	132.44
379.948	36.18
380.158	46.42
380.369	56.66
380.579	32.08
380.789	85.33
380.999	93.52
381.21	40.28
381.42	1.37
381.63	52.56
381.84	25.94
382.05	50.52
382.261	17.75
382.471	15.7
382.681	27.99
382.891	81.24
383.101	42.32
383.311	21.85
383.521	66.9
383.731	-0.68
383.941	34.13
384.151	99.67
384.361	48.47
384.571	52.56
384.781	83.28
384.991	116.05
385.201	68.95
385.411	91.48
385.621	38.23
385.831	105.81
386.041	126.29
386.251	56.66
386.461	138.58
386.671	50.52
386.881	-39.59
387.091	32.08
387.301	120.15
387.511	83.28
387.72	66.9
387.93	89.43
388.14	163.15
388.35	75.09
388.56	34.13
388.769	120.15
388.979	91.48
389.189	1.37
389.399	21.85
389.609	107.86
389.818	79.19
390.028	21.85
390.238	62.8
390.447	68.95
390.657	91.48
390.867	109.91
391.076	-17.07
391.286	116.05
391.496	107.86
391.705	83.28
391.915	77.14
392.125	83.28
392.334	75.09
392.544	89.43
392.753	75.09
392.963	93.52
393.172	101.72
393.382	38.23
393.591	118.1
393.801	81.24
394.01	128.34
394.22	120.15
394.429	89.43
394.639	120.15
394.848	120.15
395.058	85.33
395.267	93.52
395.477	56.66
395.686	126.29
395.895	116.05
396.105	126.29
396.314	83.28
396.524	68.95
396.733	48.47
396.942	95.57
397.152	93.52
397.361	91.48
397.57	56.66
397.78	95.57
397.989	124.24
398.198	200.02
398.407	138.58
398.617	42.32
398.826	109.91
399.035	103.76
399.244	75.09
399.453	114
399.663	138.58
399.872	95.57
400.081	89.43
400.29	136.53
400.499	27.99
400.708	107.86
400.917	138.58
401.127	93.52
401.336	195.92
401.545	89.43
401.754	99.67
401.963	89.43
402.172	138.58
402.381	142.68
402.59	85.33
402.799	238.93
403.008	191.83
403.217	214.35
403.426	152.92
403.635	128.34
403.844	152.92
404.053	171.35
404.262	144.72
404.471	263.51
404.68	136.53
404.888	185.68
405.097	183.63
405.306	132.44
405.515	165.2
405.724	181.59
405.933	275.79
406.142	226.64
406.35	224.59
406.559	222.55
406.768	189.78
406.977	251.22
407.185	236.88
407.394	265.55
407.603	212.31
407.812	228.69
408.02	288.08
408.229	281.94
408.438	228.69
408.646	281.94
408.855	320.85
409.064	343.38
409.272	392.53
409.481	421.2
409.69	353.62
409.898	329.04
410.107	345.42
410.315	404.82
410.524	353.62
410.733	402.77
410.941	386.38
411.15	511.31
411.358	451.92
411.567	513.36
411.775	458.06
411.984	496.97
412.192	544.08
412.401	587.08
412.609	607.56
412.818	671.05
413.026	623.95
413.234	714.06
413.443	669
413.651	740.68
413.86	718.15
414.068	697.67
414.276	775.5
414.485	861.51
414.693	806.22
414.901	918.86
415.11	965.96
415.318	902.47
415.526	922.95
415.734	986.44
415.943	1008.97
416.151	1029.45
416.359	1125.7
416.567	1131.84
416.776	1271.11
416.984	1301.83
417.192	1291.59
417.4	1275.2
417.608	1236.29
417.817	1283.39
418.025	1348.93
418.233	1502.53
418.441	1463.62
418.649	1559.87
418.857	1619.26
419.065	1721.66
419.273	1662.27
419.481	1783.1
419.689	1877.3
419.897	1938.74
420.105	1938.74
420.313	2030.9
420.521	2200.88
420.729	2094.39
420.937	2331.95
421.145	2377.01
421.353	2497.84
421.561	2553.13
421.769	2614.57
421.977	2764.08
422.185	2608.43
422.393	2874.67
422.601	3056.93
422.809	3020.07
423.017	3063.08
423.224	3212.58
423.432	3325.22
423.64	3294.5
423.848	3579.17
424.056	3587.36
424.263	3736.86
424.471	3826.97
424.679	3849.5
424.887	4064.54
425.094	4287.76
425.302	4238.61
425.51	4367.63
425.718	4558.1
425.925	4521.23
426.133	4644.11
426.341	5004.55
426.548	5078.28
426.756	5260.55
426.964	5338.37
427.171	5543.17
427.379	5676.29
427.586	5752.06
427.794	6008.06
428.001	6268.15
428.209	6507.76
428.417	6522.1
428.624	6829.29
428.832	6933.74
429.039	6825.2
429.247	6694.13
429.454	7605.47
429.662	8045.79
429.869	7693.54
430.076	8049.88
430.284	7920.86
430.491	8066.27
430.699	8668.37
430.906	8656.08
431.114	8649.94
431.321	9106.63
431.528	9280.71
431.736	9888.96
431.943	10497.21
432.15	10099.9
432.358	9940.16
432.565	10726.58
432.772	10622.13
432.979	11156.65
433.187	11365.54
433.394	11400.36
433.601	12221.59
433.808	12184.73
434.016	12258.46
434.223	12614.8
434.43	13796.48
434.637	13180.04
434.844	13988.99
435.052	14378.11
435.259	14210.17
435.466	14288
435.673	14220.41
435.88	15107.18
436.087	16065.63
436.294	16002.15
436.501	15854.69
436.708	15924.32
436.915	16471.13
437.122	17187.92
437.329	17134.67
437.537	17650.76
437.743	17855.56
437.95	17769.54
438.157	18803.77
438.364	19182.64
438.571	19592.23
438.778	19467.31
438.985	21505.04
439.192	20425.76
439.399	21290
439.606	21036.05
439.813	22105.09
440.02	23211
440.227	22934.52
440.433	22397.95
440.64	23038.97
440.847	23280.63
441.054	23755.75
441.261	25359.31
441.467	25074.65
441.674	25793.48
441.881	26897.34
442.088	26262.47
442.294	26233.8
442.501	26971.07
442.708	27466.67
442.914	28750.75
443.121	29713.3
443.328	28916.64
443.534	30966.65
443.741	29981.58
443.948	29860.75
444.154	31943.53
444.361	31757.17
444.568	32146.28
444.774	31976.3
444.981	32330.6
445.187	33342.3
445.394	34853.7
445.6	34130.76
445.807	37563.16
446.013	36154.16
446.22	36664.1
446.426	37491.48
446.633	38064.91
446.839	39742.2
447.046	37792.53
447.252	39879.41
447.459	40133.36
447.665	39834.36
447.871	41861.85
448.078	43631.29
448.284	41577.18
448.491	42422.99
448.697	44278.45
448.903	44894.89
449.11	45228.71
449.316	44219.06
449.522	45361.83
449.728	45963.93
449.935	46750.35
450.141	46713.48
450.347	47684.22
450.553	46475.92
450.76	46815.88
450.966	48427.63
451.172	47856.25
451.378	49355.36
451.584	48263.8
451.791	49406.56
451.997	49007.21
452.203	49951.32
452.409	50201.18
452.615	49570.4
452.821	47725.18
453.027	47751.8
453.233	50152.02
453.44	48310.9
453.646	48484.98
453.852	48966.25
454.058	49781.34
454.264	48167.54
454.47	49093.22
454.676	48001.66
454.882	49709.66
455.088	45509.28
455.294	45914.78
455.5	46738.06
455.705	47368.83
455.911	45841.05
456.117	44892.84
456.323	44032.69
456.529	41804.5
456.735	43743.93
456.941	42384.08
457.147	41528.03
457.352	40600.3
457.558	39977.72
457.764	40149.74
457.97	39508.73
458.176	38867.72
458.381	38613.77
458.587	36975.39
458.793	36875.04
458.999	34995.01
459.204	37358.36
459.41	36211.5
459.616	34079.57
459.821	33823.57
460.027	33663.83
460.233	33420.12
460.438	31490.93
460.644	32007.02
460.85	30755.71
461.055	29950.86
461.261	29793.17
461.466	27395
461.672	26928.06
461.878	29141.91
462.083	27093.94
462.289	26069.96
462.494	25760.72
462.7	25054.17
462.905	24376.29
463.111	24996.82
463.316	25625.55
463.522	24982.49
463.727	24810.46
463.932	24611.81
464.138	24566.75
464.343	24454.11
464.549	23778.28
464.754	24570.85
464.959	24554.46
465.165	24185.83
465.37	22995.96
465.575	22428.67
465.781	23507.95
465.986	23643.12
466.191	22711.29
466.397	22387.71
466.602	21077.01
466.807	21998.6
467.012	22354.94
467.218	22170.63
467.423	21963.78
467.628	21910.53
467.833	22778.87
468.038	21988.36
468.244	21330.96
468.449	22287.36
468.654	21310.48
468.859	21466.13
469.064	21337.1
469.269	20452.38
469.474	20550.68
469.679	20956.18
469.885	20294.69
470.09	20511.77
470.295	20395.04
470.5	19833.89
470.705	20034.6
470.91	19457.07
471.115	19369.01
471.32	19745.83
471.525	19733.54
471.73	19145.78
471.935	18926.64
472.139	18418.75
472.344	18625.59
472.549	18656.31
472.754	18162.75
472.959	17820.74
473.164	17480.78
473.369	17468.49
473.574	18162.75
473.778	17935.43
473.983	17550.41
474.188	17695.82
474.393	16641.11
474.598	16952.4
474.802	16639.06
475.007	16710.74
475.212	16583.77
475.417	15905.89
475.621	15871.08
475.826	16168.03
476.031	15725.67
476.235	15299.69
476.44	15561.83
476.645	15142
476.849	15494.25
477.054	15193.2
477.259	14912.63
477.463	14883.95
477.668	14529.66
477.872	14734.45
478.077	14558.33
478.282	14052.48
478.486	14136.45
478.691	13909.12
478.895	14173.31
479.1	13806.72
479.304	14027.9
479.509	13413.51
479.713	13610.12
479.918	13255.82
480.122	13124.75
480.326	13427.85
480.531	13520.01
480.735	13077.65
480.94	13151.37
481.144	13507.72
481.348	12944.53
481.553	12936.34
481.757	12678.29
481.961	13032.59
482.166	13251.72
482.37	13016.21
482.574	12602.52
482.778	12989.58
482.983	12805.27
483.187	13044.88
483.391	12827.79
483.595	12754.07
483.8	12766.35
484.004	12743.83
484.208	12981.39
484.412	12600.47
484.616	12659.86
484.821	12909.71
485.025	12895.38
485.229	12956.82
485.433	12745.87
485.637	12743.83
485.841	12831.89
486.045	12498.07
486.249	12885.14
486.453	12684.44
486.657	12797.07
486.861	12725.4
487.065	12512.41
487.269	12805.27
487.473	12518.55
487.677	12741.78
487.881	12950.67
488.085	12872.85
488.289	12981.39
488.493	12625.04
488.697	12754.07
488.901	12635.28
489.105	12887.18
489.309	12987.54
489.512	13005.97
489.716	12915.86
489.92	12876.94
490.124	12983.44
490.328	13053.07
490.531	13102.22
490.735	12979.34
490.939	13069.45
491.143	13001.87
491.346	12932.24
491.55	13247.63
491.754	13415.56
491.958	13378.7
492.161	13143.18
492.365	13429.9
492.569	13333.64
492.772	13524.1
492.976	13565.06
493.18	13722.76
493.383	13898.88
493.587	13888.64
493.79	14210.17
493.994	13747.33
494.197	13864.07
494.401	13919.36
494.605	14234.75
494.808	14345.34
495.012	14322.81
495.215	14335.1
495.419	14627.96
495.622	14359.67
495.825	14703.73
496.029	14822.52
496.232	15142
496.436	15223.92
496.639	15428.71
496.843	15314.03
497.046	15619.17
497.249	15471.72
497.453	15531.11
497.656	15952.99
497.859	16102.5
498.063	16305.24
498.266	16614.49
498.469	16436.31
498.673	16919.64
498.876	16923.73
499.079	16987.22
499.282	16921.68
499.485	17495.11
499.689	17263.69
499.892	17941.57
500.095	17693.77
500.298	18312.25
500.501	18054.21
500.705	18615.35
500.908	18697.27
501.111	18820.15
501.314	19072.05
501.517	19264.56
501.72	19516.46
501.923	19631.15
502.126	19948.58
502.329	20364.32
502.532	20413.47
502.735	20657.18
502.938	20655.13
503.141	20835.35
503.344	21351.44
503.547	21218.32
503.75	21681.16
503.953	22064.13
504.156	22209.54
504.359	22162.44
504.562	22729.72
504.765	23311.35
504.968	22948.86
505.17	23428.08
505.373	23344.11
505.576	23874.54
505.779	24030.18
505.982	24243.17
506.185	24613.85
506.387	24742.88
506.59	25043.93
506.793	25367.51
506.996	25316.31
507.198	26174.41
507.401	25967.56
507.604	26100.68
507.807	26954.68
508.009	26809.28
508.212	27042.74
508.415	27370.42
508.617	27694
508.82	27761.58
509.022	27956.14
509.225	28517.28
509.428	28908.44
509.63	29479.83
509.833	29307.8
510.035	29668.24
510.238	29735.82
510.44	29887.37
510.643	30331.78
510.845	30548.87
511.048	30718.85
511.25	30940.03
511.453	31130.49
511.655	32326.5
511.858	31923.05
512.06	32078.7
512.262	32531.3
512.465	32564.07
512.667	33119.07
512.87	33579.86
513.072	33489.75
513.274	33921.87
513.477	34671.43
513.679	34708.29
513.881	35367.74
514.084	35369.79
514.286	35484.47
514.488	36166.45
514.69	36530.98
514.893	36752.16
515.095	36887.33
515.297	37081.89
515.499	37612.31
515.701	38175.5
515.904	38109.97
516.106	38497.03
516.308	39107.33
516.51	39236.35
516.712	38927.11
516.914	39703.29
517.116	40106.74
517.318	40248.05
517.52	40547.05
517.722	40860.39
517.925	41251.55
518.127	41566.94
518.329	41984.72
518.531	41632.47
518.733	42887.88
518.935	42883.78
519.136	43131.59
519.338	43289.28
519.54	43930.29
519.742	44188.34
519.944	44286.64
520.146	44991.14
520.348	44903.08
520.55	45267.62
520.752	45365.92
520.954	46279.32
521.155	45951.64
521.357	46787.21
521.559	46903.95
521.761	47227.52
521.963	47102.6
522.164	47186.57
522.366	47835.77
522.568	48300.66
522.77	48216.69
522.971	48925.29
523.173	48857.71
523.375	49140.33
523.576	49685.09
523.778	49369.7
523.98	49836.64
524.181	49969.75
524.383	50276.95
524.584	50618.96
524.786	50561.62
524.988	50684.5
525.189	51305.03
525.391	50975.31
525.592	51761.73
525.794	52025.92
525.995	51819.07
526.197	51548.74
526.398	52056.64
526.6	52607.54
526.801	52703.79
527.003	52668.98
527.204	52726.32
527.406	53312.04
527.607	53082.67
527.808	53948.96
528.01	53056.04
528.211	53328.42
528.412	54665.75
528.614	53953.05
528.815	54475.29
529.016	54608.4
529.218	54088.22
529.419	54239.77
529.62	54592.02
529.822	54243.87
530.023	54624.79
530.224	54718.99
530.425	54258.2
530.626	53860.9
530.828	54428.18
531.029	55984.64
531.23	54772.24
531.431	54821.39
531.632	55181.84
531.833	55130.64
532.035	55656.96
532.236	55046.67
532.437	55446.02
532.638	55009.81
532.839	56041.98
533.04	55894.53
533.241	54784.53
533.442	56064.51
533.643	55527.94
533.844	55206.41
534.045	55542.28
534.246	55034.38
534.447	56009.21
534.648	55833.09
534.849	55992.83
535.05	55329.29
535.251	55460.36
535.451	55554.57
535.652	55745.03
535.853	55796.23
536.054	55394.82
536.255	55880.19
536.456	55054.86
536.657	56103.42
536.857	55628.29
537.058	55398.92
537.259	55988.74
537.46	55763.46
537.66	55603.72
537.861	55716.36
538.062	55271.95
538.263	56257.02
538.463	55509.51
538.664	55298.57
538.865	55812.61
539.065	56035.84
539.266	55335.43
539.466	55874.05
539.667	55187.98
539.868	55970.3
540.068	55618.05
540.269	55278.09
540.469	55644.68
540.67	55247.37
540.87	55546.37
541.071	55427.59
541.271	55992.83
541.472	55233.03
541.672	55276.04
541.873	55341.58
542.073	54868.5
542.274	55478.79
542.474	55415.3
542.675	55067.15
542.875	55998.97
543.075	55212.55
543.276	54813.2
543.476	55861.76
543.676	55425.54
543.877	55443.98
544.077	55276.04
544.277	55140.88
544.478	55392.78
544.678	55360.01
544.878	55034.38
545.078	54929.94
545.279	54878.74
545.479	54721.04
545.679	55093.77
545.879	55046.67
546.079	54786.58
546.28	55091.72
546.48	54811.15
546.68	55468.55
546.88	55116.3
547.08	54747.67
547.28	55376.39
547.48	54882.83
547.68	55069.2
547.88	54688.27
548.081	55050.77
548.281	54796.82
548.481	54929.94
548.681	55364.1
548.881	54802.96
549.081	55067.15
549.28	54882.83
549.48	54970.89
549.68	54700.56
549.88	55308.81
550.08	54737.43
550.28	55042.57
550.48	54340.12
550.68	55206.41
550.88	54495.77
551.08	54565.4
551.279	55130.64
551.479	54463
551.679	54749.71
551.879	54237.72
552.079	54512.15
552.278	54440.47
552.478	54845.97
552.678	54862.35
552.878	55083.53
553.077	54544.92
553.277	54370.84
553.477	55065.1
553.676	54465.05
553.876	54327.83
554.076	54571.54
554.275	54858.26
554.475	54106.65
554.674	54256.15
554.874	54624.79
555.074	54086.17
555.273	54407.7
555.473	54651.41
555.672	53899.81
555.872	53981.73
556.071	53946.91
556.271	54559.25
556.47	53692.96
556.67	53930.53
556.869	53715.49
557.068	54467.09
557.268	53940.77
557.467	54315.54
557.667	53948.96
557.866	53797.41
558.065	53887.52
558.265	53168.68
558.464	53119.53
558.663	53928.48
558.863	53379.62
559.062	54370.84
559.261	53545.51
559.461	53735.97
559.66	52859.44
559.859	53314.09
560.058	53154.35
560.258	53049.9
560.457	52650.55
560.656	53307.94
560.855	52920.88
561.054	52978.22
561.253	52503.09
561.453	53119.53
561.652	52853.29
561.851	52951.6
562.05	52834.86
562.249	52183.61
562.448	52933.17
562.647	52539.96
562.846	52775.47
563.045	52623.92
563.244	52138.55
563.443	52933.17
563.642	51606.08
563.841	52480.56
564.04	51612.23
564.239	52853.29
564.438	51810.88
564.637	52255.29
564.836	52189.75
565.035	51763.78
565.234	51968.57
565.432	51257.93
565.631	51573.31
565.83	52042.3
566.029	51757.63
566.228	51479.11
566.427	51333.7
566.625	50926.16
566.824	50659.92
567.023	51268.17
567.222	50500.18
567.42	50944.59
567.619	50958.92
567.818	50999.88
568.016	50836.05
568.215	51069.51
568.414	50647.63
568.612	50834
568.811	50485.84
569.01	50578
569.208	49988.19
569.407	50373.2
569.605	49627.74
569.804	50287.19
570.002	49965.66
570.201	49904.22
570.4	49644.13
570.598	49390.18
570.797	49259.11
570.995	49572.45
571.193	49031.79
571.392	50074.2
571.59	49068.65
571.789	49093.22
571.987	48974.44
572.186	49140.33
572.384	48618.1
572.582	49244.77
572.781	49392.23
572.979	48341.62
573.177	48833.13
573.376	48566.9
573.574	48173.69
573.772	48394.87
573.971	48081.53
574.169	48206.45
574.367	47815.29
574.565	48331.38
574.763	48056.95
574.962	47581.82
575.16	47301.25
575.358	47882.87
575.556	47317.64
575.754	47704.7
575.952	47166.09
576.151	47598.21
576.349	46975.62
576.547	46813.83
576.745	46801.55
576.943	47188.61
577.141	46916.23
577.339	46731.92
577.537	46535.31
577.735	46453.39
577.933	46271.12
578.131	46520.98
578.329	45998.74
578.527	45820.57
578.725	45767.32
578.923	46295.7
579.121	45574.81
579.319	45771.42
579.516	45775.51
579.714	45562.53
579.912	45591.2
580.11	45415.07
580.308	45427.36
580.506	45038.25
580.704	44413.62
580.901	45365.92
581.099	45265.57
581.297	44808.87
581.495	44825.26
581.692	44753.58
581.89	44167.86
582.088	44589.74
582.285	44186.29
582.483	44511.92
582.681	44124.85
582.878	44270.26
583.076	43526.85
583.274	44022.45
583.471	43719.35
583.669	43739.83
583.866	43537.08
584.064	43985.59
584.262	43403.97
584.459	43324.1
584.657	43291.33
584.854	43363.01
585.052	42457.81
585.249	43002.57
585.447	42812.1
585.644	42627.79
585.841	42177.23
586.039	42918.6
586.236	42080.98
586.434	42441.42
586.631	42134.23
586.828	42214.1
587.026	42242.77
587.223	41804.5
587.42	41616.09
587.618	41804.5
587.815	41413.34
588.012	41001.7
588.21	41593.56
588.407	41591.51
588.604	40864.49
588.801	40989.41
588.999	40936.16
589.196	40815.33
589.393	40682.22
589.59	40583.91
589.787	40415.98
589.984	40483.56
590.182	40145.65
590.379	40436.46
590.576	39979.76
590.773	40188.66
590.97	39836.41
591.167	39891.7
591.364	39322.37
591.561	39731.96
591.758	39410.43
591.955	39402.24
592.152	39797.49
592.349	39404.28
592.546	39387.9
592.743	39486.2
592.94	38619.91
593.137	39013.12
593.334	38779.65
593.531	38216.46
593.727	38959.87
593.924	38611.72
594.121	38458.12
594.318	38664.97
594.515	37837.59
594.712	38390.54
594.908	38077.2
595.105	38216.46
595.302	37679.89
595.499	38056.72
595.696	37786.39
595.892	37438.23
596.089	37604.12
596.286	37505.82
596.482	37323.55
596.679	37348.12
596.876	37210.91
597.072	36627.24
597.269	36911.91
597.466	36668.2
597.662	36594.47
597.859	36580.14
598.055	36463.4
598.252	36285.23
598.448	36258.6
598.645	36184.88
598.841	35711.8
599.038	35803.96
599.234	35887.92
599.431	35681.08
599.627	35470.14
599.824	36041.52
600.02	35480.38
600.217	35527.48
600.413	35031.87
600.609	34704.2
600.806	35146.56
601.002	35091.26
601.198	34566.98
601.395	34855.75
601.591	34671.43
601.787	34263.88
601.984	34116.43
602.18	34857.79
602.376	34493.26
602.572	34261.83
602.769	34159.44
602.965	33575.76
603.161	33971.02
603.357	33723.22
603.553	33620.82
603.75	33983.31
603.946	33643.35
604.142	33588.05
604.338	33108.83
604.534	33305.43
604.73	33194.84
604.926	32906.08
605.122	33153.88
605.318	32869.22
605.514	32820.06
605.71	32258.92
605.906	32707.43
606.102	32670.56
606.298	32756.58
606.494	32226.15
606.69	32203.63
606.886	32326.5
607.082	31773.55
607.278	32568.16
607.474	31589.24
607.67	32133.99
607.866	31609.72
608.062	32084.84
608.257	31878
608.453	31857.52
608.649	31396.73
608.845	31279.99
609.041	31773.55
609.236	31607.67
609.432	31374.2
609.628	31531.89
609.824	31357.81
610.019	31003.52
610.215	30909.31
610.411	31273.85
610.606	31204.22
610.802	31310.71
610.998	31054.72
611.193	31136.63
611.389	30833.53
611.584	30434.18
611.78	30753.66
611.976	30495.62
612.171	30704.51
612.367	30407.56
612.562	30313.35
612.758	30249.86
612.953	29901.71
613.149	30589.83
613.344	30122.89
613.539	30862.21
613.735	30391.17
613.93	30200.71
614.126	29846.41
614.321	30540.68
614.517	29873.04
614.712	30096.27
614.907	29952.91
615.103	30204.81
615.298	29309.85
615.493	29895.57
615.688	29285.27
615.884	30059.4
616.079	29072.28
616.274	29574.03
616.47	29330.33
616.665	29709.2
616.86	29297.56
617.055	29133.72
617.25	29162.39
617.445	29672.34
617.641	29121.43
617.836	29186.97
618.031	28863.39
618.226	28844.96
618.421	28801.95
618.616	29033.37
618.811	28367.78
619.006	28750.75
619.201	28388.26
619.396	28382.12
619.591	27980.71
619.786	28427.17
619.981	27927.47
620.176	28388.26
620.371	27927.47
620.566	27896.75
620.761	27714.48
620.956	27763.63
621.151	27495.35
621.346	27526.07
621.541	27354.04
621.735	27540.4
621.93	26555.33
622.125	26631.1
622.32	26397.63
622.515	26604.48
622.709	26420.16
622.904	26450.88
623.099	26241.99
623.294	26373.06
623.488	25789.39
623.683	26088.39
623.878	25660.37
624.072	25639.89
624.267	25730
624.462	25410.51
624.656	25242.58
624.851	24980.44
625.046	24849.37
625.24	24996.82
625.435	24490.98
625.629	25033.69
625.824	24380.39
626.018	24486.88
626.213	23821.29
626.407	24226.79
626.602	23700.46
626.796	24038.37
626.991	23645.16
627.185	23565.29
627.38	23423.98
627.574	23301.11
627.768	23038.97
627.963	22928.38
628.157	22369.28
628.352	23053.3
628.546	22176.77
628.74	22492.16
628.935	22578.17
629.129	22453.25
629.323	22408.19
629.517	22043.65
629.712	22105.09
629.906	21502.99
630.1	21634.06
630.294	21787.66
630.489	21484.56
630.683	21527.56
630.877	21206.03
631.071	20968.47
631.265	21050.39
631.459	20827.16
631.653	20907.03
631.848	20829.21
632.042	20436
632.236	20769.82
632.43	20401.18
632.624	20505.63
632.818	20392.99
633.012	20169.76
633.206	19969.06
633.4	19878.95
633.594	19803.18
633.788	19651.63
633.982	20010.02
634.176	19528.75
634.369	19524.65
634.563	19301.42
634.757	19014.71
634.951	19313.71
635.145	19090.48
635.339	19164.21
635.533	18828.34
635.726	18955.32
635.92	18930.74
636.114	18603.07
636.308	18394.17
636.501	18418.75
636.695	18369.6
636.889	18086.98
637.083	18164.8
637.276	17957.96
637.47	17960
637.664	17798.21
637.857	17876.04
638.051	17964.1
638.244	17534.03
638.438	17400.91
638.632	17472.59
638.825	17460.3
639.019	17058.9
639.212	16968.79
639.406	17013.84
639.599	17126.48
639.793	16995.41
639.986	16608.34
640.18	16784.47
640.373	16901.2
640.567	16743.51
640.76	16616.54
640.954	16354.4
641.147	16139.36
641.34	16215.13
641.534	16430.17
641.727	16131.17
641.92	15895.65
642.114	15944.8
642.307	15854.69
642.5	16006.24
642.694	15547.5
642.887	15410.28
643.08	15752.29
643.273	15408.23
643.467	15264.88
643.66	15254.64
643.853	15254.64
644.046	14793.84
644.239	15058.03
644.432	15033.46
644.626	14826.61
644.819	15015.02
645.012	14902.39
645.205	14855.28
645.398	14541.94
645.591	14560.38
645.784	14511.22
645.977	14195.84
646.17	14498.94
646.363	14204.03
646.556	13917.31
646.749	14138.49
646.942	14173.31
647.135	13765.76
647.328	13886.59
647.521	13941.89
647.714	13499.53
647.907	13847.68
648.099	13589.64
648.292	13450.38
648.485	13552.77
648.678	13251.72
648.871	13368.46
649.064	13137.04
649.256	13372.55
649.449	13012.11
649.642	13192.33
649.835	12911.76
650.027	13137.04
650.22	12760.21
650.413	12887.18
650.605	12696.72
650.798	12534.93
650.991	12446.87
651.183	12764.31
651.376	12426.39
651.568	12383.38
651.761	12268.7
651.954	12391.58
652.146	12262.55
652.339	11994.27
652.531	11965.6
652.724	11955.36
652.916	11777.19
653.109	12024.99
653.301	11783.33
653.494	11873.44
653.686	11451.56
653.879	11762.85
654.071	11652.26
654.263	11445.41
654.456	11517.09
654.648	11525.29
654.84	11248.81
655.033	11293.86
655.225	11357.35
655.417	11160.75
655.61	11259.05
655.802	11177.13
655.994	11019.44
656.186	11095.21
656.379	10910.89
656.571	10962.09
656.763	10529.97
656.955	10747.06
657.148	10658.99
657.34	10605.75
657.532	10441.91
657.724	10282.17
657.916	10456.25
658.108	10261.69
658.3	10269.88
658.492	10421.43
658.684	10087.61
658.876	10157.24
659.068	10233.02
659.26	10036.41
659.452	10032.32
659.644	10048.7
659.836	9956.54
660.028	9934.01
660.22	9790.66
660.412	9718.98
660.604	9624.77
660.796	9686.21
660.988	9706.69
661.18	9538.76
661.372	9405.64
661.563	9460.93
661.755	9409.73
661.947	9360.58
662.139	9444.55
662.331	9325.77
662.522	9182.41
662.714	9428.17
662.906	9061.58
663.097	9141.45
663.289	8955.08
663.481	8989.9
663.673	8965.32
663.864	9041.1
664.056	8635.6
664.247	9000.14
664.439	8770.77
664.631	8869.07
664.822	8852.69
665.014	8627.41
665.205	8559.83
665.397	8514.77
665.588	8604.88
665.78	8178.9
665.971	8367.32
666.163	8234.2
666.354	8203.48
666.546	8260.82
666.737	8291.54
666.929	8248.54
667.12	8146.14
667.311	8137.95
667.503	8023.26
667.694	8150.23
667.885	7992.54
668.077	8152.28
668.268	7963.87
668.459	7992.54
668.651	7828.7
668.842	7888.09
669.033	7562.47
669.224	7742.69
669.416	7679.2
669.607	7924.96
669.798	7564.51
669.989	7601.38
670.18	7597.28
670.371	7503.07
670.563	7570.66
670.754	7496.93
670.945	7347.43
671.136	7415.01
671.327	7394.53
671.518	7236.84
671.709	7187.69
671.9	7369.96
672.091	7353.57
672.282	7372
672.473	7152.87
672.664	7146.73
672.855	7116.01
673.046	7066.86
673.237	7263.46
673.428	7120.1
673.619	7118.06
673.809	6843.63
674	6827.25
674.191	6958.32
674.382	6806.77
674.573	6851.82
674.764	6892.78
674.954	6860.01
675.145	6698.22
675.336	6638.83
675.527	6599.92
675.717	6604.02
675.908	6714.61
676.099	6638.83
676.289	6556.91
676.48	6499.57
676.671	6364.4
676.861	6440.18
677.052	6403.32
677.243	6520.05
677.433	6391.03
677.624	6520.05
677.814	6352.12
678.005	6530.29
678.195	6313.2
678.386	6331.64
678.576	6305.01
678.767	6212.85
678.957	6305.01
679.148	6108.41
679.338	6210.81
679.529	6356.21
679.719	6223.09
679.909	6096.12
680.1	6159.61
680.29	6055.16
680.481	6028.54
680.671	6149.37
680.861	5985.53
681.052	6049.02
681.242	6020.35
681.432	6012.15
681.622	5905.66
681.813	5770.49
682.003	5940.47
682.193	5891.32
682.383	5963
682.573	5803.26
682.764	5805.31
682.954	5807.36
683.144	5745.92
683.334	5766.4
683.524	5786.88
683.714	5745.92
683.904	5786.88
684.094	5731.58
684.284	5582.08
684.474	5715.2
684.664	5776.64
684.854	5631.23
685.044	5547.26
685.234	5504.26
685.424	5612.8
685.614	5420.29
685.804	5498.11
685.994	5571.84
686.184	5512.45
686.374	5416.19
686.564	5393.67
686.753	5332.23
686.943	5385.48
687.133	5420.29
687.323	5379.33
687.513	5461.25
687.702	5139.72
687.892	5268.74
688.082	5375.24
688.272	5127.43
688.461	5047.56
688.651	5301.51
688.841	5121.29
689.03	5033.22
689.22	5029.13
689.41	5131.53
689.599	4965.64
689.789	5147.91
689.979	5047.56
690.168	4977.93
690.358	4986.12
690.547	4984.07
690.737	4719.89
690.926	4850.96
691.116	4742.41
691.305	4893.96
691.495	4807.95
691.684	4818.19
691.874	4848.91
692.063	4785.42
692.252	4824.33
692.442	4623.63
692.631	4504.85
692.82	4726.03
693.01	4576.53
693.199	4594.96
693.388	4429.07
693.578	4566.29
693.767	4549.9
693.956	4652.3
694.146	4539.66
694.335	4644.11
694.524	4439.31
694.713	4324.63
694.902	4441.36
695.092	4498.7
695.281	4494.61
695.47	4449.55
695.659	4500.75
695.848	4193.56
696.037	4304.15
696.226	4355.35
696.415	4257.04
696.604	4359.44
696.793	4220.18
696.982	4226.32
697.171	4361.49
697.36	4398.35
697.549	4181.27
697.738	4283.67
697.927	4107.54
698.116	4259.09
698.305	4279.57
698.494	4173.08
698.683	4240.66
698.872	4295.96
699.061	4175.13
699.25	4166.93
699.438	4191.51
699.627	4234.52
699.816	4132.12
700.005	4044.06
700.193	4201.75
700.382	4068.63
700.571	4156.69
700.76	4054.3
700.948	3974.42
701.137	4044.06
701.326	4035.86
701.514	4095.25
701.703	3976.47
701.892	4001.05
702.08	4103.45
702.269	3994.9
702.457	4009.24
702.646	4064.54
702.834	4023.58
703.023	3835.16
703.212	3921.18
703.4	4072.73
703.589	3978.52
703.777	4101.4
703.965	4066.58
704.154	3939.61
704.342	3935.51
704.531	3886.36
704.719	3902.75
704.907	4099.35
705.096	3847.45
705.284	3945.75
705.472	3972.38
705.661	3921.18
705.849	4023.58
706.037	3896.6
706.226	3786.01
706.414	3843.35
706.602	3902.75
706.79	3806.49
706.979	3671.33
707.167	3796.25
707.355	3835.16
707.543	3763.48
707.731	3843.35
707.919	3712.28
708.107	3786.01
708.296	3620.13
708.484	3773.72
708.672	3781.92
708.86	3826.97
709.048	3814.68
709.236	3765.53
709.424	3730.72
709.612	3679.52
709.8	3523.87
709.988	3708.19
710.176	3732.76
710.364	3800.35
710.551	3833.11
710.739	3552.54
710.927	3722.52
711.115	3695.9
711.303	3804.44
711.491	3618.08
711.679	3687.71
711.866	3656.99
712.054	3681.57
712.242	3747.1
712.43	3726.62
712.617	3640.61
712.805	3607.84
712.993	3622.17
713.181	3540.26
713.368	3675.42
713.556	3753.24
713.744	3665.18
713.931	3591.45
714.119	3462.43
714.306	3591.45
714.494	3636.51
714.682	3489.06
714.869	3618.08
715.057	3648.8
715.244	3484.96
715.432	3587.36
715.619	3538.21
715.807	3595.55
715.994	3527.97
716.182	3546.4
716.369	3618.08
716.556	3581.21
716.744	3392.8
716.931	3566.88
717.119	3525.92
717.306	3616.03
717.493	3462.43
717.681	3521.82
717.868	3581.21
718.055	3542.3
718.242	3546.4
718.43	3654.94
718.617	3376.42
718.804	3462.43
718.991	3534.11
719.179	3476.77
719.366	3568.93
719.553	3536.16
719.74	3425.57
719.927	3417.38
720.114	3548.45
720.301	3437.86
720.488	3462.43
720.676	3433.76
720.863	3439.9
721.05	3456.29
721.237	3444
721.424	3425.57
721.611	3482.91
721.798	3552.54
721.985	3507.49
722.172	3394.85
722.358	3448.1
722.545	3507.49
722.732	3276.07
722.919	3452.19
723.106	3374.37
723.293	3308.83
723.48	3357.99
723.667	3341.6
723.853	3286.31
724.04	3366.18
724.227	3294.5
724.414	3317.03
724.6	3407.14
724.787	3421.47
724.974	3384.61
725.161	3263.78
725.347	3372.32
725.534	3355.94
725.72	3296.55
725.907	3525.92
726.094	3351.84
726.28	3327.27
726.467	3337.51
726.653	3331.36
726.84	3368.23
727.027	3296.55
727.213	3257.64
727.4	3364.13
727.586	3349.79
727.773	3286.31
727.959	3267.88
728.145	3314.98
728.332	3312.93
728.518	3269.92
728.705	3300.64
728.891	3263.78
729.077	3265.83
729.264	3325.22
729.45	3343.65
729.636	3323.17
729.823	3202.34
730.009	3216.68
730.195	3157.29
730.382	3349.79
730.568	3302.69
730.754	3118.37
730.94	3243.3
731.126	3253.54
731.313	3245.35
731.499	3290.4
731.685	3149.09
731.871	3396.9
732.057	3261.73
732.243	3218.72
732.429	3142.95
732.615	3206.44
732.801	3226.92
732.987	3343.65
733.173	3210.53
733.359	3194.15
733.545	3155.24
733.731	3161.38
733.917	3161.38
734.103	3202.34
734.289	3245.35
734.475	3194.15
734.661	3142.95
734.847	3194.15
735.033	3128.61
735.219	3259.68
735.404	3120.42
735.59	3118.37
735.776	2934.06
735.962	3089.7
736.148	3087.65
736.333	3036.45
736.519	3122.47
736.705	3075.37
736.89	3071.27
737.076	3071.27
737.262	3001.64
737.447	3038.5
737.633	3085.61
737.819	2942.25
738.004	3022.12
738.19	2823.47
738.375	2956.58
738.561	2956.58
738.747	3069.22
738.932	3015.98
739.118	2927.91
739.303	2975.02
739.489	2932.01
739.674	2880.81
739.859	2913.58
740.045	2884.91
740.23	3005.74
740.416	2919.72
740.601	3095.85
740.786	2809.13
740.972	2929.96
741.157	2823.47
741.342	2897.19
741.528	2796.84
741.713	2856.23
741.898	2860.33
742.084	2792.75
742.269	2719.02
742.454	2837.8
742.639	2788.65
742.824	2692.4
743.01	2739.5
743.195	2708.78
743.38	2737.45
743.565	2768.17
743.75	2749.74
743.935	2721.07
744.12	2776.36
744.305	2690.35
744.49	2694.44
744.675	2612.53
744.86	2635.05
745.045	2682.16
745.23	2712.88
745.415	2618.67
745.6	2641.2
745.785	2524.46
745.97	2663.72
746.155	2567.47
746.34	2602.29
746.525	2514.22
746.71	2594.09
746.895	2546.99
747.079	2473.26
747.264	2479.41
747.449	2454.83
747.634	2579.76
747.819	2514.22
748.003	2397.49
748.188	2303.28
748.373	2481.46
748.557	2374.96
748.742	2393.39
748.927	2354.48
749.111	2385.2
749.296	2356.53
749.481	2270.51
749.665	2307.38
749.85	2174.26
750.034	2284.85
750.219	2215.22
750.404	2164.02
750.588	2168.12
750.773	2100.53
750.957	2297.14
751.141	2102.58
751.326	2145.59
751.51	2258.23
751.695	1985.85
751.879	2071.86
752.064	2123.06
752.248	2098.49
752.432	2133.3
752.617	2057.53
752.801	2020.66
752.985	1965.37
753.17	2041.14
753.354	1897.78
753.538	2092.34
753.722	1879.35
753.907	1887.54
754.091	1895.74
754.275	1946.94
754.459	1967.42
754.643	1910.07
754.828	1850.68
755.012	1893.69
755.196	1903.93
755.38	1852.73
755.564	1799.48
755.748	1785.15
755.932	1826.11
756.116	1850.68
756.3	1785.15
756.484	1795.39
756.668	1756.47
756.852	1688.89
757.036	1713.47
757.22	1785.15
757.404	1735.99
757.588	1658.17
757.772	1656.12
757.956	1695.04
758.14	1606.97
758.323	1606.97
758.507	1484.09
758.691	1584.45
758.875	1586.49
759.059	1676.6
759.242	1578.3
759.426	1656.12
759.61	1527.1
759.794	1559.87
759.977	1561.92
760.161	1582.4
760.345	1590.59
760.528	1615.16
760.712	1514.81
760.895	1561.92
761.079	1469.76
761.263	1467.71
761.446	1490.24
761.63	1436.99
761.813	1588.54
761.997	1459.52
762.18	1422.66
762.364	1350.98
762.547	1406.27
762.731	1430.85
762.914	1469.76
763.098	1424.7
763.281	1375.55
763.464	1393.98
763.648	1385.79
763.831	1385.79
764.015	1383.74
764.198	1426.75
764.381	1406.27
764.564	1398.08
764.748	1344.83
764.931	1490.24
765.114	1289.54
765.297	1344.83
765.481	1275.2
765.664	1260.87
765.847	1359.17
766.03	1299.78
766.213	1252.67
766.397	1369.41
766.58	1203.52
766.763	1340.74
766.946	1207.62
767.129	1228.1
767.312	1301.83
767.495	1250.63
767.678	1174.85
767.861	1219.91
768.044	1299.78
768.227	1273.15
768.41	1252.67
768.593	1240.39
768.776	1135.94
768.959	1219.91
769.142	1232.19
769.324	1090.88
769.507	1224
769.69	1203.52
769.873	1164.61
770.056	1178.95
770.239	1135.94
770.421	1041.73
770.604	1203.52
770.787	1146.18
770.97	1160.52
771.152	1094.98
771.335	1066.31
771.518	1002.82
771.7	1164.61
771.883	1008.97
772.066	1092.93
772.248	1170.76
772.431	1127.75
772.613	1066.31
772.796	1105.22
772.978	1142.08
773.161	1099.08
773.343	1037.64
773.526	1008.97
773.708	1027.4
773.891	1002.82
774.073	968.01
774.256	1021.25
774.438	1127.75
774.621	980.29
774.803	922.95
774.985	957.77
775.168	927.05
775.35	951.62
775.532	1043.78
775.715	912.71
775.897	898.38
776.079	1004.87
776.261	984.39
776.444	937.29
776.626	881.99
776.808	931.14
776.99	900.42
777.173	896.33
777.355	922.95
777.537	836.94
777.719	855.37
777.901	871.75
778.083	929.1
778.265	857.42
778.447	851.27
778.629	793.93
778.811	824.65
778.993	785.74
779.175	914.76
779.357	775.5
779.539	724.3
779.721	826.7
779.903	812.36
780.085	736.59
780.267	783.69
780.449	795.98
780.631	802.12
780.812	886.09
780.994	757.07
781.176	693.58
781.358	693.58
781.54	683.34
781.721	726.35
781.903	701.77
782.085	720.2
782.267	740.68
782.448	677.19
782.63	691.53
782.812	650.57
782.993	689.48
783.175	730.44
783.357	560.46
783.538	666.96
783.72	738.63
783.901	615.76
784.083	634.19
784.264	630.09
784.446	611.66
784.627	619.85
784.809	689.48
784.99	578.89
785.172	603.47
785.353	607.56
785.535	574.8
785.716	576.84
785.897	648.52
786.079	628.04
786.26	597.32
786.441	523.6
786.623	564.56
786.804	548.17
786.985	476.49
787.167	568.65
787.348	484.69
787.529	519.5
787.71	609.61
787.891	523.6
788.073	443.73
788.254	552.27
788.435	562.51
788.616	574.8
788.797	562.51
788.978	472.4
789.159	437.58
789.34	513.36
789.522	552.27
789.703	486.73
789.884	441.68
790.065	509.26
790.246	486.73
790.427	470.35
790.607	443.73
790.788	521.55
790.969	523.6
791.15	470.35
791.331	470.35
791.512	503.12
791.693	427.34
791.874	406.86
792.054	531.79
792.235	476.49
792.416	503.12
792.597	429.39
792.778	378.19
792.958	408.91
793.139	501.07
793.32	476.49
793.5	275.79
793.681	404.82
793.862	384.34
794.042	408.91
794.223	394.58
794.404	509.26
794.584	372.05
794.765	396.62
794.945	374.1
795.126	349.52
795.306	363.86
795.487	390.48
795.667	322.9
795.848	347.47
796.028	353.62
796.209	353.62
796.389	392.53
796.57	413.01
796.75	343.38
796.93	326.99
797.111	324.94
797.291	392.53
797.471	345.42
797.652	312.66
797.832	353.62
798.012	404.82
798.192	320.85
798.373	283.99
798.553	316.75
798.733	300.37
798.913	372.05
799.093	308.56
799.274	374.1
799.454	339.28
799.634	351.57
799.814	388.43
799.994	277.84
800.174	306.51
800.354	283.99
800.534	345.42
800.714	343.38
800.894	320.85
801.074	261.46
801.254	304.46
801.434	304.46
801.614	314.7
801.794	337.23
801.974	697.67
802.154	294.22
802.334	286.03
802.514	292.18
802.693	271.7
802.873	281.94
803.053	228.69
803.233	390.48
803.413	324.94
803.592	349.52
803.772	314.7
803.952	185.68
804.131	251.22
804.311	288.08
804.491	304.46
804.67	265.55
804.85	265.55
805.03	253.27
805.209	300.37
805.389	296.27
805.568	249.17
805.748	249.17
805.928	281.94
806.107	283.99
806.287	267.6
806.466	312.66
806.646	247.12
806.825	222.55
807.004	269.65
807.184	210.26
807.363	277.84
807.543	236.88
807.722	322.9
807.901	189.78
808.081	271.7
808.26	253.27
808.439	308.56
808.619	269.65
808.798	204.11
808.977	210.26
809.156	300.37
809.336	265.55
809.515	277.84
809.694	183.63
809.873	226.64
810.052	234.83
810.231	281.94
810.411	290.13
810.59	255.31
810.769	191.83
810.948	208.21
811.127	193.87
811.306	204.11
811.485	175.44
811.664	249.17
811.843	183.63
812.022	130.39
812.201	245.07
812.38	181.59
812.559	171.35
812.737	279.89
812.916	173.39
813.095	122.2
813.274	116.05
813.453	255.31
813.632	146.77
813.811	240.98
813.989	183.63
814.168	157.01
814.347	165.2
814.526	144.72
814.704	265.55
814.883	193.87
815.062	187.73
815.24	247.12
815.419	122.2
815.598	175.44
815.776	163.15
815.955	144.72
816.133	138.58
816.312	206.16
816.49	212.31
816.669	144.72
816.847	189.78
817.026	197.97
817.204	222.55
817.383	214.35
817.561	138.58
817.74	185.68
817.918	154.96
818.097	154.96
818.275	105.81
818.453	124.24
818.632	179.54
818.81	171.35
818.988	197.97
819.167	116.05
819.345	142.68
819.523	124.24
819.701	144.72
819.879	210.26
820.058	128.34
820.236	189.78
820.414	218.45
820.592	95.57
820.77	152.92
820.948	165.2
821.127	171.35
821.305	193.87
821.483	91.48
821.661	103.76
821.839	144.72
822.017	64.85
822.195	114
822.373	197.97
822.551	132.44
822.729	154.96
822.907	163.15
823.085	144.72
823.262	167.25
823.44	122.2
823.618	107.86
823.796	167.25
823.974	169.3
824.152	134.48
824.329	95.57
824.507	161.11
824.685	167.25
824.863	116.05
825.04	118.1
825.218	71
825.396	189.78
825.574	206.16
825.751	107.86
825.929	197.97
826.107	130.39
826.284	159.06
826.462	103.76
826.639	142.68
826.817	116.05
826.994	107.86
827.172	124.24
827.349	130.39
827.527	173.39
827.704	154.96
827.882	138.58
828.059	144.72
828.237	87.38
828.414	52.56
828.591	105.81
828.769	64.85
828.946	58.71
829.124	130.39
829.301	126.29
829.478	146.77
829.655	93.52
829.833	87.38
830.01	87.38
830.187	44.37
830.364	85.33
830.542	107.86
830.719	66.9
830.896	68.95
831.073	136.53
831.25	128.34
831.427	105.81
831.604	73.04
831.782	91.48
831.959	60.76
832.136	23.89
832.313	134.48
832.49	89.43
832.667	91.48
832.844	56.66
833.021	159.06
833.198	81.24
833.374	66.9
833.551	38.23
833.728	27.99
833.905	71
834.082	101.72
834.259	99.67
834.436	175.44
834.612	34.13
834.789	114
834.966	58.71
835.143	109.91
835.319	17.75
835.496	62.8
835.673	13.65
835.85	71
836.026	52.56
836.203	48.47
836.38	68.95
836.556	71
836.733	46.42
836.909	75.09
837.086	60.76
837.262	97.62
837.439	46.42
837.616	79.19
837.792	107.86
837.968	62.8
838.145	-45.74
838.321	-21.16
838.498	56.66
838.674	58.71
838.851	91.48
839.027	93.52
839.203	38.23
839.38	116.05
839.556	58.71
839.732	73.04
839.909	58.71
840.085	118.1
840.261	126.29
840.437	154.96
840.614	62.8
840.79	128.34
840.966	21.85
841.142	50.52
841.318	46.42
841.494	107.86
841.671	48.47
841.847	66.9
842.023	48.47
842.199	21.85
842.375	48.47
842.551	25.94
842.727	-10.92
842.903	81.24
843.079	40.28
843.255	64.85
843.431	46.42
843.607	138.58
843.783	27.99
843.959	38.23
844.134	79.19
844.31	27.99
844.486	58.71
844.662	40.28
844.838	50.52
845.013	32.08
845.189	81.24
845.365	48.47
845.541	17.75
845.716	62.8
845.892	116.05
846.068	-4.78
846.244	58.71
846.419	138.58
846.595	68.95
846.77	64.85
846.946	30.04
847.122	30.04
847.297	68.95
847.473	142.68
847.648	9.56
847.824	-2.73
847.999	44.37
848.175	17.75
848.35	3.41
848.526	163.15
848.701	81.24
848.876	50.52
849.052	62.8
849.227	56.66
849.403	-0.68
849.578	5.46
849.753	23.89
849.929	40.28
850.104	-17.07
850.279	42.32
850.454	40.28
850.63	34.13
850.805	62.8
850.98	44.37
851.155	34.13
851.33	36.18
851.505	130.39
851.681	56.66
851.856	-29.35
852.031	-53.93
852.206	-6.83
852.381	-45.74
852.556	15.7
852.731	-29.35
852.906	7.51
853.081	46.42
853.256	30.04
853.431	38.23
853.606	32.08
853.781	42.32
853.956	50.52
854.131	34.13
854.305	27.99
854.48	-0.68
854.655	30.04
854.83	71
855.005	-2.73
855.18	-4.78
855.354	-6.83
855.529	1.37
855.704	-12.97
855.879	34.13
856.053	71
856.228	19.8
856.403	99.67
856.577	-0.68
856.752	-17.07
856.926	-31.4
857.101	19.8
857.276	17.75
857.45	134.48
857.625	75.09
857.799	7.51
857.974	-4.78
858.148	46.42
858.323	-31.4
858.497	103.76
858.672	3.41
858.846	85.33
859.02	21.85
859.195	-66.22
859.369	89.43
859.543	71
859.718	-23.21
859.892	21.85
860.066	-15.02
860.241	-4.78
860.415	19.8
860.589	-45.74
860.763	9.56
860.938	17.75
861.112	13.65
861.286	36.18
861.46	40.28
861.634	1.37
861.808	27.99
861.982	40.28
862.157	68.95
862.331	-41.64
862.505	48.47
862.679	-70.31
862.853	58.71
863.027	56.66
863.201	-21.16
863.375	-55.98
863.549	50.52
863.722	-19.11
863.896	58.71
864.07	-15.02
864.244	-4.78
864.418	-51.88
864.592	30.04
864.766	-47.79
864.939	27.99
865.113	-35.5
865.287	34.13
865.461	1.37
865.634	-4.78
865.808	-4.78
865.982	34.13
866.156	17.75
866.329	11.61
866.503	-35.5
866.676	25.94
866.85	5.46
867.024	3.41
867.197	-90.79
867.371	-64.17
867.544	-6.83
867.718	9.56
867.891	11.61
868.065	-2.73
868.238	62.8
868.412	42.32
868.585	71
868.759	17.75
868.932	-80.55
869.105	-2.73
869.279	-25.26
869.452	-6.83
869.625	-8.87
869.799	15.7
869.972	7.51
870.145	21.85
870.319	64.85
870.492	-0.68
870.665	13.65
870.838	-2.73
871.011	40.28
871.185	-12.97
871.358	-25.26
871.531	52.56
871.704	15.7
871.877	-37.55
872.05	-17.07
872.223	-31.4
872.396	32.08
872.569	-12.97
872.742	44.37
872.915	-27.31
873.088	-15.02
873.261	-2.73
873.434	66.9
873.607	-12.97
873.78	50.52
873.953	-23.21
874.126	50.52
874.299	40.28
874.471	30.04
874.644	34.13
874.817	-43.69
874.99	-15.02
875.163	44.37
875.335	79.19
875.508	-23.21
875.681	7.51
875.853	27.99
876.026	-31.4
876.199	-33.45
876.371	-58.03
876.544	15.7
876.717	3.41
876.889	3.41
877.062	7.51
877.234	17.75
877.407	-74.41
877.579	-4.78
877.752	19.8
877.924	73.04
878.097	36.18
878.269	1.37
878.442	36.18
878.614	17.75
878.786	-8.87
878.959	-60.07
879.131	-55.98
879.303	-58.03
879.476	-15.02
879.648	-21.16
879.82	9.56
879.993	40.28
880.165	38.23
880.337	3.41
880.509	-17.07
880.681	-12.97
880.854	7.51
881.026	36.18
881.198	25.94
881.37	3.41
881.542	60.76
881.714	60.76
881.886	13.65
882.058	7.51
882.23	11.61
882.402	-12.97
882.574	-47.79
882.746	-12.97
882.918	-2.73
883.09	27.99
883.262	-41.64
883.434	21.85
883.606	40.28
883.778	-55.98
883.95	11.61
884.122	-72.36
884.293	-4.78
884.465	-58.03
884.637	-37.55
884.809	19.8
884.98	-37.55
885.152	-51.88
885.324	5.46
885.496	17.75
885.667	-55.98
885.839	-31.4
886.011	36.18
886.182	19.8
886.354	1.37
886.525	56.66
886.697	-27.31
886.869	-29.35
887.04	-53.93
887.212	11.61
887.383	56.66
887.555	-12.97
887.726	-66.22
887.897	48.47
888.069	25.94
888.24	15.7
888.412	17.75
888.583	23.89
888.754	-29.35
888.926	34.13
889.097	-37.55
889.268	5.46
889.44	-10.92
889.611	-37.55
889.782	-39.59
889.953	-31.4
890.125	11.61
890.296	-25.26
890.467	-35.5
890.638	-4.78
890.809	21.85
890.98	32.08
891.151	-6.83
891.323	32.08
891.494	21.85
891.665	-53.93
891.836	-51.88
892.007	3.41
892.178	-33.45
892.349	-8.87
892.52	-98.99
892.691	-19.11
892.862	5.46
893.032	-80.55
893.203	15.7
893.374	9.56
893.545	-55.98
893.716	-15.02
893.887	1.37
894.057	11.61
894.228	-23.21
894.399	-111.27
894.57	-60.07
894.74	32.08
894.911	3.41
895.082	-25.26
895.253	-17.07
895.423	-51.88
895.594	9.56
895.764	-31.4
895.935	5.46
896.106	-33.45
896.276	-70.31
896.447	-21.16
896.617	5.46
896.788	17.75
896.958	1.37
897.129	32.08
897.299	64.85
897.47	79.19
897.64	-2.73
897.81	-133.8
897.981	-21.16
898.151	-68.27
898.322	73.04
898.492	64.85
898.662	-62.12
898.832	66.9
899.003	-27.31
899.173	-39.59
899.343	-23.21
899.513	-4.78
