Data from USB4F104151__46__12-27-25-593.txt Node

Date: Fri Mar 14 12:27:25 EDT 2025
User: louis
Spectrometer: USB4F10415
Trigger mode: 4
Integration Time (sec): 2.000000E-2
Scans to average: 1
Electric dark correction enabled: true
Nonlinearity correction enabled: false
Boxcar width: 0
XAxis mode: Wavelengths
Number of Pixels in Spectrum: 3648
>>>>>Begin Spectral Data<<<<<
178.204	-64.51
178.424	-64.51
178.644	-64.51
178.864	-144.38
179.084	-99.33
179.304	-33.79
179.524	-1.02
179.744	5.12
179.964	33.79
180.184	11.26
180.404	35.84
180.624	-64.51
180.844	-5.12
181.064	5.12
181.283	-7.17
181.503	5.12
181.723	15.36
181.943	-37.89
182.163	58.37
182.383	3.07
182.602	23.55
182.822	103.42
183.042	46.08
183.262	-19.46
183.482	11.26
183.701	1.02
183.921	-31.74
184.141	-3.07
184.361	103.42
184.58	-13.31
184.8	-19.46
185.02	33.79
185.239	21.5
185.459	44.03
185.679	50.18
185.898	-97.28
186.118	46.08
186.338	37.89
186.557	41.98
186.777	-19.46
186.997	35.84
187.216	35.84
187.436	95.23
187.655	-23.55
187.875	35.84
188.095	3.07
188.314	11.26
188.534	23.55
188.753	3.07
188.973	52.22
189.192	74.75
189.412	19.46
189.631	60.42
189.851	31.74
190.07	23.55
190.29	-52.22
190.509	35.84
190.729	70.65
190.948	115.71
191.168	121.85
191.387	48.13
191.607	15.36
191.826	3.07
192.045	41.98
192.265	41.98
192.484	-37.89
192.704	35.84
192.923	25.6
193.142	62.46
193.362	-46.08
193.581	60.42
193.8	-7.17
194.02	25.6
194.239	21.5
194.458	-25.6
194.678	15.36
194.897	78.85
195.116	33.79
195.335	21.5
195.555	-3.07
195.774	-31.74
195.993	41.98
196.212	-48.13
196.432	-13.31
196.651	41.98
196.87	15.36
197.089	17.41
197.308	-1.02
197.528	-48.13
197.747	-74.75
197.966	60.42
198.185	-13.31
198.404	48.13
198.623	-13.31
198.842	41.98
199.062	-7.17
199.281	82.94
199.5	74.75
199.719	111.61
199.938	82.94
200.157	60.42
200.376	-33.79
200.595	99.33
200.814	-17.41
201.033	37.89
201.252	78.85
201.471	-17.41
201.69	33.79
201.909	25.6
202.128	46.08
202.347	72.7
202.566	41.98
202.785	44.03
203.004	-21.5
203.223	60.42
203.442	121.85
203.661	-7.17
203.879	48.13
204.098	21.5
204.317	-52.22
204.536	7.17
204.755	78.85
204.974	7.17
205.193	50.18
205.411	33.79
205.63	21.5
205.849	-9.22
206.068	5.12
206.287	37.89
206.505	7.17
206.724	-5.12
206.943	48.13
207.162	-1.02
207.381	48.13
207.599	25.6
207.818	-60.42
208.037	-1.02
208.255	5.12
208.474	7.17
208.693	19.46
208.911	3.07
209.13	27.65
209.349	1.02
209.567	-5.12
209.786	56.32
210.005	11.26
210.223	46.08
210.442	52.22
210.661	31.74
210.879	48.13
211.098	-52.22
211.316	41.98
211.535	68.61
211.753	39.94
211.972	-62.46
212.191	70.65
212.409	15.36
212.628	39.94
212.846	-33.79
213.065	29.7
213.283	31.74
213.502	-11.26
213.72	-35.84
213.938	35.84
214.157	41.98
214.375	35.84
214.594	9.22
214.812	50.18
215.031	31.74
215.249	17.41
215.467	-7.17
215.686	54.27
215.904	-39.94
216.122	37.89
216.341	13.31
216.559	-11.26
216.778	15.36
216.996	-1.02
217.214	21.5
217.432	-13.31
217.651	56.32
217.869	3.07
218.087	-15.36
218.306	39.94
218.524	-13.31
218.742	25.6
218.96	19.46
219.179	-39.94
219.397	21.5
219.615	99.33
219.833	58.37
220.051	19.46
220.27	46.08
220.488	64.51
220.706	-15.36
220.924	19.46
221.142	-1.02
221.36	15.36
221.578	13.31
221.796	5.12
222.015	37.89
222.233	-17.41
222.451	84.99
222.669	11.26
222.887	17.41
223.105	-3.07
223.323	-11.26
223.541	56.32
223.759	50.18
223.977	-3.07
224.195	-15.36
224.413	66.56
224.631	33.79
224.849	41.98
225.067	39.94
225.285	58.37
225.503	-15.36
225.721	-56.32
225.939	52.22
226.157	13.31
226.375	80.89
226.592	-35.84
226.81	44.03
227.028	52.22
227.246	78.85
227.464	25.6
227.682	35.84
227.9	31.74
228.117	-29.7
228.335	-9.22
228.553	1.02
228.771	35.84
228.989	64.51
229.206	9.22
229.424	17.41
229.642	-11.26
229.86	37.89
230.077	-35.84
230.295	72.7
230.513	13.31
230.731	31.74
230.948	35.84
231.166	58.37
231.384	56.32
231.601	-1.02
231.819	76.8
232.037	-3.07
232.254	-21.5
232.472	11.26
232.689	27.65
232.907	66.56
233.125	17.41
233.342	17.41
233.56	19.46
233.777	48.13
233.995	93.18
234.213	41.98
234.43	37.89
234.648	29.7
234.865	-37.89
235.083	41.98
235.3	11.26
235.518	52.22
235.735	-17.41
235.953	-50.18
236.17	-11.26
236.388	66.56
236.605	62.46
236.822	-15.36
237.04	33.79
237.257	7.17
237.475	33.79
237.692	9.22
237.909	-1.02
238.127	-7.17
238.344	-1.02
238.562	-1.02
238.779	33.79
238.996	-87.04
239.214	-21.5
239.431	82.94
239.648	44.03
239.865	-19.46
240.083	-19.46
240.3	74.75
240.517	37.89
240.735	54.27
240.952	3.07
241.169	17.41
241.386	41.98
241.603	11.26
241.821	-7.17
242.038	-9.22
242.255	-11.26
242.472	-13.31
242.689	89.09
242.907	17.41
243.124	35.84
243.341	-1.02
243.558	-39.94
243.775	37.89
243.992	-21.5
244.209	41.98
244.426	93.18
244.643	19.46
244.86	-33.79
245.078	7.17
245.295	7.17
245.512	76.8
245.729	35.84
245.946	39.94
246.163	70.65
246.38	-5.12
246.597	27.65
246.814	35.84
247.031	3.07
247.248	11.26
247.464	-46.08
247.681	52.22
247.898	27.65
248.115	74.75
248.332	7.17
248.549	7.17
248.766	35.84
248.983	-41.98
249.2	-9.22
249.417	58.37
249.633	-29.7
249.85	19.46
250.067	-25.6
250.284	64.51
250.501	93.18
250.717	-17.41
250.934	-66.56
251.151	58.37
251.368	25.6
251.585	-17.41
251.801	70.65
252.018	56.32
252.235	56.32
252.451	-3.07
252.668	25.6
252.885	29.7
253.102	74.75
253.318	-1.02
253.535	21.5
253.752	-9.22
253.968	35.84
254.185	5.12
254.401	89.09
254.618	54.27
254.835	54.27
255.051	44.03
255.268	21.5
255.484	7.17
255.701	-17.41
255.917	58.37
256.134	-15.36
256.351	78.85
256.567	-44.03
256.784	-17.41
257	-31.74
257.217	5.12
257.433	68.61
257.65	58.37
257.866	41.98
258.082	48.13
258.299	11.26
258.515	37.89
258.732	31.74
258.948	-44.03
259.165	78.85
259.381	23.55
259.597	7.17
259.814	-3.07
260.03	52.22
260.246	64.51
260.463	7.17
260.679	11.26
260.895	37.89
261.112	3.07
261.328	7.17
261.544	17.41
261.761	-11.26
261.977	-39.94
262.193	27.65
262.409	-23.55
262.626	48.13
262.842	11.26
263.058	7.17
263.274	37.89
263.49	60.42
263.707	44.03
263.923	46.08
264.139	-21.5
264.355	17.41
264.571	23.55
264.787	64.51
265.004	39.94
265.22	21.5
265.436	-9.22
265.652	-7.17
265.868	-5.12
266.084	-37.89
266.3	13.31
266.516	-27.65
266.732	25.6
266.948	25.6
267.164	5.12
267.38	1.02
267.596	72.7
267.812	15.36
268.028	101.37
268.244	-23.55
268.46	80.89
268.676	-1.02
268.892	87.04
269.108	50.18
269.324	13.31
269.54	17.41
269.756	15.36
269.972	13.31
270.188	44.03
270.403	74.75
270.619	-13.31
270.835	54.27
271.051	13.31
271.267	35.84
271.483	-19.46
271.698	48.13
271.914	62.46
272.13	68.61
272.346	21.5
272.562	128
272.777	7.17
272.993	11.26
273.209	76.8
273.425	23.55
273.64	-37.89
273.856	76.8
274.072	46.08
274.287	23.55
274.503	19.46
274.719	29.7
274.934	-23.55
275.15	33.79
275.366	41.98
275.581	11.26
275.797	37.89
276.012	-84.99
276.228	9.22
276.444	56.32
276.659	66.56
276.875	-25.6
277.09	-9.22
277.306	17.41
277.521	37.89
277.737	-46.08
277.952	56.32
278.168	-21.5
278.383	41.98
278.599	62.46
278.814	-13.31
279.03	25.6
279.245	66.56
279.461	33.79
279.676	60.42
279.892	9.22
280.107	-7.17
280.322	44.03
280.538	-31.74
280.753	-21.5
280.969	-9.22
281.184	-103.42
281.399	82.94
281.615	25.6
281.83	37.89
282.045	-44.03
282.26	-1.02
282.476	50.18
282.691	-58.37
282.906	-9.22
283.122	35.84
283.337	-11.26
283.552	1.02
283.767	-15.36
283.983	48.13
284.198	84.99
284.413	78.85
284.628	-27.65
284.843	31.74
285.058	64.51
285.274	37.89
285.489	-37.89
285.704	17.41
285.919	62.46
286.134	23.55
286.349	62.46
286.564	-37.89
286.779	13.31
286.995	130.05
287.21	23.55
287.425	21.5
287.64	21.5
287.855	-11.26
288.07	-25.6
288.285	-39.94
288.5	56.32
288.715	-39.94
288.93	-13.31
289.145	31.74
289.36	54.27
289.575	99.33
289.79	130.05
290.004	3.07
290.219	-33.79
290.434	31.74
290.649	72.7
290.864	19.46
291.079	76.8
291.294	-27.65
291.509	-23.55
291.724	64.51
291.938	41.98
292.153	21.5
292.368	39.94
292.583	23.55
292.798	-7.17
293.012	52.22
293.227	3.07
293.442	-25.6
293.657	21.5
293.871	84.99
294.086	50.18
294.301	15.36
294.516	58.37
294.73	-70.65
294.945	3.07
295.16	-1.02
295.374	-68.61
295.589	48.13
295.804	-82.94
296.018	70.65
296.233	46.08
296.447	3.07
296.662	56.32
296.877	-13.31
297.091	-33.79
297.306	76.8
297.52	66.56
297.735	19.46
297.949	21.5
298.164	-33.79
298.378	95.23
298.593	44.03
298.807	-37.89
299.022	-9.22
299.236	95.23
299.451	62.46
299.665	-7.17
299.88	39.94
300.094	21.5
300.309	54.27
300.523	5.12
300.737	-9.22
300.952	78.85
301.166	17.41
301.381	-29.7
301.595	-23.55
301.809	-64.51
302.024	58.37
302.238	52.22
302.452	58.37
302.667	19.46
302.881	99.33
303.095	-1.02
303.309	1.02
303.524	82.94
303.738	-13.31
303.952	9.22
304.166	48.13
304.381	-15.36
304.595	35.84
304.809	1.02
305.023	52.22
305.237	-5.12
305.452	80.89
305.666	39.94
305.88	-5.12
306.094	-23.55
306.308	62.46
306.522	109.57
306.736	23.55
306.95	41.98
307.164	17.41
307.379	25.6
307.593	19.46
307.807	97.28
308.021	107.52
308.235	84.99
308.449	-1.02
308.663	17.41
308.877	70.65
309.091	25.6
309.305	66.56
309.519	-82.94
309.733	74.75
309.947	-1.02
310.161	5.12
310.374	37.89
310.588	11.26
310.802	41.98
311.016	-13.31
311.23	1.02
311.444	44.03
311.658	37.89
311.872	-25.6
312.085	29.7
312.299	52.22
312.513	64.51
312.727	50.18
312.941	-13.31
313.154	5.12
313.368	-11.26
313.582	80.89
313.796	27.65
314.009	7.17
314.223	31.74
314.437	21.5
314.651	64.51
314.864	7.17
315.078	11.26
315.292	44.03
315.505	-23.55
315.719	76.8
315.933	37.89
316.146	7.17
316.36	31.74
316.573	23.55
316.787	37.89
317.001	-7.17
317.214	60.42
317.428	3.07
317.641	64.51
317.855	-58.37
318.068	33.79
318.282	25.6
318.495	89.09
318.709	21.5
318.922	109.57
319.136	9.22
319.349	27.65
319.563	37.89
319.776	21.5
319.99	-72.7
320.203	44.03
320.417	27.65
320.63	-9.22
320.843	54.27
321.057	21.5
321.27	-27.65
321.483	1.02
321.697	109.57
321.91	9.22
322.124	50.18
322.337	7.17
322.55	23.55
322.763	-54.27
322.977	70.65
323.19	44.03
323.403	13.31
323.617	44.03
323.83	52.22
324.043	-37.89
324.256	44.03
324.469	-35.84
324.683	54.27
324.896	-33.79
325.109	66.56
325.322	-9.22
325.535	82.94
325.748	13.31
325.962	74.75
326.175	50.18
326.388	46.08
326.601	-1.02
326.814	31.74
327.027	21.5
327.24	29.7
327.453	33.79
327.666	58.37
327.879	58.37
328.092	19.46
328.305	27.65
328.518	17.41
328.731	60.42
328.944	9.22
329.157	52.22
329.37	-25.6
329.583	19.46
329.796	87.04
330.009	37.89
330.222	80.89
330.435	15.36
330.648	-25.6
330.861	19.46
331.073	103.42
331.286	52.22
331.499	80.89
331.712	-1.02
331.925	41.98
332.138	-31.74
332.35	50.18
332.563	27.65
332.776	-11.26
332.989	-5.12
333.202	-5.12
333.414	46.08
333.627	-17.41
333.84	-72.7
334.053	82.94
334.265	58.37
334.478	13.31
334.691	31.74
334.903	44.03
335.116	7.17
335.329	35.84
335.541	29.7
335.754	39.94
335.966	41.98
336.179	72.7
336.392	9.22
336.604	-5.12
336.817	37.89
337.029	44.03
337.242	-15.36
337.454	44.03
337.667	56.32
337.88	11.26
338.092	-3.07
338.305	64.51
338.517	27.65
338.729	-31.74
338.942	50.18
339.154	68.61
339.367	5.12
339.579	35.84
339.792	27.65
340.004	41.98
340.217	11.26
340.429	72.7
340.641	-23.55
340.854	109.57
341.066	50.18
341.278	3.07
341.491	70.65
341.703	64.51
341.915	62.46
342.128	48.13
342.34	93.18
342.552	19.46
342.764	31.74
342.977	35.84
343.189	46.08
343.401	11.26
343.613	33.79
343.826	39.94
344.038	41.98
344.25	35.84
344.462	29.7
344.674	25.6
344.886	-56.32
345.099	54.27
345.311	37.89
345.523	68.61
345.735	-7.17
345.947	66.56
346.159	3.07
346.371	33.79
346.583	-17.41
346.795	29.7
347.007	99.33
347.219	11.26
347.431	95.23
347.643	46.08
347.855	21.5
348.067	50.18
348.279	23.55
348.491	72.7
348.703	33.79
348.915	54.27
349.127	-15.36
349.339	64.51
349.551	7.17
349.763	3.07
349.975	-13.31
350.187	125.95
350.399	74.75
350.61	11.26
350.822	9.22
351.034	44.03
351.246	15.36
351.458	74.75
351.669	66.56
351.881	74.75
352.093	17.41
352.305	78.85
352.517	56.32
352.728	60.42
352.94	-25.6
353.152	3.07
353.363	25.6
353.575	17.41
353.787	158.72
353.999	66.56
354.21	44.03
354.422	56.32
354.633	21.5
354.845	23.55
355.057	19.46
355.268	41.98
355.48	64.51
355.692	-11.26
355.903	-17.41
356.115	23.55
356.326	48.13
356.538	35.84
356.749	78.85
356.961	78.85
357.172	33.79
357.384	3.07
357.595	33.79
357.807	19.46
358.018	105.47
358.23	80.89
358.441	23.55
358.653	48.13
358.864	-54.27
359.075	-44.03
359.287	68.61
359.498	3.07
359.709	56.32
359.921	60.42
360.132	78.85
360.344	-15.36
360.555	33.79
360.766	117.76
360.977	21.5
361.189	25.6
361.4	15.36
361.611	68.61
361.823	37.89
362.034	17.41
362.245	-25.6
362.456	21.5
362.667	107.52
362.879	23.55
363.09	48.13
363.301	74.75
363.512	31.74
363.723	31.74
363.935	35.84
364.146	35.84
364.357	-13.31
364.568	97.28
364.779	46.08
364.99	-27.65
365.201	-9.22
365.412	1.02
365.623	64.51
365.834	19.46
366.045	-3.07
366.256	87.04
366.467	27.65
366.678	-9.22
366.889	33.79
367.1	-19.46
367.311	-5.12
367.522	1.02
367.733	80.89
367.944	13.31
368.155	109.57
368.366	15.36
368.577	150.53
368.788	107.52
368.999	35.84
369.209	48.13
369.42	72.7
369.631	52.22
369.842	66.56
370.053	-7.17
370.264	119.81
370.474	-70.65
370.685	15.36
370.896	70.65
371.107	31.74
371.317	21.5
371.528	60.42
371.739	19.46
371.95	52.22
372.16	76.8
372.371	44.03
372.582	60.42
372.792	97.28
373.003	48.13
373.214	58.37
373.424	91.13
373.635	37.89
373.846	21.5
374.056	58.37
374.267	68.61
374.477	7.17
374.688	70.65
374.898	13.31
375.109	70.65
375.319	33.79
375.53	132.09
375.74	48.13
375.951	41.98
376.161	15.36
376.372	64.51
376.582	35.84
376.793	78.85
377.003	50.18
377.214	17.41
377.424	17.41
377.635	19.46
377.845	23.55
378.055	142.33
378.266	-11.26
378.476	33.79
378.686	60.42
378.897	111.61
379.107	66.56
379.317	33.79
379.528	31.74
379.738	-15.36
379.948	-9.22
380.158	-15.36
380.369	74.75
380.579	5.12
380.789	31.74
380.999	68.61
381.21	31.74
381.42	15.36
381.63	21.5
381.84	31.74
382.05	25.6
382.261	76.8
382.471	-27.65
382.681	76.8
382.891	17.41
383.101	29.7
383.311	19.46
383.521	7.17
383.731	62.46
383.941	-31.74
384.151	54.27
384.361	21.5
384.571	-5.12
384.781	46.08
384.991	46.08
385.201	37.89
385.411	23.55
385.621	60.42
385.831	-7.17
386.041	48.13
386.251	58.37
386.461	31.74
386.671	80.89
386.881	23.55
387.091	31.74
387.301	97.28
387.511	33.79
387.72	41.98
387.93	82.94
388.14	15.36
388.35	39.94
388.56	50.18
388.769	101.37
388.979	105.47
389.189	52.22
389.399	3.07
389.609	103.42
389.818	117.76
390.028	125.95
390.238	37.89
390.447	27.65
390.657	123.9
390.867	82.94
391.076	13.31
391.286	101.37
391.496	-15.36
391.705	35.84
391.915	74.75
392.125	-7.17
392.334	25.6
392.544	111.61
392.753	111.61
392.963	27.65
393.172	121.85
393.382	74.75
393.591	66.56
393.801	97.28
394.01	160.77
394.22	11.26
394.429	66.56
394.639	64.51
394.848	107.52
395.058	52.22
395.267	103.42
395.477	31.74
395.686	107.52
395.895	78.85
396.105	95.23
396.314	56.32
396.524	54.27
396.733	130.05
396.942	146.43
397.152	82.94
397.361	121.85
397.57	109.57
397.78	48.13
397.989	74.75
398.198	160.77
398.407	44.03
398.617	70.65
398.826	115.71
399.035	95.23
399.244	140.29
399.453	37.89
399.663	82.94
399.872	156.67
400.081	113.66
400.29	97.28
400.499	128
400.708	101.37
400.917	13.31
401.127	99.33
401.336	164.86
401.545	164.86
401.754	162.81
401.963	99.33
402.172	60.42
402.381	97.28
402.59	154.62
402.799	107.52
403.008	60.42
403.217	201.72
403.426	121.85
403.635	82.94
403.844	115.71
404.053	115.71
404.262	179.2
404.471	162.81
404.68	177.15
404.888	138.24
405.097	91.13
405.306	121.85
405.515	177.15
405.724	74.75
405.933	123.9
406.142	158.72
406.35	197.63
406.559	205.82
406.768	87.04
406.977	242.68
407.185	218.11
407.394	156.67
407.603	154.62
407.812	181.25
408.02	254.97
408.229	209.92
408.438	185.34
408.646	244.73
408.855	191.49
409.064	275.45
409.272	254.97
409.481	271.36
409.69	254.97
409.898	205.82
410.107	293.88
410.315	240.64
410.524	287.74
410.733	312.32
410.941	347.13
411.15	367.61
411.358	283.64
411.567	330.75
411.775	336.89
411.984	355.32
412.192	390.14
412.401	416.76
412.609	388.09
412.818	478.2
413.026	433.15
413.234	513.02
413.443	429.05
413.651	484.34
413.86	476.15
414.068	533.5
414.276	543.74
414.485	564.22
414.693	529.4
414.901	566.26
415.11	627.7
415.318	541.69
415.526	654.33
415.734	707.57
415.943	672.76
416.151	764.92
416.359	668.66
416.567	769.01
416.776	760.82
416.984	785.4
417.192	914.42
417.4	936.95
417.608	904.18
417.817	924.66
418.025	965.62
418.233	1082.35
418.441	963.57
418.649	938.99
418.857	1219.57
419.065	1129.45
419.273	1164.27
419.481	1334.25
419.689	1238
419.897	1313.77
420.105	1387.5
420.313	1444.84
420.521	1493.99
420.729	1606.63
420.937	1528.81
421.145	1639.4
421.353	1657.83
421.561	1661.93
421.769	1737.7
421.977	1917.92
422.185	1731.56
422.393	2038.75
422.601	1928.16
422.809	2171.87
423.017	2145.25
423.224	2161.63
423.432	2204.64
423.64	2284.51
423.848	2491.35
424.056	2440.15
424.263	2464.73
424.471	2546.65
424.679	2624.47
424.887	2804.69
425.094	2872.28
425.302	2833.36
425.51	3044.31
425.718	3175.38
425.925	3015.63
426.133	3283.92
426.341	3453.9
426.548	3646.41
426.756	3503.05
426.964	3537.87
427.171	3918.79
427.379	3849.16
427.586	3951.56
427.794	4197.31
428.001	4219.84
428.209	4533.18
428.417	4338.62
428.624	4701.11
428.832	4764.6
429.039	4611
429.247	4785.08
429.454	5280.69
429.662	5419.95
429.869	5231.54
430.076	5442.48
430.284	5301.17
430.491	5606.31
430.699	5893.03
430.906	5915.56
431.114	6065.06
431.321	6224.8
431.528	6378.4
431.736	6593.44
431.943	7009.17
432.15	6744.99
432.358	6865.82
432.565	7433.1
432.772	7342.99
432.979	7605.13
433.187	7936.9
433.394	7644.04
433.601	8350.59
433.808	8600.44
434.016	8393.6
434.223	8637.31
434.43	9194.36
434.637	9149.3
434.844	9679.72
435.052	9841.51
435.259	9599.85
435.466	9821.03
435.673	9728.88
435.88	10240.87
436.087	10836.83
436.294	10759
436.501	10828.63
436.708	11047.77
436.915	11223.89
437.122	11823.95
437.329	11688.78
437.537	11940.68
437.743	12237.64
437.95	12438.34
438.157	12835.64
438.364	13409.08
438.571	13413.17
438.778	13394.74
438.985	14568.23
439.192	13947.69
439.399	14410.53
439.606	14222.12
439.813	15039.26
440.02	15829.77
440.227	15610.64
440.433	15293.21
440.64	16143.11
440.847	16014.09
441.054	16429.83
441.261	17660.66
441.467	17066.75
441.674	17249.02
441.881	17887.98
442.088	18076.4
442.294	17826.54
442.501	18590.44
442.708	19102.43
442.914	19387.1
443.121	20452.04
443.328	19786.45
443.534	21164.73
443.741	20601.54
443.948	20064.97
444.154	21758.64
444.361	21576.37
444.568	21947.06
444.774	22051.5
444.981	21797.56
445.187	22846.12
445.394	23923.35
445.6	23730.84
445.807	25488
446.013	24730.25
446.22	24871.56
446.426	25922.16
446.633	26448.49
446.839	26901.09
447.046	26190.45
447.252	27880.02
447.459	27675.23
447.665	27202.14
447.871	28574.28
448.078	29915.7
448.284	28559.95
448.491	29368.9
448.697	30501.42
448.903	30876.2
449.11	30999.08
449.316	30425.65
449.522	30976.55
449.728	31896.09
449.935	32350.74
450.141	31914.52
450.347	32680.46
450.553	32059.93
450.76	32494.1
450.966	33094.15
451.172	32983.56
451.378	33907.19
451.584	33182.21
451.791	34077.18
451.997	33894.91
452.203	34578.93
452.409	34544.11
452.615	34079.22
452.821	33374.72
453.027	32872.97
453.233	34419.19
453.44	33274.37
453.646	33491.46
453.852	33757.69
454.058	34474.48
454.264	33278.47
454.47	33729.02
454.676	33307.14
454.882	34044.41
455.088	31410.72
455.294	31695.39
455.5	32045.59
455.705	32692.75
455.911	31195.68
456.117	30786.09
456.323	30140.98
456.529	28598.86
456.735	30003.77
456.941	29067.84
457.147	28340.82
457.352	27742.81
457.558	27439.71
457.764	27937.37
457.97	26974.82
458.176	26460.78
458.381	26487.4
458.587	25272.96
458.793	25156.22
458.999	24085.14
459.204	25569.91
459.41	24820.36
459.616	23302.81
459.821	23349.92
460.027	22993.57
460.233	22885.03
460.438	21748.4
460.644	21742.26
460.85	20853.44
461.055	20404.94
461.261	20277.96
461.466	18615.01
461.672	18297.58
461.878	19874.51
462.083	18549.48
462.289	18164.46
462.494	17996.53
462.7	16999.16
462.905	16632.58
463.111	17105.66
463.316	17505.01
463.522	16993.02
463.727	16962.3
463.932	16868.09
464.138	16526.08
464.343	16943.87
464.549	16204.55
464.754	16892.67
464.959	16509.7
465.165	16655.11
465.37	15735.57
465.575	15352.6
465.781	16055.05
465.986	16042.76
466.191	15491.86
466.397	15100.7
466.602	14582.56
466.807	14951.2
467.012	15051.55
467.218	14943
467.423	14846.75
467.628	14924.57
467.833	15588.11
468.038	14770.97
468.244	14469.92
468.449	15319.83
468.654	14537.51
468.859	14424.87
469.064	14332.71
469.269	13884.2
469.474	14031.66
469.679	14400.29
469.885	13716.27
470.09	13929.26
470.295	13957.93
470.5	13513.52
470.705	13730.61
470.91	13546.29
471.115	13138.74
471.32	13531.95
471.525	13538.1
471.73	13486.9
471.935	13077.3
472.139	12610.37
472.344	12753.73
472.549	12460.87
472.754	12256.07
472.959	12256.07
473.164	11793.23
473.369	11924.3
473.574	12421.95
473.778	12303.17
473.983	11873.1
474.188	11969.35
474.393	11502.42
474.598	11594.58
474.802	11244.37
475.007	11115.35
475.212	11494.22
475.417	10722.14
475.621	10953.56
475.826	10984.28
476.031	10734.43
476.235	10648.41
476.44	10756.96
476.645	10484.58
476.849	10746.72
477.054	10427.23
477.259	10386.27
477.463	10179.43
477.668	9991.02
477.872	9991.02
478.077	10017.64
478.282	9636.72
478.486	9724.78
478.691	9583.47
478.895	9440.11
479.1	9603.95
479.304	9614.19
479.509	9241.46
479.713	9565.04
479.918	9210.74
480.122	8907.64
480.326	9382.77
480.531	9257.84
480.735	9032.57
480.94	9122.68
481.144	9376.62
481.348	8774.52
481.553	9016.18
481.757	8780.67
481.961	8754.04
482.166	9034.61
482.37	8866.68
482.574	8911.74
482.778	8754.04
482.983	9175.92
483.187	8901.5
483.391	8905.59
483.595	8729.47
483.8	8725.37
484.004	8838.01
484.208	9010.04
484.412	8797.05
484.616	8903.54
484.821	8807.29
485.025	8866.68
485.229	8913.78
485.433	8571.77
485.637	8842.11
485.841	8721.27
486.045	8702.84
486.249	8708.99
486.453	8809.34
486.657	8735.61
486.861	9046.9
487.065	8530.81
487.269	8772.47
487.473	8522.62
487.677	8840.06
487.881	8844.15
488.085	8602.49
488.289	8807.29
488.493	8758.14
488.697	8852.34
488.901	8893.3
489.105	8844.15
489.309	8860.54
489.512	8915.83
489.716	8891.26
489.92	8807.29
490.124	8909.69
490.328	9083.77
490.531	9024.37
490.735	9083.77
490.939	8991.61
491.143	8975.22
491.346	8995.7
491.55	9026.42
491.754	9051
491.958	9313.14
492.161	9266.03
492.365	9468.78
492.569	9167.73
492.772	9397.1
492.976	9364.34
493.18	9542.51
493.383	9696.11
493.587	9499.5
493.79	9511.79
493.994	9503.6
494.197	9673.58
494.401	9743.21
494.605	9818.99
494.808	10025.83
495.012	10144.61
495.215	9905
495.419	10255.2
495.622	10224.48
495.825	10115.94
496.029	10097.51
496.232	10355.55
496.436	10290.02
496.639	10556.25
496.843	10601.31
497.046	10775.39
497.249	11068.25
497.453	10871.64
497.656	10916.7
497.859	10969.94
498.063	11230.04
498.266	11506.51
498.469	11416.4
498.673	11397.97
498.876	11694.93
499.079	11641.68
499.282	11873.1
499.485	12147.53
499.689	11897.67
499.892	12258.12
500.095	12174.15
500.298	12628.8
500.501	12516.16
500.705	13099.83
500.908	12960.57
501.111	13110.07
501.314	13189.94
501.517	13267.77
501.72	13331.25
501.923	13550.39
502.126	13808.43
502.329	13992.75
502.532	13947.69
502.735	14070.57
502.938	14342.95
503.141	14394.15
503.344	14598.95
503.547	14760.73
503.75	14902.04
503.953	14916.38
504.156	15231.77
504.359	15438.61
504.562	15438.61
504.765	16016.14
504.968	15973.13
505.17	16313.1
505.373	16026.38
505.576	16481.03
505.779	16585.47
505.982	16687.87
506.185	17074.94
506.387	17304.31
506.59	17339.13
506.793	17408.76
506.996	17689.33
507.198	17672.95
507.401	18017.01
507.604	18193.13
507.807	18541.29
508.009	18569.96
508.212	18559.72
508.415	18877.15
508.617	19284.7
508.82	19094.24
509.022	19231.45
509.225	19317.47
509.428	19813.07
509.63	19956.43
509.833	20071.12
510.035	20929.22
510.238	20558.53
510.44	20871.87
510.643	21039.81
510.845	21275.32
511.048	21131.97
511.25	21682.87
511.453	21729.97
511.655	22510.25
511.858	22244.01
512.06	22076.08
512.262	22524.58
512.465	22622.89
512.667	23181.98
512.87	23167.65
513.072	23286.43
513.274	23581.34
513.477	23816.85
513.679	24089.23
513.881	24369.8
514.084	24517.26
514.286	24466.06
514.488	24740.49
514.69	25326.21
514.893	25324.16
515.095	25492.09
515.297	25660.02
515.499	25811.57
515.701	26511.98
515.904	26550.89
516.106	26585.71
516.308	26931.81
516.51	27185.76
516.712	26897
516.914	27480.67
517.116	27822.68
517.318	28205.65
517.52	28357.2
517.722	28176.98
517.925	28518.99
518.127	29313.6
518.329	28611.15
518.531	29002.31
518.733	29725.24
518.935	29528.64
519.136	29766.2
519.338	30157.36
519.54	30356.02
519.742	30356.02
519.944	30405.17
520.146	30925.35
520.348	31156.77
520.55	31326.75
520.752	31324.71
520.954	32086.55
521.155	31754.78
521.357	32432.66
521.559	32832.01
521.761	32801.29
521.963	32596.49
522.164	32883.21
522.366	32893.45
522.568	33419.78
522.77	33909.24
522.971	34087.42
523.173	33817.08
523.375	34329.08
523.576	34310.64
523.778	34236.92
523.98	34763.25
524.181	34613.74
524.383	35318.25
524.584	35314.15
524.786	35236.33
524.988	35410.4
525.189	35785.18
525.391	35912.16
525.592	36116.95
525.794	36446.68
525.995	36696.53
526.197	36401.62
526.398	36506.07
526.6	36583.89
526.801	37016.01
527.003	37145.03
527.204	36671.95
527.406	37239.24
527.607	37587.39
527.808	37798.34
528.01	37278.15
528.211	37509.57
528.412	38195.64
528.614	38175.16
528.815	38119.87
529.016	38488.5
529.218	37937.6
529.419	38117.82
529.62	38074.81
529.822	38275.51
530.023	38179.26
530.224	38166.97
530.425	38738.35
530.626	38205.88
530.828	38205.88
531.029	39115.18
531.23	38482.36
531.431	38662.58
531.632	38887.85
531.833	39031.21
532.035	39033.26
532.236	39063.98
532.437	38977.97
532.638	38705.59
532.839	39510.44
533.04	39432.61
533.241	38375.86
533.442	39537.06
533.643	39356.84
533.844	39352.74
534.045	39313.83
534.246	39014.83
534.447	39246.25
534.648	39037.36
534.849	39629.22
535.05	39238.06
535.251	39279.02
535.451	39037.36
535.652	39883.17
535.853	39149.99
536.054	39414.18
536.255	39176.62
536.456	38918.57
536.657	39575.97
536.857	39387.56
537.058	39510.44
537.259	39432.61
537.46	39588.26
537.66	39449
537.861	39389.61
538.062	39467.43
538.263	39479.72
538.463	39301.54
538.664	39285.16
538.865	39143.85
539.065	39686.56
539.266	39182.76
539.466	39403.94
539.667	39207.34
539.868	39639.46
540.068	38967.73
540.269	38756.78
540.469	39557.54
540.67	39184.81
540.87	39305.64
541.071	38803.89
541.271	39115.18
541.472	39033.26
541.672	38965.68
541.873	39115.18
542.073	38801.84
542.274	39717.28
542.474	39377.32
542.675	38879.66
542.875	39319.98
543.075	39438.76
543.276	38607.28
543.476	39451.05
543.676	39027.12
543.877	39330.22
544.077	39096.75
544.277	39090.6
544.478	38910.38
544.678	39117.23
544.878	38996.4
545.078	39311.78
545.279	38771.12
545.479	38887.85
545.679	39238.06
545.879	39049.64
546.079	39311.78
546.28	38887.85
546.48	39012.78
546.68	39000.49
546.88	39088.56
547.08	38953.39
547.28	38853.04
547.48	38607.28
547.68	39000.49
547.88	38697.39
548.081	39158.19
548.281	39119.28
548.481	38887.85
548.681	39109.04
548.881	39186.86
549.081	39020.97
549.28	38570.42
549.48	39414.18
549.68	38957.49
549.88	39297.45
550.08	38947.25
550.28	38762.93
550.48	38664.63
550.68	38881.71
550.88	38535.6
551.08	38787.5
551.279	38713.78
551.479	38656.43
551.679	38836.66
551.879	38877.61
552.079	38988.21
552.278	38607.28
552.478	38955.44
552.678	38748.59
552.878	38617.52
553.077	38406.58
553.277	38250.94
553.477	39324.07
553.676	38635.95
553.876	38416.82
554.076	38519.22
554.275	38660.53
554.475	38226.36
554.674	38459.83
554.874	38633.91
555.074	38689.2
555.273	38310.33
555.473	38756.78
555.672	38126.01
555.872	38812.08
556.071	38476.21
556.271	38650.29
556.47	38379.96
556.67	37972.41
556.869	37996.99
557.068	38113.72
557.268	38242.74
557.467	38058.43
557.667	38410.68
557.866	38465.97
558.065	37976.51
558.265	38224.31
558.464	37726.66
558.663	38406.58
558.863	37425.6
559.062	38402.49
559.261	37542.34
559.461	38023.61
559.66	37331.4
559.859	37888.45
560.058	37759.42
560.258	37820.86
560.457	37353.93
560.656	37702.08
560.855	37171.66
561.054	37657.03
561.253	37513.67
561.453	37714.37
561.652	37607.87
561.851	37323.21
562.05	37523.91
562.249	36973
562.448	37286.34
562.647	37562.82
562.846	37104.07
563.045	37411.27
563.244	36587.99
563.443	37261.77
563.642	36659.66
563.841	36669.9
564.04	36841.93
564.239	36948.43
564.438	36442.58
564.637	36473.3
564.836	36774.35
565.035	36278.74
565.234	36409.81
565.432	36461.01
565.631	36323.8
565.83	36614.61
566.029	36082.14
566.228	36362.71
566.427	36026.84
566.625	36266.45
566.824	35760.61
567.023	35879.39
567.222	35451.36
567.42	36200.92
567.619	35973.6
567.818	35525.09
568.016	36123.1
568.215	36041.18
568.414	35146.22
568.612	35742.17
568.811	35637.73
569.01	35582.43
569.208	34888.17
569.407	35414.5
569.605	35066.34
569.804	35496.42
570.002	35193.32
570.201	35367.4
570.4	34890.22
570.598	34662.9
570.797	34626.03
570.995	34779.63
571.193	34753.01
571.392	34691.57
571.59	34785.77
571.789	34464.24
571.987	34130.42
572.186	34691.57
572.384	34175.48
572.582	34212.34
572.781	34531.83
572.979	33905.15
573.177	34269.69
573.376	34243.06
573.574	33667.58
573.772	33862.14
573.971	33661.44
574.169	33776.12
574.367	33577.47
574.565	33581.57
574.763	33481.22
574.962	33892.86
575.16	32995.85
575.358	33401.35
575.556	33020.42
575.754	33706.49
575.952	32946.7
576.151	33298.95
576.349	32918.03
576.547	33063.43
576.745	32770.57
576.943	32645.65
577.141	32813.58
577.339	32965.13
577.537	32647.69
577.735	32684.56
577.933	32234
578.131	32887.31
578.329	32291.35
578.527	32090.65
578.725	32076.31
578.923	32217.62
579.121	32178.71
579.319	32160.28
579.516	32037.4
579.714	31996.44
579.912	31867.42
580.11	31922.71
580.308	31771.16
580.506	31885.85
580.704	31072.81
580.901	31619.61
581.099	31328.8
581.297	31193.64
581.495	30917.16
581.692	31326.75
581.89	30958.12
582.088	31384.1
582.285	30966.31
582.483	31175.2
582.681	30874.15
582.878	30734.89
583.076	30728.75
583.274	30681.64
583.471	30546.48
583.669	30698.03
583.866	30382.64
584.064	30700.08
584.262	29968.95
584.459	30671.4
584.657	30202.42
584.854	30333.49
585.052	29686.33
585.249	29964.85
585.447	30077.49
585.644	29823.54
585.841	29919.8
586.039	29995.57
586.236	29393.47
586.434	29254.21
586.631	29256.26
586.828	29532.73
587.026	29239.87
587.223	29112.9
587.42	29334.08
587.618	29157.96
587.815	28863.05
588.012	29026.89
588.21	28500.56
588.407	29112.9
588.604	28658.25
588.801	28500.56
588.999	28705.35
589.196	28680.78
589.393	28385.87
589.59	28244.56
589.787	28461.65
589.984	28469.84
590.182	27660.89
590.379	28193.36
590.576	28197.46
590.773	27945.56
590.97	27804.25
591.167	27875.93
591.364	27282.02
591.561	27931.22
591.758	27550.3
591.955	27480.67
592.152	27636.31
592.349	27183.71
592.546	27490.91
592.743	27290.21
592.94	26878.57
593.137	27347.55
593.334	26985.06
593.531	26829.41
593.727	27245.15
593.924	27099.75
594.121	26843.75
594.318	26921.57
594.515	26456.68
594.712	26772.07
594.908	26638.95
595.105	26333.81
595.302	26337.9
595.499	26352.24
595.696	26366.57
595.892	26196.59
596.089	26008.18
596.286	26200.69
596.482	25827.96
596.679	25983.6
596.876	25864.82
597.072	25690.74
597.269	25762.42
597.466	25614.97
597.662	25817.72
597.859	25623.16
598.055	25305.73
598.252	25383.55
598.448	25012.87
598.645	25324.16
598.841	25145.98
599.038	25186.94
599.234	25164.42
599.431	24584.84
599.627	24717.96
599.824	24844.93
600.02	24572.55
600.217	24912.52
600.413	24418.96
600.609	24472.2
600.806	24326.8
601.002	24273.55
601.198	24267.41
601.395	24122
601.591	23988.88
601.787	23984.79
601.984	24095.38
602.18	24134.29
602.376	23935.63
602.572	23734.93
602.769	23974.55
602.965	23554.71
603.161	23624.34
603.357	23526.04
603.553	23528.09
603.75	23454.36
603.946	23241.37
604.142	23743.13
604.338	22975.14
604.534	23286.43
604.73	23079.58
604.926	22708.9
605.122	23265.95
605.318	22891.17
605.514	22928.03
605.71	22680.23
605.906	22909.6
606.102	22717.09
606.298	22756
606.494	22438.57
606.69	22850.21
606.886	22786.72
607.082	22147.76
607.278	22524.58
607.474	22360.75
607.67	22434.47
607.866	21885.62
608.062	22244.01
608.257	21990.06
608.453	22403.75
608.649	22043.31
608.845	21867.19
609.041	22061.74
609.236	21963.44
609.432	21807.8
609.628	21703.35
609.824	22090.41
610.019	21621.43
610.215	21643.96
610.411	21838.51
610.606	21641.91
610.802	21648.05
610.998	21322.43
611.193	21600.95
611.389	21408.44
611.584	21527.22
611.78	21516.98
611.976	21217.98
612.171	21234.36
612.367	21340.86
612.562	21158.59
612.758	21027.52
612.953	20947.65
613.149	21453.5
613.344	20986.56
613.539	21250.75
613.735	21033.66
613.93	21209.79
614.126	20841.15
614.321	21021.38
614.517	20845.25
614.712	20654.79
614.907	20783.81
615.103	21154.49
615.298	20775.62
615.493	20884.16
615.688	20501.19
615.884	20798.15
616.079	20574.92
616.274	20912.83
616.47	20431.56
616.665	20576.97
616.86	20572.87
617.055	20419.27
617.25	20277.96
617.445	20509.38
617.641	20093.65
617.836	20505.29
618.031	20077.26
618.226	20064.97
618.421	20044.49
618.616	20277.96
618.811	19811.03
619.006	20366.03
619.201	19684.05
619.396	19632.85
619.591	19526.36
619.786	19806.93
619.981	19577.56
620.176	19522.26
620.371	19325.66
620.566	19565.27
620.761	19030.75
620.956	19331.8
621.151	19206.87
621.346	19167.96
621.541	18651.88
621.735	19235.55
621.93	18586.34
622.125	18643.68
622.32	18350.82
622.515	18436.84
622.709	18428.65
622.904	18402.02
623.099	18352.87
623.294	18262.76
623.488	18232.04
623.683	18215.66
623.878	17820.4
624.072	17924.85
624.267	17992.43
624.462	17683.19
624.656	17404.66
624.851	17545.97
625.046	17251.06
625.24	17244.92
625.435	17038.08
625.629	17148.67
625.824	16986.88
626.018	17025.79
626.213	16599.81
626.407	16751.36
626.602	16552.71
626.796	16720.64
626.991	16626.43
627.185	16589.57
627.38	16315.14
627.574	16196.36
627.768	16044.81
627.963	16065.29
628.157	15991.56
628.352	15952.65
628.546	15805.2
628.74	15684.37
628.935	15815.44
629.129	15797.01
629.323	15332.12
629.517	15330.07
629.712	15356.69
629.906	15110.94
630.1	15010.59
630.294	15227.67
630.489	15199
630.683	15137.56
630.877	14795.55
631.071	14799.65
631.265	14617.38
631.459	14783.26
631.653	14555.94
631.848	14402.34
632.042	14226.21
632.236	14580.51
632.43	14121.77
632.624	14138.15
632.818	14236.45
633.012	13984.55
633.206	13980.46
633.4	14086.95
633.594	13816.62
633.788	13787.95
633.982	13611.82
634.176	13751.09
634.369	13447.99
634.563	13634.35
634.757	13490.99
634.951	13421.36
635.145	13531.95
635.339	13286.2
635.533	13288.25
635.726	13226.81
635.92	12854.08
636.114	12979
636.308	12952.38
636.501	13007.67
636.695	12618.56
636.889	12495.68
637.083	12442.43
637.276	12503.87
637.47	12559.17
637.664	12434.24
637.857	12610.37
638.051	12151.62
638.244	12407.62
638.438	12352.32
638.632	12278.6
638.825	11905.87
639.019	12168.01
639.212	11924.3
639.406	11920.2
639.599	11848.52
639.793	11907.91
639.986	11604.81
640.18	11604.81
640.373	11672.4
640.567	11510.61
640.76	11438.93
640.954	11314
641.147	11320.15
641.34	11332.44
641.534	11631.44
641.727	11191.13
641.92	11127.64
642.114	11029.34
642.307	11227.99
642.5	11139.93
642.694	10785.63
642.887	10953.56
643.08	10836.83
643.273	10816.35
643.467	10906.46
643.66	10830.68
643.853	10529.63
644.046	10460
644.239	10505.06
644.432	10462.05
644.626	10308.45
644.819	10347.36
645.012	10363.75
645.205	10402.66
645.398	10390.37
645.591	10175.33
645.784	10109.8
645.977	9948.01
646.17	10027.88
646.363	10158.95
646.556	9837.42
646.749	9927.53
646.942	10068.84
647.135	9825.13
647.328	9642.86
647.521	9565.04
647.714	9417.58
647.907	9530.22
648.099	9618.29
648.292	9575.28
648.485	9567.09
648.678	9272.18
648.871	9685.87
649.064	9347.95
649.256	9341.81
649.449	9077.62
649.642	9182.07
649.835	9026.42
650.027	9159.54
650.22	8860.54
650.413	8881.02
650.605	9032.57
650.798	8864.63
650.991	8727.42
651.183	8792.95
651.376	8751.99
651.568	8717.18
651.761	8706.94
651.954	8614.78
652.146	8506.24
652.339	8440.7
652.531	8696.7
652.724	8399.74
652.916	8291.2
653.109	8397.7
653.301	8268.67
653.494	8436.61
653.686	8229.76
653.879	8221.57
654.071	8285.06
654.263	8373.12
654.456	8057.73
654.648	8162.18
654.84	7887.75
655.033	7988.1
655.225	7951.24
655.417	7807.88
655.61	7861.13
655.802	7932.81
655.994	7863.18
656.186	7709.58
656.379	7707.53
656.571	7818.12
656.763	7562.12
656.955	7508.88
657.148	7682.95
657.34	7459.73
657.532	7555.98
657.724	7469.97
657.916	7480.21
658.108	7263.12
658.3	7367.57
658.492	7254.93
658.684	7187.35
658.876	7297.94
659.068	7213.97
659.26	7043.99
659.452	7152.53
659.644	7031.7
659.836	6939.54
660.028	7017.36
660.22	7068.56
660.412	6833.05
660.604	6919.06
660.796	6929.3
660.988	6923.16
661.18	6804.38
661.372	6851.48
661.563	6566.81
661.755	6765.46
661.947	6654.87
662.139	6433.69
662.331	6546.33
662.522	6595.48
662.714	6450.08
662.906	6538.14
663.097	6427.55
663.289	6302.62
663.481	6212.51
663.673	6327.2
663.864	6306.72
664.056	6269.86
664.247	6069.16
664.439	6140.83
664.631	6163.36
664.822	6253.47
665.014	6073.25
665.205	6079.4
665.397	6108.07
665.588	6052.77
665.78	6103.97
665.971	6017.96
666.163	5852.07
666.354	5856.17
666.546	5895.08
666.737	5800.87
666.929	5979.04
667.12	5948.33
667.311	5716.9
667.503	5794.73
667.694	5577.64
667.885	5727.14
668.077	5694.38
668.268	5708.71
668.459	5501.87
668.651	5614.51
668.842	5526.44
669.033	5391.28
669.224	5557.16
669.416	5557.16
669.607	5516.2
669.798	5454.76
669.989	5528.49
670.18	5493.68
670.371	5344.17
670.563	5428.14
670.754	5452.72
670.945	5264.3
671.136	5417.9
671.327	5196.72
671.518	5237.68
671.709	5227.44
671.9	5297.07
672.091	5260.21
672.282	5245.87
672.473	5206.96
672.664	5135.28
672.855	5112.75
673.046	5096.37
673.237	5120.95
673.428	5141.43
673.619	5219.25
673.809	5094.32
674	5039.03
674.191	4885.43
674.382	4860.85
674.573	4910.01
674.764	4903.86
674.954	5049.27
675.145	4860.85
675.336	4797.37
675.527	4828.09
675.717	4840.37
675.908	4682.68
676.099	4834.23
676.289	4735.93
676.48	4717.5
676.671	4697.02
676.861	4799.41
677.052	4819.89
677.243	4731.83
677.433	4690.87
677.624	4719.54
677.814	4719.54
678.005	4690.87
678.195	4645.82
678.386	4686.78
678.576	4418.49
678.767	4623.29
678.957	4662.2
679.148	4823.99
679.338	4541.37
679.529	4637.63
679.719	4623.29
679.909	4748.22
680.1	4670.39
680.29	4508.6
680.481	4506.56
680.671	4543.42
680.861	4445.12
681.052	4518.84
681.242	4510.65
681.432	4484.03
681.622	4320.19
681.813	4309.95
682.003	4447.16
682.193	4375.49
682.383	4326.33
682.573	4465.6
682.764	4420.54
682.954	4338.62
683.144	4357.05
683.334	4172.74
683.524	4211.65
683.714	4322.24
683.904	4291.52
684.094	4273.09
684.284	4246.46
684.474	4406.2
684.664	4260.8
684.854	4258.75
685.044	4293.57
685.234	4154.3
685.424	4271.04
685.614	4312
685.804	4285.37
685.994	4029.38
686.184	4144.06
686.374	4115.39
686.564	3900.36
686.753	4080.58
686.943	3890.12
687.133	4006.85
687.323	3957.7
687.513	4017.09
687.702	3951.56
687.892	3969.99
688.082	3941.32
688.272	3908.55
688.461	3937.22
688.651	3886.02
688.841	3920.84
689.03	3677.13
689.22	3752.9
689.41	3883.97
689.599	3757
689.789	3740.61
689.979	3800.01
690.168	3720.14
690.358	3883.97
690.547	3683.27
690.737	3656.65
690.926	3642.31
691.116	3707.85
691.305	3625.93
691.495	3623.88
691.684	3619.78
691.874	3632.07
692.063	3580.87
692.252	3480.52
692.442	3501
692.631	3408.84
692.82	3404.75
693.01	3486.67
693.199	3468.24
693.388	3328.97
693.578	3445.71
693.767	3296.21
693.956	3322.83
694.146	3486.67
694.335	3369.93
694.524	3312.59
694.713	3202
694.902	3259.34
695.092	3421.13
695.281	3195.86
695.47	3314.64
695.659	3298.25
695.848	3152.85
696.037	3232.72
696.226	3242.96
696.415	3187.66
696.604	3253.2
696.793	3130.32
696.982	3113.94
697.171	3197.9
697.36	3120.08
697.549	3150.8
697.738	3079.12
697.927	3097.55
698.116	3249.1
698.305	3023.83
698.494	3101.65
698.683	3105.74
698.872	3251.15
699.061	3091.41
699.25	3079.12
699.438	3124.18
699.627	3060.69
699.816	3091.41
700.005	2937.81
700.193	3040.21
700.382	3038.16
700.571	3132.37
700.76	3044.31
700.948	3023.83
701.137	3044.31
701.326	3038.16
701.514	3072.98
701.703	2976.72
701.892	2986.96
702.08	3046.35
702.269	2982.87
702.457	2923.48
702.646	2800.6
702.834	2909.14
703.023	2880.47
703.212	2874.32
703.4	2892.76
703.589	2993.11
703.777	2941.91
703.965	2892.76
704.154	2909.14
704.342	2886.61
704.531	2823.12
704.719	2759.64
704.907	2900.95
705.096	2894.8
705.284	2946
705.472	2882.52
705.661	2841.56
705.849	2816.98
706.037	2843.6
706.226	2958.29
706.414	2958.29
706.602	2831.32
706.79	2925.52
706.979	2819.03
707.167	2794.45
707.355	2796.5
707.543	2821.08
707.731	2769.88
707.919	2929.62
708.107	2888.66
708.296	2812.89
708.484	2839.51
708.672	2800.6
708.86	2890.71
709.048	2776.02
709.236	2841.56
709.424	2804.69
709.612	2778.07
709.8	2892.76
709.988	2745.3
710.176	2843.6
710.364	2835.41
710.551	2798.55
710.739	2724.82
710.927	2735.06
711.115	2757.59
711.303	2792.41
711.491	2816.98
711.679	2839.51
711.866	2804.69
712.054	2898.9
712.242	2808.79
712.43	2948.05
712.617	2827.22
712.805	2700.25
712.993	2788.31
713.181	2692.05
713.368	2718.68
713.556	2749.4
713.744	2778.07
713.931	2796.5
714.119	2872.28
714.306	2829.27
714.494	2829.27
714.682	2755.54
714.869	2628.57
715.057	2900.95
715.244	2737.11
715.432	2694.1
715.619	2679.77
715.807	2833.36
715.994	2837.46
716.182	2730.97
716.369	2755.54
716.556	2733.01
716.744	2821.08
716.931	2694.1
717.119	2786.26
717.306	2808.79
717.493	2642.9
717.681	2745.3
717.868	2767.83
718.055	2724.82
718.242	2685.91
718.43	2767.83
718.617	2704.34
718.804	2763.73
718.991	2745.3
719.179	2712.53
719.366	2759.64
719.553	2667.48
719.74	2694.1
719.927	2610.14
720.114	2749.4
720.301	2765.78
720.488	2626.52
720.676	2755.54
720.863	2657.24
721.05	2745.3
721.237	2657.24
721.424	2753.49
721.611	2651.1
721.798	2733.01
721.985	2747.35
722.172	2575.32
722.358	2743.25
722.545	2810.84
722.732	2583.51
722.919	2773.97
723.106	2757.59
723.293	2784.21
723.48	2755.54
723.667	2737.11
723.853	2700.25
724.04	2741.21
724.227	2657.24
724.414	2714.58
724.6	2647
724.787	2741.21
724.974	2741.21
725.161	2782.17
725.347	2728.92
725.534	2778.07
725.72	2622.42
725.907	2638.81
726.094	2757.59
726.28	2657.24
726.467	2720.73
726.653	2677.72
726.84	2585.56
727.027	2837.46
727.213	2665.43
727.4	2739.16
727.586	2649.05
727.773	2706.39
727.959	2724.82
728.145	2690.01
728.332	2804.69
728.518	2749.4
728.705	2769.88
728.891	2634.71
729.077	2681.82
729.264	2585.56
729.45	2679.77
729.636	2608.09
729.823	2685.91
730.009	2683.86
730.195	2679.77
730.382	2644.95
730.568	2690.01
730.754	2599.9
730.94	2638.81
731.126	2661.34
731.313	2520.03
731.499	2730.97
731.685	2567.13
731.871	2735.06
732.057	2681.82
732.243	2718.68
732.429	2653.14
732.615	2810.84
732.801	2677.72
732.987	2669.53
733.173	2546.65
733.359	2694.1
733.545	2679.77
733.731	2700.25
733.917	2577.37
734.103	2700.25
734.289	2685.91
734.475	2730.97
734.661	2823.12
734.847	2634.71
735.033	2730.97
735.219	2659.29
735.404	2661.34
735.59	2577.37
735.776	2702.29
735.962	2667.48
736.148	2591.7
736.333	2558.94
736.519	2642.9
736.705	2513.88
736.89	2655.19
737.076	2681.82
737.262	2595.8
737.447	2587.61
737.633	2540.51
737.819	2632.66
738.004	2589.66
738.19	2628.57
738.375	2651.1
738.561	2534.36
738.747	2513.88
738.932	2667.48
739.118	2657.24
739.303	2606.04
739.489	2485.21
739.674	2454.49
739.859	2563.03
740.045	2477.02
740.23	2558.94
740.416	2520.03
740.601	2438.11
740.786	2560.98
740.972	2446.3
741.157	2468.83
741.342	2499.55
741.528	2567.13
741.713	2548.7
741.898	2415.58
742.084	2425.82
742.269	2491.35
742.454	2427.87
742.639	2382.81
742.824	2384.86
743.01	2503.64
743.195	2391
743.38	2405.34
743.565	2446.3
743.75	2436.06
743.935	2427.87
744.12	2362.33
744.305	2407.39
744.49	2362.33
744.675	2397.15
744.86	2321.37
745.045	2261.98
745.23	2313.18
745.415	2206.69
745.6	2259.93
745.785	2173.92
745.97	2210.78
746.155	2282.46
746.34	2331.61
746.525	2208.73
746.71	2190.3
746.895	2247.65
747.079	2223.07
747.264	2036.7
747.449	2229.21
747.634	2167.77
747.819	2102.24
748.003	2122.72
748.188	2063.33
748.373	2124.77
748.557	2143.2
748.742	1987.55
748.927	2014.18
749.111	2016.23
749.296	1922.02
749.481	2028.51
749.665	2040.8
749.85	1903.59
750.034	2003.94
750.219	1915.87
750.404	1942.5
750.588	1903.59
750.773	1946.59
750.957	1956.83
751.141	1893.35
751.326	1897.44
751.51	1866.72
751.695	1801.19
751.879	1813.48
752.064	1788.9
752.248	1762.28
752.432	1860.58
752.617	1811.43
752.801	1706.98
752.985	1686.5
753.17	1653.73
753.354	1698.79
753.538	1819.62
753.722	1700.84
753.907	1778.66
754.091	1754.09
754.275	1760.23
754.459	1653.73
754.643	1588.2
754.828	1500.14
755.012	1674.21
755.196	1616.87
755.38	1592.3
755.564	1573.86
755.748	1653.73
755.932	1569.77
756.116	1547.24
756.3	1594.34
756.484	1567.72
756.668	1584.1
756.852	1432.55
757.036	1555.43
757.22	1442.79
757.404	1539.05
757.588	1434.6
757.772	1520.62
757.956	1393.64
758.14	1524.71
758.323	1453.03
758.507	1389.55
758.691	1444.84
758.875	1422.31
759.059	1448.94
759.242	1395.69
759.426	1393.64
759.61	1418.22
759.794	1309.68
759.977	1373.16
760.161	1401.83
760.345	1362.92
760.528	1383.4
760.712	1291.24
760.895	1240.05
761.079	1281
761.263	1203.18
761.446	1246.19
761.63	1367.02
761.813	1367.02
761.997	1299.44
762.18	1295.34
762.364	1352.68
762.547	1199.09
762.731	1307.63
762.914	1162.22
763.098	1250.28
763.281	1213.42
763.464	1281
763.648	1240.05
763.831	1229.81
764.015	1164.27
764.198	1182.7
764.381	1238
764.564	1227.76
764.748	1197.04
764.931	1207.28
765.114	1215.47
765.297	1170.41
765.481	1133.55
765.664	1096.69
765.847	1133.55
766.03	1133.55
766.213	1186.8
766.397	1131.5
766.58	1209.33
766.763	1254.38
766.946	1027.06
767.129	1184.75
767.312	1131.5
767.495	1008.62
767.678	1125.36
767.861	1072.11
768.044	1090.54
768.227	1053.68
768.41	1065.97
768.593	1080.3
768.776	975.86
768.959	977.91
769.142	1070.06
769.324	1012.72
769.507	1020.91
769.69	938.99
769.873	1063.92
770.056	1074.16
770.239	1092.59
770.421	1031.15
770.604	1055.73
770.787	1055.73
770.97	1033.2
771.152	877.55
771.335	961.52
771.518	945.14
771.7	951.28
771.883	959.47
772.066	910.32
772.248	938.99
772.431	994.29
772.613	961.52
772.796	975.86
772.978	850.93
773.161	848.88
773.343	977.91
773.526	916.47
773.708	844.79
773.891	865.27
774.073	861.17
774.256	953.33
774.438	816.12
774.621	881.65
774.803	887.79
774.985	822.26
775.168	861.17
775.35	807.92
775.532	855.03
775.715	764.92
775.897	805.88
776.079	760.82
776.261	916.47
776.444	842.74
776.626	779.25
776.808	818.16
776.99	783.35
777.173	777.2
777.355	717.81
777.537	771.06
777.719	744.44
777.901	773.11
778.083	728.05
778.265	738.29
778.447	760.82
778.629	736.24
778.811	717.81
778.993	752.63
779.175	762.87
779.357	736.24
779.539	670.71
779.721	721.91
779.903	779.25
780.085	656.37
780.267	687.09
780.449	674.81
780.631	644.09
780.812	680.95
780.994	648.18
781.176	639.99
781.358	664.57
781.54	691.19
781.721	631.8
781.903	732.15
782.085	656.37
782.267	639.99
782.448	566.26
782.63	592.89
782.812	541.69
782.993	607.22
783.175	560.12
783.357	525.3
783.538	617.46
783.72	568.31
783.901	590.84
784.083	531.45
784.264	619.51
784.446	558.07
784.627	580.6
784.809	478.2
784.99	529.4
785.172	506.87
785.353	484.34
785.535	553.98
785.716	470.01
785.897	564.22
786.079	537.59
786.26	547.83
786.441	470.01
786.623	482.3
786.804	508.92
786.985	427
787.167	560.12
787.348	478.2
787.529	492.54
787.71	472.06
787.891	513.02
788.073	371.71
788.254	549.88
788.435	513.02
788.616	445.43
788.797	451.58
788.978	390.14
789.159	441.34
789.34	398.33
789.522	404.47
789.703	449.53
789.884	439.29
790.065	457.72
790.246	412.67
790.427	396.28
790.607	492.54
790.788	449.53
790.969	406.52
791.15	396.28
791.331	367.61
791.512	381.95
791.693	330.75
791.874	359.42
792.054	482.3
792.235	404.47
792.416	361.47
792.597	367.61
792.778	398.33
792.958	347.13
793.139	431.1
793.32	334.84
793.5	361.47
793.681	474.1
793.862	383.99
794.042	408.57
794.223	359.42
794.404	347.13
794.584	416.76
794.765	396.28
794.945	363.51
795.126	353.27
795.306	347.13
795.487	371.71
795.667	291.84
795.848	300.03
796.028	353.27
796.209	406.52
796.389	300.03
796.57	367.61
796.75	326.65
796.93	365.56
797.111	275.45
797.291	349.18
797.471	328.7
797.652	308.22
797.832	271.36
798.012	375.8
798.192	287.74
798.373	330.75
798.553	306.17
798.733	263.16
798.913	246.78
799.093	257.02
799.274	293.88
799.454	285.69
799.634	336.89
799.814	330.75
799.994	283.64
800.174	289.79
800.354	281.6
800.534	197.63
800.714	302.08
800.894	250.88
801.074	279.55
801.254	281.6
801.434	300.03
801.614	295.93
801.794	166.91
801.974	699.38
802.154	238.59
802.334	320.51
802.514	234.49
802.693	300.03
802.873	289.79
803.053	203.77
803.233	289.79
803.413	275.45
803.592	250.88
803.772	271.36
803.952	257.02
804.131	199.68
804.311	291.84
804.491	351.23
804.67	228.35
804.85	226.3
805.03	289.79
805.209	254.97
805.389	304.12
805.568	222.2
805.748	283.64
805.928	216.06
806.107	244.73
806.287	173.05
806.466	222.2
806.646	238.59
806.825	257.02
807.004	199.68
807.184	205.82
807.363	218.11
807.543	218.11
807.722	193.53
807.901	254.97
808.081	205.82
808.26	222.2
808.439	179.2
808.619	246.78
808.798	218.11
808.977	175.1
809.156	189.44
809.336	209.92
809.515	201.72
809.694	113.66
809.873	191.49
810.052	263.16
810.231	287.74
810.411	168.96
810.59	205.82
810.769	148.48
810.948	197.63
811.127	173.05
811.306	257.02
811.485	134.14
811.664	220.16
811.843	148.48
812.022	103.42
812.201	162.81
812.38	152.57
812.559	160.77
812.737	207.87
812.916	207.87
813.095	181.25
813.274	128
813.453	148.48
813.632	150.53
813.811	201.72
813.989	171.01
814.168	138.24
814.347	134.14
814.526	166.91
814.704	195.58
814.883	211.96
815.062	84.99
815.24	115.71
815.419	146.43
815.598	82.94
815.776	136.19
815.955	144.38
816.133	84.99
816.312	216.06
816.49	158.72
816.669	148.48
816.847	193.53
817.026	158.72
817.204	97.28
817.383	109.57
817.561	64.51
817.74	101.37
817.918	177.15
818.097	189.44
818.275	150.53
818.453	150.53
818.632	193.53
818.81	179.2
818.988	156.67
819.167	95.23
819.345	195.58
819.523	156.67
819.701	179.2
819.879	246.78
820.058	128
820.236	148.48
820.414	115.71
820.592	195.58
820.77	140.29
820.948	44.03
821.127	74.75
821.305	154.62
821.483	113.66
821.661	89.09
821.839	140.29
822.017	128
822.195	113.66
822.373	119.81
822.551	95.23
822.729	144.38
822.907	111.61
823.085	103.42
823.262	70.65
823.44	95.23
823.618	113.66
823.796	99.33
823.974	107.52
824.152	162.81
824.329	82.94
824.507	70.65
824.685	166.91
824.863	80.89
825.04	80.89
825.218	130.05
825.396	97.28
825.574	140.29
825.751	109.57
825.929	115.71
826.107	46.08
826.284	103.42
826.462	142.33
826.639	72.7
826.817	128
826.994	74.75
827.172	80.89
827.349	136.19
827.527	50.18
827.704	41.98
827.882	72.7
828.059	177.15
828.237	62.46
828.414	109.57
828.591	107.52
828.769	123.9
828.946	15.36
829.124	136.19
829.301	74.75
829.478	76.8
829.655	39.94
829.833	74.75
830.01	107.52
830.187	125.95
830.364	130.05
830.542	54.27
830.719	138.24
830.896	105.47
831.073	58.37
831.25	105.47
831.427	107.52
831.604	60.42
831.782	93.18
831.959	95.23
832.136	74.75
832.313	62.46
832.49	89.09
832.667	138.24
832.844	41.98
833.021	91.13
833.198	70.65
833.374	62.46
833.551	76.8
833.728	25.6
833.905	87.04
834.082	66.56
834.259	66.56
834.436	66.56
834.612	68.61
834.789	105.47
834.966	74.75
835.143	7.17
835.319	33.79
835.496	107.52
835.673	82.94
835.85	125.95
836.026	132.09
836.203	80.89
836.38	52.22
836.556	107.52
836.733	93.18
836.909	91.13
837.086	33.79
837.262	84.99
837.439	168.96
837.616	99.33
837.792	64.51
837.968	152.57
838.145	87.04
838.321	76.8
838.498	144.38
838.674	103.42
838.851	60.42
839.027	60.42
839.203	56.32
839.38	72.7
839.556	84.99
839.732	87.04
839.909	39.94
840.085	103.42
840.261	44.03
840.437	-1.02
840.614	29.7
840.79	35.84
840.966	54.27
841.142	44.03
841.318	39.94
841.494	29.7
841.671	46.08
841.847	82.94
842.023	25.6
842.199	25.6
842.375	56.32
842.551	13.31
842.727	23.55
842.903	-3.07
843.079	37.89
843.255	87.04
843.431	19.46
843.607	58.37
843.783	21.5
843.959	17.41
844.134	-1.02
844.31	74.75
844.486	80.89
844.662	9.22
844.838	68.61
845.013	11.26
845.189	27.65
845.365	15.36
845.541	-5.12
845.716	107.52
845.892	-19.46
846.068	-25.6
846.244	29.7
846.419	13.31
846.595	33.79
846.77	76.8
846.946	68.61
847.122	58.37
847.297	82.94
847.473	123.9
847.648	-31.74
847.824	41.98
847.999	-17.41
848.175	50.18
848.35	58.37
848.526	54.27
848.701	99.33
848.876	41.98
849.052	44.03
849.227	87.04
849.403	82.94
849.578	46.08
849.753	54.27
849.929	9.22
850.104	9.22
850.279	44.03
850.454	23.55
850.63	70.65
850.805	29.7
850.98	80.89
851.155	41.98
851.33	3.07
851.505	95.23
851.681	97.28
851.856	39.94
852.031	93.18
852.206	72.7
852.381	41.98
852.556	66.56
852.731	111.61
852.906	76.8
853.081	31.74
853.256	113.66
853.431	27.65
853.606	3.07
853.781	7.17
853.956	39.94
854.131	82.94
854.305	7.17
854.48	-3.07
854.655	31.74
854.83	48.13
855.005	5.12
855.18	68.61
855.354	39.94
855.529	52.22
855.704	27.65
855.879	91.13
856.053	23.55
856.228	-52.22
856.403	70.65
856.577	48.13
856.752	13.31
856.926	99.33
857.101	91.13
857.276	15.36
857.45	37.89
857.625	54.27
857.799	15.36
857.974	19.46
858.148	95.23
858.323	70.65
858.497	-105.47
858.672	72.7
858.846	76.8
859.02	54.27
859.195	-33.79
859.369	41.98
859.543	37.89
859.718	50.18
859.892	56.32
860.066	115.71
860.241	7.17
860.415	-46.08
860.589	1.02
860.763	13.31
860.938	58.37
861.112	62.46
861.286	17.41
861.46	39.94
861.634	-60.42
861.808	13.31
861.982	-1.02
862.157	35.84
862.331	-15.36
862.505	60.42
862.679	-11.26
862.853	37.89
863.027	1.02
863.201	41.98
863.375	-1.02
863.549	91.13
863.722	-21.5
863.896	-62.46
864.07	21.5
864.244	31.74
864.418	5.12
864.592	15.36
864.766	37.89
864.939	48.13
865.113	-7.17
865.287	46.08
865.461	-11.26
865.634	13.31
865.808	-11.26
865.982	-1.02
866.156	76.8
866.329	31.74
866.503	31.74
866.676	-37.89
866.85	115.71
867.024	48.13
867.197	27.65
867.371	-31.74
867.544	48.13
867.718	82.94
867.891	48.13
868.065	46.08
868.238	9.22
868.412	46.08
868.585	64.51
868.759	54.27
868.932	15.36
869.105	-15.36
869.279	29.7
869.452	-37.89
869.625	11.26
869.799	-50.18
869.972	-21.5
870.145	101.37
870.319	80.89
870.492	21.5
870.665	41.98
870.838	23.55
871.011	-39.94
871.185	-35.84
871.358	58.37
871.531	25.6
871.704	-48.13
871.877	-9.22
872.05	52.22
872.223	-31.74
872.396	-3.07
872.569	29.7
872.742	-11.26
872.915	-25.6
873.088	52.22
873.261	-11.26
873.434	52.22
873.607	-41.98
873.78	23.55
873.953	-41.98
874.126	-39.94
874.299	64.51
874.471	33.79
874.644	-5.12
874.817	-25.6
874.99	17.41
875.163	9.22
875.335	82.94
875.508	-19.46
875.681	56.32
875.853	31.74
876.026	19.46
876.199	-68.61
876.371	64.51
876.544	-15.36
876.717	41.98
876.889	41.98
877.062	-21.5
877.234	-5.12
877.407	-3.07
877.579	-21.5
877.752	-15.36
877.924	-109.57
878.097	35.84
878.269	33.79
878.442	68.61
878.614	-13.31
878.786	58.37
878.959	-21.5
879.131	9.22
879.303	-13.31
879.476	31.74
879.648	64.51
879.82	-9.22
879.993	-21.5
880.165	9.22
880.337	19.46
880.509	50.18
880.681	-21.5
880.854	46.08
881.026	37.89
881.198	56.32
881.37	27.65
881.542	-33.79
881.714	19.46
881.886	-37.89
882.058	-9.22
882.23	13.31
882.402	121.85
882.574	39.94
882.746	-25.6
882.918	1.02
883.09	37.89
883.262	50.18
883.434	-17.41
883.606	-13.31
883.778	21.5
883.95	54.27
884.122	-54.27
884.293	27.65
884.465	58.37
884.637	64.51
884.809	19.46
884.98	25.6
885.152	-23.55
885.324	23.55
885.496	-11.26
885.667	-33.79
885.839	-17.41
886.011	64.51
886.182	25.6
886.354	-37.89
886.525	-39.94
886.697	54.27
886.869	-5.12
887.04	27.65
887.212	62.46
887.383	125.95
887.555	1.02
887.726	-19.46
887.897	29.7
888.069	-5.12
888.24	-23.55
888.412	-1.02
888.583	-9.22
888.754	-17.41
888.926	-29.7
889.097	-1.02
889.268	-58.37
889.44	-33.79
889.611	48.13
889.782	-41.98
889.953	-37.89
890.125	31.74
890.296	-64.51
890.467	39.94
890.638	-31.74
890.809	-29.7
890.98	-5.12
891.151	121.85
891.323	37.89
891.494	-13.31
891.665	-13.31
891.836	87.04
892.007	-62.46
892.178	19.46
892.349	-46.08
892.52	-5.12
892.691	-33.79
892.862	-58.37
893.032	-21.5
893.203	35.84
893.374	-27.65
893.545	-27.65
893.716	3.07
893.887	-72.7
894.057	-48.13
894.228	48.13
894.399	48.13
894.57	7.17
894.74	25.6
894.911	17.41
895.082	78.85
895.253	-84.99
895.423	-1.02
895.594	33.79
895.764	-37.89
895.935	-21.5
896.106	-27.65
896.276	-15.36
896.447	-17.41
896.617	-44.03
896.788	-60.42
896.958	-41.98
897.129	44.03
897.299	41.98
897.47	-11.26
897.64	-46.08
897.81	-17.41
897.981	7.17
898.151	-29.7
898.322	46.08
898.492	-60.42
898.662	-29.7
898.832	11.26
899.003	39.94
899.173	5.12
899.343	35.84
899.513	-29.7
