Data from USB4F104151__39__12-27-21-434.txt Node

Date: Fri Mar 14 12:27:21 EDT 2025
User: louis
Spectrometer: USB4F10415
Trigger mode: 4
Integration Time (sec): 2.000000E-2
Scans to average: 1
Electric dark correction enabled: true
Nonlinearity correction enabled: false
Boxcar width: 0
XAxis mode: Wavelengths
Number of Pixels in Spectrum: 3648
>>>>>Begin Spectral Data<<<<<
178.204	-125.27
178.424	-125.27
178.644	-125.27
178.864	-164.18
179.084	-69.97
179.304	3.75
179.524	-4.44
179.744	-2.39
179.964	69.29
180.184	75.43
180.404	20.14
180.624	-31.06
180.844	-0.34
181.064	-8.53
181.283	-26.96
181.503	-49.49
181.723	-45.4
181.943	-22.87
182.163	200.36
182.383	57
182.602	13.99
182.822	9.9
183.042	48.81
183.262	24.23
183.482	3.75
183.701	-16.73
183.921	32.43
184.141	32.43
184.361	38.57
184.58	28.33
184.8	-12.63
185.02	9.9
185.239	30.38
185.459	79.53
185.679	28.33
185.898	-24.92
186.118	32.43
186.338	34.47
186.557	75.43
186.777	-29.01
186.997	32.43
187.216	-6.49
187.436	1.71
187.655	79.53
187.875	83.63
188.095	26.28
188.314	116.39
188.534	26.28
188.753	69.29
188.973	20.14
189.192	52.91
189.412	-31.06
189.631	-16.73
189.851	-65.88
190.07	24.23
190.29	16.04
190.509	52.91
190.729	32.43
190.948	63.15
191.168	95.91
191.387	69.29
191.607	26.28
191.826	83.63
192.045	5.8
192.265	11.95
192.484	-12.63
192.704	38.57
192.923	-26.96
193.142	91.82
193.362	50.86
193.581	22.19
193.8	83.63
194.02	-12.63
194.239	67.24
194.458	42.67
194.678	-6.49
194.897	59.05
195.116	-0.34
195.335	69.29
195.555	75.43
195.774	3.75
195.993	52.91
196.212	93.87
196.432	7.85
196.651	3.75
196.87	-14.68
197.089	69.29
197.308	130.73
197.528	108.2
197.747	-41.3
197.966	7.85
198.185	91.82
198.404	20.14
198.623	24.23
198.842	34.47
199.062	-0.34
199.281	13.99
199.5	48.81
199.719	-18.77
199.938	-16.73
200.157	13.99
200.376	20.14
200.595	16.04
200.814	44.71
201.033	40.62
201.252	24.23
201.471	-20.82
201.69	-51.54
201.909	65.19
202.128	54.95
202.347	50.86
202.566	38.57
202.785	-37.2
203.004	-22.87
203.223	67.24
203.442	-41.3
203.661	42.67
203.879	46.76
204.098	85.67
204.317	-61.78
204.536	16.04
204.755	54.95
204.974	46.76
205.193	-22.87
205.411	50.86
205.63	-16.73
205.849	44.71
206.068	36.52
206.287	100.01
206.505	28.33
206.724	44.71
206.943	-2.39
207.162	-2.39
207.381	-39.25
207.599	-4.44
207.818	-20.82
208.037	-2.39
208.255	-20.82
208.474	61.1
208.693	-6.49
208.911	36.52
209.13	24.23
209.349	-22.87
209.567	32.43
209.786	44.71
210.005	93.87
210.223	1.71
210.442	-55.64
210.661	16.04
210.879	114.34
211.098	91.82
211.316	-2.39
211.535	81.58
211.753	-18.77
211.972	36.52
212.191	-39.25
212.409	69.29
212.628	22.19
212.846	65.19
213.065	52.91
213.283	-12.63
213.502	44.71
213.72	-24.92
213.938	30.38
214.157	50.86
214.375	69.29
214.594	36.52
214.812	-18.77
215.031	48.81
215.249	42.67
215.467	-6.49
215.686	81.58
215.904	38.57
216.122	-0.34
216.341	44.71
216.559	-41.3
216.778	3.75
216.996	38.57
217.214	46.76
217.432	75.43
217.651	-20.82
217.869	20.14
218.087	26.28
218.306	36.52
218.524	118.44
218.742	-12.63
218.96	63.15
219.179	67.24
219.397	26.28
219.615	-22.87
219.833	61.1
220.051	-16.73
220.27	40.62
220.488	57
220.706	5.8
220.924	42.67
221.142	3.75
221.36	100.01
221.578	52.91
221.796	-26.96
222.015	46.76
222.233	75.43
222.451	77.48
222.669	46.76
222.887	-10.58
223.105	7.85
223.323	32.43
223.541	22.19
223.759	77.48
223.977	-63.83
224.195	97.96
224.413	20.14
224.631	-2.39
224.849	77.48
225.067	81.58
225.285	-43.35
225.503	5.8
225.721	5.8
225.939	34.47
226.157	22.19
226.375	83.63
226.592	-4.44
226.81	48.81
227.028	52.91
227.246	50.86
227.464	26.28
227.682	54.95
227.9	22.19
228.117	36.52
228.335	-78.16
228.553	95.91
228.771	7.85
228.989	18.09
229.206	-24.92
229.424	118.44
229.642	46.76
229.86	3.75
230.077	-24.92
230.295	38.57
230.513	50.86
230.731	97.96
230.948	65.19
231.166	16.04
231.384	-57.68
231.601	3.75
231.819	65.19
232.037	3.75
232.254	22.19
232.472	42.67
232.689	-51.54
232.907	57
233.125	24.23
233.342	9.9
233.56	48.81
233.777	44.71
233.995	67.24
234.213	57
234.43	48.81
234.648	22.19
234.865	11.95
235.083	44.71
235.3	-33.11
235.518	18.09
235.735	59.05
235.953	83.63
236.17	30.38
236.388	-26.96
236.605	46.76
236.822	122.54
237.04	57
237.257	42.67
237.475	100.01
237.692	73.39
237.909	20.14
238.127	13.99
238.344	50.86
238.562	7.85
238.779	52.91
238.996	-35.16
239.214	18.09
239.431	-26.96
239.648	-0.34
239.865	44.71
240.083	79.53
240.3	-10.58
240.517	-43.35
240.735	143.02
240.952	24.23
241.169	81.58
241.386	63.15
241.603	3.75
241.821	26.28
242.038	75.43
242.255	75.43
242.472	-41.3
242.689	79.53
242.907	59.05
243.124	67.24
243.341	-39.25
243.558	22.19
243.775	28.33
243.992	22.19
244.209	26.28
244.426	48.81
244.643	28.33
244.86	-6.49
245.078	-10.58
245.295	110.25
245.512	20.14
245.729	-39.25
245.946	26.28
246.163	-2.39
246.38	102.06
246.597	40.62
246.814	-0.34
247.031	-29.01
247.248	32.43
247.464	7.85
247.681	87.72
247.898	38.57
248.115	54.95
248.332	-26.96
248.549	26.28
248.766	57
248.983	110.25
249.2	57
249.417	5.8
249.633	13.99
249.85	52.91
250.067	5.8
250.284	-33.11
250.501	-22.87
250.717	102.06
250.934	-18.77
251.151	1.71
251.368	30.38
251.585	59.05
251.801	24.23
252.018	20.14
252.235	57
252.451	81.58
252.668	54.95
252.885	22.19
253.102	36.52
253.318	-2.39
253.535	50.86
253.752	26.28
253.968	16.04
254.185	7.85
254.401	7.85
254.618	-67.92
254.835	85.67
255.051	75.43
255.268	50.86
255.484	48.81
255.701	-20.82
255.917	32.43
256.134	3.75
256.351	34.47
256.567	54.95
256.784	34.47
257	-22.87
257.217	145.06
257.433	-18.77
257.65	95.91
257.866	18.09
258.082	-2.39
258.299	59.05
258.515	9.9
258.732	69.29
258.948	22.19
259.165	-61.78
259.381	-61.78
259.597	-31.06
259.814	22.19
260.03	-4.44
260.246	-0.34
260.463	36.52
260.679	67.24
260.895	-33.11
261.112	18.09
261.328	-49.49
261.544	18.09
261.761	44.71
261.977	34.47
262.193	79.53
262.409	69.29
262.626	-29.01
262.842	54.95
263.058	32.43
263.274	69.29
263.49	26.28
263.707	18.09
263.923	-6.49
264.139	11.95
264.355	32.43
264.571	36.52
264.787	91.82
265.004	77.48
265.22	40.62
265.436	42.67
265.652	16.04
265.868	40.62
266.084	-51.54
266.3	71.34
266.516	-22.87
266.732	3.75
266.948	22.19
267.164	13.99
267.38	40.62
267.596	28.33
267.812	91.82
268.028	81.58
268.244	22.19
268.46	18.09
268.676	9.9
268.892	44.71
269.108	-74.07
269.324	-6.49
269.54	30.38
269.756	44.71
269.972	-24.92
270.188	65.19
270.403	11.95
270.619	-22.87
270.835	42.67
271.051	59.05
271.267	-43.35
271.483	112.3
271.698	46.76
271.914	-26.96
272.13	11.95
272.346	-8.53
272.562	85.67
272.777	67.24
272.993	-0.34
273.209	138.92
273.425	-8.53
273.64	46.76
273.856	20.14
274.072	38.57
274.287	59.05
274.503	97.96
274.719	-12.63
274.934	20.14
275.15	7.85
275.366	91.82
275.581	-39.25
275.797	-10.58
276.012	24.23
276.228	38.57
276.444	3.75
276.659	89.77
276.875	-24.92
277.09	22.19
277.306	-18.77
277.521	34.47
277.737	65.19
277.952	81.58
278.168	-45.4
278.383	75.43
278.599	40.62
278.814	63.15
279.03	-8.53
279.245	18.09
279.461	79.53
279.676	89.77
279.892	-26.96
280.107	42.67
280.322	24.23
280.538	-26.96
280.753	73.39
280.969	-2.39
281.184	3.75
281.399	63.15
281.615	20.14
281.83	95.91
282.045	-37.2
282.26	26.28
282.476	28.33
282.691	48.81
282.906	-14.68
283.122	79.53
283.337	3.75
283.552	52.91
283.767	79.53
283.983	40.62
284.198	30.38
284.413	30.38
284.628	26.28
284.843	-16.73
285.058	36.52
285.274	57
285.489	-0.34
285.704	28.33
285.919	-16.73
286.134	-0.34
286.349	-43.35
286.564	30.38
286.779	5.8
286.995	75.43
287.21	52.91
287.425	13.99
287.64	59.05
287.855	16.04
288.07	-10.58
288.285	-10.58
288.5	32.43
288.715	34.47
288.93	85.67
289.145	79.53
289.36	97.96
289.575	71.34
289.79	87.72
290.004	18.09
290.219	-16.73
290.434	67.24
290.649	-8.53
290.864	61.1
291.079	32.43
291.294	42.67
291.509	48.81
291.724	-51.54
291.938	30.38
292.153	28.33
292.368	20.14
292.583	-26.96
292.798	63.15
293.012	20.14
293.227	-12.63
293.442	-8.53
293.657	13.99
293.871	30.38
294.086	-0.34
294.301	91.82
294.516	100.01
294.73	44.71
294.945	61.1
295.16	24.23
295.374	83.63
295.589	69.29
295.804	-18.77
296.018	9.9
296.233	87.72
296.447	9.9
296.662	-26.96
296.877	48.81
297.091	7.85
297.306	91.82
297.52	36.52
297.735	65.19
297.949	79.53
298.164	24.23
298.378	22.19
298.593	118.44
298.807	13.99
299.022	-2.39
299.236	57
299.451	32.43
299.665	5.8
299.88	-22.87
300.094	-12.63
300.309	71.34
300.523	1.71
300.737	44.71
300.952	-35.16
301.166	52.91
301.381	20.14
301.595	61.1
301.809	63.15
302.024	7.85
302.238	22.19
302.452	61.1
302.667	24.23
302.881	87.72
303.095	48.81
303.309	52.91
303.524	97.96
303.738	54.95
303.952	-14.68
304.166	32.43
304.381	-41.3
304.595	108.2
304.809	50.86
305.023	-47.44
305.237	13.99
305.452	73.39
305.666	48.81
305.88	67.24
306.094	85.67
306.308	52.91
306.522	38.57
306.736	11.95
306.95	3.75
307.164	65.19
307.379	-4.44
307.593	89.77
307.807	-31.06
308.021	59.05
308.235	52.91
308.449	-35.16
308.663	30.38
308.877	87.72
309.091	24.23
309.305	34.47
309.519	-4.44
309.733	59.05
309.947	-26.96
310.161	5.8
310.374	18.09
310.588	100.01
310.802	-29.01
311.016	102.06
311.23	1.71
311.444	-49.49
311.658	46.76
311.872	48.81
312.085	52.91
312.299	79.53
312.513	-0.34
312.727	79.53
312.941	48.81
313.154	40.62
313.368	40.62
313.582	52.91
313.796	11.95
314.009	24.23
314.223	36.52
314.437	-4.44
314.651	3.75
314.864	-55.64
315.078	-18.77
315.292	20.14
315.505	69.29
315.719	48.81
315.933	-6.49
316.146	34.47
316.36	42.67
316.573	71.34
316.787	110.25
317.001	50.86
317.214	1.71
317.428	-26.96
317.641	79.53
317.855	26.28
318.068	22.19
318.282	83.63
318.495	52.91
318.709	102.06
318.922	77.48
319.136	-12.63
319.349	59.05
319.563	-12.63
319.776	46.76
319.99	16.04
320.203	73.39
320.417	9.9
320.63	-18.77
320.843	83.63
321.057	120.49
321.27	42.67
321.483	13.99
321.697	79.53
321.91	7.85
322.124	59.05
322.337	1.71
322.55	73.39
322.763	16.04
322.977	-33.11
323.19	30.38
323.403	3.75
323.617	22.19
323.83	77.48
324.043	-76.12
324.256	57
324.469	-12.63
324.683	69.29
324.896	-0.34
325.109	95.91
325.322	52.91
325.535	-6.49
325.748	59.05
325.962	85.67
326.175	-0.34
326.388	7.85
326.601	46.76
326.814	9.9
327.027	-6.49
327.24	-0.34
327.453	13.99
327.666	48.81
327.879	44.71
328.092	85.67
328.305	-16.73
328.518	81.58
328.731	-69.97
328.944	-4.44
329.157	13.99
329.37	36.52
329.583	63.15
329.796	69.29
330.009	108.2
330.222	59.05
330.435	42.67
330.648	95.91
330.861	44.71
331.073	120.49
331.286	42.67
331.499	59.05
331.712	-12.63
331.925	30.38
332.138	26.28
332.35	140.97
332.563	40.62
332.776	26.28
332.989	22.19
333.202	46.76
333.414	85.67
333.627	73.39
333.84	52.91
334.053	67.24
334.265	-14.68
334.478	42.67
334.691	16.04
334.903	46.76
335.116	65.19
335.329	124.58
335.541	112.3
335.754	110.25
335.966	5.8
336.179	40.62
336.392	79.53
336.604	28.33
336.817	97.96
337.029	48.81
337.242	69.29
337.454	57
337.667	44.71
337.88	87.72
338.092	91.82
338.305	22.19
338.517	52.91
338.729	71.34
338.942	57
339.154	32.43
339.367	57
339.579	-4.44
339.792	-6.49
340.004	52.91
340.217	79.53
340.429	40.62
340.641	42.67
340.854	16.04
341.066	26.28
341.278	114.34
341.491	79.53
341.703	130.73
341.915	69.29
342.128	-8.53
342.34	30.38
342.552	13.99
342.764	-22.87
342.977	-14.68
343.189	52.91
343.401	69.29
343.613	-0.34
343.826	63.15
344.038	36.52
344.25	5.8
344.462	-6.49
344.674	40.62
344.886	75.43
345.099	61.1
345.311	13.99
345.523	46.76
345.735	61.1
345.947	52.91
346.159	30.38
346.371	24.23
346.583	-18.77
346.795	91.82
347.007	97.96
347.219	67.24
347.431	9.9
347.643	61.1
347.855	36.52
348.067	63.15
348.279	34.47
348.491	69.29
348.703	32.43
348.915	32.43
349.127	-18.77
349.339	108.2
349.551	59.05
349.763	-4.44
349.975	-2.39
350.187	13.99
350.399	61.1
350.61	20.14
350.822	61.1
351.034	61.1
351.246	112.3
351.458	28.33
351.669	52.91
351.881	65.19
352.093	89.77
352.305	1.71
352.517	89.77
352.728	87.72
352.94	18.09
353.152	91.82
353.363	63.15
353.575	59.05
353.787	36.52
353.999	73.39
354.21	65.19
354.422	-8.53
354.633	69.29
354.845	48.81
355.057	-18.77
355.268	26.28
355.48	32.43
355.692	-6.49
355.903	-4.44
356.115	40.62
356.326	-0.34
356.538	9.9
356.749	95.91
356.961	79.53
357.172	-39.25
357.384	34.47
357.595	69.29
357.807	52.91
358.018	116.39
358.23	81.58
358.441	52.91
358.653	-2.39
358.864	30.38
359.075	11.95
359.287	52.91
359.498	50.86
359.709	73.39
359.921	65.19
360.132	-14.68
360.344	42.67
360.555	40.62
360.766	65.19
360.977	26.28
361.189	79.53
361.4	24.23
361.611	46.76
361.823	48.81
362.034	61.1
362.245	7.85
362.456	118.44
362.667	30.38
362.879	42.67
363.09	18.09
363.301	22.19
363.512	13.99
363.723	20.14
363.935	34.47
364.146	-41.3
364.357	-45.4
364.568	9.9
364.779	-16.73
364.99	5.8
365.201	20.14
365.412	104.11
365.623	-10.58
365.834	69.29
366.045	-0.34
366.256	61.1
366.467	11.95
366.678	7.85
366.889	93.87
367.1	36.52
367.311	-18.77
367.522	11.95
367.733	26.28
367.944	3.75
368.155	73.39
368.366	50.86
368.577	83.63
368.788	77.48
368.999	20.14
369.209	38.57
369.42	122.54
369.631	48.81
369.842	36.52
370.053	63.15
370.264	59.05
370.474	38.57
370.685	40.62
370.896	50.86
371.107	85.67
371.317	40.62
371.528	40.62
371.739	48.81
371.95	50.86
372.16	7.85
372.371	16.04
372.582	40.62
372.792	-6.49
373.003	44.71
373.214	57
373.424	95.91
373.635	-20.82
373.846	63.15
374.056	-4.44
374.267	9.9
374.477	71.34
374.688	67.24
374.898	9.9
375.109	65.19
375.319	48.81
375.53	22.19
375.74	-2.39
375.951	50.86
376.161	65.19
376.372	65.19
376.582	61.1
376.793	44.71
377.003	102.06
377.214	52.91
377.424	91.82
377.635	85.67
377.845	28.33
378.055	65.19
378.266	22.19
378.476	81.58
378.686	97.96
378.897	79.53
379.107	42.67
379.317	26.28
379.528	54.95
379.738	91.82
379.948	36.52
380.158	93.87
380.369	46.76
380.579	9.9
380.789	9.9
380.999	32.43
381.21	69.29
381.42	122.54
381.63	46.76
381.84	57
382.05	-22.87
382.261	38.57
382.471	32.43
382.681	89.77
382.891	57
383.101	132.78
383.311	91.82
383.521	69.29
383.731	77.48
383.941	-22.87
384.151	77.48
384.361	48.81
384.571	61.1
384.781	112.3
384.991	130.73
385.201	52.91
385.411	65.19
385.621	65.19
385.831	61.1
386.041	67.24
386.251	26.28
386.461	102.06
386.671	91.82
386.881	61.1
387.091	54.95
387.301	65.19
387.511	38.57
387.72	42.67
387.93	147.11
388.14	9.9
388.35	77.48
388.56	93.87
388.769	118.44
388.979	20.14
389.189	11.95
389.399	130.73
389.609	-33.11
389.818	83.63
390.028	22.19
390.238	36.52
390.447	22.19
390.657	77.48
390.867	18.09
391.076	124.58
391.286	69.29
391.496	83.63
391.705	18.09
391.915	24.23
392.125	93.87
392.334	57
392.544	59.05
392.753	16.04
392.963	73.39
393.172	65.19
393.382	77.48
393.591	22.19
393.801	48.81
394.01	120.49
394.22	13.99
394.429	-0.34
394.639	79.53
394.848	130.73
395.058	95.91
395.267	32.43
395.477	89.77
395.686	36.52
395.895	75.43
396.105	140.97
396.314	9.9
396.524	81.58
396.733	67.24
396.942	120.49
397.152	134.82
397.361	50.86
397.57	83.63
397.78	110.25
397.989	95.91
398.198	91.82
398.407	97.96
398.617	126.63
398.826	89.77
399.035	81.58
399.244	149.16
399.453	93.87
399.663	136.87
399.872	102.06
400.081	134.82
400.29	163.5
400.499	73.39
400.708	200.36
400.917	138.92
401.127	95.91
401.336	46.76
401.545	75.43
401.754	16.04
401.963	122.54
402.172	69.29
402.381	22.19
402.59	114.34
402.799	159.4
403.008	89.77
403.217	116.39
403.426	104.11
403.635	102.06
403.844	128.68
404.053	40.62
404.262	61.1
404.471	153.26
404.68	145.06
404.888	130.73
405.097	73.39
405.306	128.68
405.515	138.92
405.724	124.58
405.933	143.02
406.142	97.96
406.35	204.46
406.559	192.17
406.768	116.39
406.977	155.3
407.185	153.26
407.394	163.5
407.603	116.39
407.812	237.22
408.02	204.46
408.229	216.74
408.438	220.84
408.646	272.04
408.855	220.84
409.064	192.17
409.272	241.32
409.481	140.97
409.69	204.46
409.898	231.08
410.107	257.7
410.315	265.89
410.524	235.18
410.733	337.57
410.941	313
411.15	319.14
411.358	298.66
411.567	317.09
411.775	317.09
411.984	378.53
412.192	323.24
412.401	345.77
412.609	401.06
412.818	351.91
413.026	403.11
413.234	337.57
413.443	429.73
413.651	478.88
413.86	468.64
414.068	499.36
414.276	519.84
414.485	448.16
414.693	583.33
414.901	612
415.11	546.47
415.318	491.17
415.526	593.57
415.734	503.46
415.943	573.09
416.151	718.5
416.359	636.58
416.567	659.1
416.776	669.34
416.984	706.21
417.192	751.26
417.4	749.22
417.608	804.51
417.817	831.13
418.025	833.18
418.233	904.86
418.441	937.63
418.649	980.64
418.857	972.44
419.065	1046.17
419.273	980.64
419.481	1066.65
419.689	1175.19
419.897	1193.62
420.105	1216.15
420.313	1228.44
420.521	1205.91
420.729	1277.59
420.937	1392.28
421.145	1386.13
421.353	1439.38
421.561	1404.57
421.769	1568.4
421.977	1678.99
422.185	1599.12
422.393	1724.05
422.601	1808.02
422.809	1836.69
423.017	1765.01
423.224	1879.69
423.432	2068.11
423.64	1904.27
423.848	2137.74
424.056	2002.57
424.263	2268.81
424.471	2244.23
424.679	2277
424.887	2506.37
425.094	2508.42
425.302	2543.24
425.51	2551.43
425.718	2643.59
425.925	2664.07
426.133	2844.29
426.341	2838.14
426.548	3110.52
426.756	3020.41
426.964	3167.87
427.171	3325.56
427.379	3311.22
427.586	3325.56
427.794	3556.98
428.001	3671.67
428.209	3913.33
428.417	3847.79
428.624	4089.45
428.832	4216.43
429.039	4046.44
429.247	4058.73
429.454	4472.42
429.662	4793.95
429.869	4589.16
430.076	4834.91
430.284	4703.84
430.491	4927.07
430.699	5217.88
430.906	5461.59
431.114	5115.48
431.321	5498.45
431.528	5467.74
431.736	5860.95
431.943	5987.92
432.15	5883.47
432.358	6041.17
432.565	6360.65
432.772	6350.41
432.979	6647.37
433.187	6698.56
433.394	6790.72
433.601	7198.27
433.808	7308.86
434.016	7321.15
434.223	7605.81
434.43	8082.99
434.637	7865.91
434.844	8236.59
435.052	8705.57
435.259	8377.9
435.466	8515.11
435.673	8371.75
435.88	9057.82
436.087	9498.14
436.294	9436.7
436.501	9168.41
436.708	9473.56
436.915	9897.49
437.122	10296.85
437.329	10186.26
437.537	10376.72
437.743	10788.36
437.95	10362.38
438.157	11169.28
438.364	11582.97
438.571	11642.36
438.778	11527.67
438.985	12766.7
439.192	12099.06
439.399	12672.49
439.606	12158.45
439.813	13041.12
440.02	13850.07
440.227	13628.89
440.433	13422.05
440.64	13659.61
440.847	13934.04
441.054	14138.83
441.261	15021.51
441.467	14882.25
441.674	15404.48
441.881	15773.11
442.088	15590.84
442.294	15795.64
442.501	15818.17
442.708	16457.14
442.914	16977.32
443.121	17649.05
443.328	17178.02
443.534	18369.94
443.741	18105.75
443.948	17720.73
444.154	18804.11
444.361	18711.95
444.568	19260.8
444.774	19076.49
444.981	18924.94
445.187	19948.92
445.394	20465.01
445.6	20407.67
445.807	22347.09
446.013	21417.32
446.22	21869.92
446.426	22904.14
446.633	22736.21
446.839	23618.88
447.046	22986.06
447.252	24124.73
447.459	23887.17
447.665	24018.24
447.871	25089.32
448.078	25750.82
448.284	24544.56
448.491	25578.79
448.697	26496.28
448.903	26887.44
449.11	26948.88
449.316	26524.95
449.522	27051.28
449.728	28024.06
449.935	28134.65
450.141	28116.22
450.347	28738.8
450.553	27858.18
450.76	28013.82
450.966	29050.1
451.172	28708.08
451.378	29656.29
451.584	28843.25
451.791	29721.83
451.997	29390.06
452.203	30127.33
452.409	30084.32
452.615	29916.39
452.821	28898.55
453.027	28470.52
453.233	29959.39
453.44	28929.27
453.646	29471.98
453.852	29412.59
454.058	29570.28
454.264	28906.74
454.47	29476.07
454.676	28695.8
454.882	29648.1
455.088	27350.28
455.294	27667.72
455.5	27976.96
455.705	28347.64
455.911	27215.12
456.117	26758.42
456.323	26133.79
456.529	24689.97
456.735	25777.44
456.941	25500.97
457.147	24677.68
457.352	24352.06
457.558	23913.79
457.764	24067.39
457.97	23573.83
458.176	23104.84
458.381	22957.39
458.587	21710.18
458.793	21753.18
458.999	20854.12
459.204	22183.26
459.41	21681.5
459.616	20301.17
459.821	20082.04
460.027	20260.21
460.233	20075.9
460.438	18675.09
460.644	19023.24
460.85	18193.81
461.055	17837.47
461.261	17585.57
461.466	16477.62
461.672	16045.49
461.878	17147.3
462.083	15828.41
462.289	15844.79
462.494	15173.06
462.7	14978.5
462.905	14425.55
463.111	15015.37
463.316	15052.23
463.522	14693.83
463.727	14626.25
463.932	14638.54
464.138	14677.45
464.343	14560.72
464.549	14054.87
464.754	14450.13
464.959	14417.36
465.165	14274
465.37	13680.09
465.575	13383.13
465.781	14093.78
465.986	14124.5
466.191	13581.79
466.397	13311.46
466.602	12692.97
466.807	12957.16
467.012	13239.78
467.218	12975.59
467.423	12838.37
467.628	12830.18
467.833	13530.59
468.038	12957.16
468.244	12836.33
468.449	13166.05
468.654	12776.94
468.859	12486.12
469.064	12559.85
469.269	11984.37
469.474	12191.22
469.679	12340.72
469.885	12146.16
470.09	12183.02
470.295	12107.25
470.5	12033.52
470.705	11906.55
470.91	11505.15
471.115	11320.83
471.32	11910.64
471.525	11642.36
471.73	11333.12
471.935	11456
472.139	10976.77
472.344	11060.74
472.549	10960.39
472.754	11011.59
472.959	10982.92
473.164	10575.37
473.369	10503.69
473.574	10558.99
473.778	10286.61
473.983	10540.55
474.188	10241.55
474.393	10159.63
474.598	9971.22
474.802	9774.61
475.007	9938.45
475.212	9852.44
475.417	9432.6
475.621	9532.95
475.826	9623.06
476.031	9479.71
476.235	9166.37
476.44	9387.55
476.645	9131.55
476.849	9258.53
477.054	9049.63
477.259	9059.87
477.463	8908.32
477.668	8863.27
477.872	8715.81
478.077	8574.5
478.282	8257.07
478.486	8197.68
478.691	8259.12
478.895	8281.64
479.1	8310.32
479.304	8379.95
479.509	8064.56
479.713	8220.21
479.918	8101.42
480.122	7951.92
480.326	8076.85
480.531	7990.83
480.735	7913.01
480.94	7861.81
481.144	7972.4
481.348	7767.6
481.553	7540.28
481.757	7546.42
481.961	7657.01
482.166	7661.11
482.37	7767.6
482.574	7581.24
482.778	7601.72
482.983	7704.12
483.187	7702.07
483.391	7771.7
483.595	7579.19
483.8	7659.06
484.004	7730.74
484.208	7777.84
484.412	7712.31
484.616	7749.17
484.821	7749.17
485.025	7499.32
485.229	7810.61
485.433	7556.66
485.637	7718.45
485.841	7663.16
486.045	7702.07
486.249	7714.36
486.453	7689.78
486.657	7626.29
486.861	7632.44
487.065	7505.46
487.269	7546.42
487.473	7568.95
487.677	7865.91
487.881	7728.69
488.085	7691.83
488.289	7609.91
488.493	7730.74
488.697	7829.04
488.901	7634.49
489.105	7786.04
489.309	7730.74
489.512	7710.26
489.716	7712.31
489.92	7798.32
490.124	7648.82
490.328	7822.9
490.531	7835.19
490.735	7892.53
490.939	7796.28
491.143	7890.48
491.346	7810.61
491.55	7859.76
491.754	7865.91
491.958	8080.94
492.161	8080.94
492.365	8009.26
492.569	7978.54
492.772	8281.64
492.976	8142.38
493.18	8058.42
493.383	8422.95
493.587	8377.9
493.79	8459.82
493.994	8318.51
494.197	8459.82
494.401	8566.31
494.605	8373.8
494.808	8605.22
495.012	8781.35
495.215	8734.25
495.419	8619.56
495.622	8750.63
495.825	8824.36
496.029	8848.93
496.232	9227.81
496.436	8926.75
496.639	9070.11
496.843	9270.81
497.046	9391.64
497.249	9369.12
497.453	9573.91
497.656	9672.22
497.859	9401.88
498.063	9852.44
498.266	10014.23
498.469	9848.34
498.673	10020.37
498.876	10122.77
499.079	10104.34
499.282	10081.81
499.485	10554.89
499.689	10520.07
499.892	10567.18
500.095	10718.73
500.298	10808.84
500.501	10835.46
500.705	11009.54
500.908	11376.13
501.111	11386.36
501.314	11329.02
501.517	11804.15
501.72	11566.59
501.923	11671.03
502.126	11978.23
502.329	12135.92
502.532	12193.26
502.735	12215.79
502.938	12572.14
503.141	12871.14
503.344	12977.64
503.547	13032.93
503.75	12811.75
503.953	12924.39
504.156	13196.77
504.359	13442.53
504.562	13278.69
504.765	13641.18
504.968	14030.29
505.17	13827.54
505.373	14245.33
505.576	14509.52
505.779	14579.15
505.982	14521.81
506.185	14806.47
506.387	15076.8
506.59	14978.5
506.793	15095.24
506.996	15214.02
507.198	15662.52
507.401	15457.73
507.604	15738.3
507.807	16115.12
508.009	16068.02
508.212	16258.48
508.415	16477.62
508.617	16733.61
508.82	16756.14
509.022	16868.78
509.225	17081.77
509.428	17036.71
509.63	17096.1
509.833	17647.01
510.035	17911.19
510.238	17604
510.44	17966.49
510.643	18261.4
510.845	18351.51
511.048	18236.82
511.25	18627.98
511.453	18693.52
511.655	19244.42
511.858	19195.27
512.06	19344.77
512.262	19553.66
512.465	19582.34
512.667	19731.84
512.87	19961.21
513.072	20309.36
513.274	20579.7
513.477	20907.37
513.679	20723.05
513.881	20938.09
514.084	20919.66
514.286	21402.98
514.488	21548.39
514.69	21910.88
514.893	21984.6
515.095	22168.92
515.297	22410.58
515.499	22410.58
515.701	22504.79
515.904	23143.75
516.106	23092.55
516.308	23151.95
516.51	23184.71
516.712	23450.95
516.914	23772.48
517.116	24014.14
517.318	24159.55
517.52	24122.68
517.722	24499.51
517.925	24909.1
518.127	25027.88
518.329	25326.89
518.531	25025.84
518.733	25716
518.935	25845.02
519.136	25824.54
519.338	26127.64
519.54	26201.37
519.742	26719.51
519.944	26426.65
520.146	26895.63
520.348	27204.88
520.55	26963.22
520.752	27530.5
520.954	27647.24
521.155	27479.3
521.357	28230.91
521.559	28316.92
521.761	28656.89
521.963	28460.28
522.164	28808.44
522.366	28749.04
522.568	28955.89
522.77	29283.56
522.971	29752.55
523.173	29752.55
523.375	29770.98
523.576	29662.44
523.778	29883.62
523.98	30473.43
524.181	30334.17
524.383	30754.01
524.584	30577.88
524.786	30788.82
524.988	30711
525.189	30921.94
525.391	31276.24
525.592	31243.47
525.794	31630.54
525.995	31714.5
526.197	31689.93
526.398	31843.52
526.6	31960.26
526.801	31986.88
527.003	32316.61
527.204	32472.25
527.406	32652.47
527.607	32896.18
527.808	32734.39
528.01	32169.15
528.211	32691.38
528.412	33504.43
528.614	32701.62
528.815	32703.67
529.016	33285.29
529.218	33189.04
529.419	33092.79
529.62	33236.14
529.822	33012.91
530.023	33537.19
530.224	33172.66
530.425	33535.15
530.626	33434.8
530.828	33371.31
531.029	33932.45
531.23	33170.61
531.431	33465.52
531.632	33635.5
531.833	33633.45
532.035	34020.52
532.236	33850.53
532.437	33895.59
532.638	34004.13
532.839	33905.83
533.04	34294.94
533.241	33883.3
533.442	34546.84
533.643	34014.37
533.844	34038.95
534.045	34387.1
534.246	33705.13
534.447	34045.09
534.648	34024.61
534.849	34104.48
535.05	34165.92
535.251	34235.55
535.451	33932.45
535.652	34342.05
535.853	34088.1
536.054	34397.34
536.255	34489.5
536.456	34069.67
536.657	34997.4
536.857	34184.35
537.058	34112.67
537.259	34262.18
537.46	34358.43
537.66	34174.11
537.861	34370.72
538.062	34268.32
538.263	34536.6
538.463	34204.83
538.664	34008.23
538.865	34208.93
539.065	34426.01
539.266	34237.6
539.466	34374.81
539.667	34303.14
539.868	34550.94
540.068	34038.95
540.269	34184.35
540.469	34641.05
540.67	33973.41
540.87	34407.58
541.071	34622.62
541.271	34458.78
541.472	34266.27
541.672	34129.06
541.873	34196.64
542.073	33873.06
542.274	34477.21
542.474	34145.44
542.675	33705.13
542.875	34378.91
543.075	34026.66
543.276	33672.36
543.476	34426.01
543.676	34030.76
543.877	34518.17
544.077	34473.12
544.277	34139.3
544.478	34350.24
544.678	34325.66
544.878	34278.56
545.078	34182.31
545.279	33744.04
545.479	33834.15
545.679	34221.22
545.879	34272.42
546.079	33965.22
546.28	34182.31
546.48	33610.92
546.68	33973.41
546.88	34481.31
547.08	34014.37
547.28	33950.88
547.48	33934.5
547.68	34186.4
547.88	33846.44
548.081	34317.47
548.281	33907.88
548.481	33852.58
548.681	34227.36
548.881	34219.17
549.081	34081.95
549.28	33709.22
549.48	34034.85
549.68	33961.12
549.88	34604.19
550.08	33694.89
550.28	34178.21
550.48	33782.95
550.68	34276.51
550.88	34139.3
551.08	33879.21
551.279	33705.13
551.479	34026.66
551.679	33928.36
551.879	33553.58
552.079	34258.08
552.278	33975.46
552.478	33698.98
552.678	34077.86
552.878	33959.08
553.077	33809.57
553.277	33506.48
553.477	34045.09
553.676	33813.67
553.876	33778.86
554.076	33303.73
554.275	33680.55
554.475	33254.58
554.674	33828.01
554.874	33817.77
555.074	33311.92
555.273	33733.8
555.473	33721.51
555.672	33645.74
555.872	33688.74
556.071	33369.26
556.271	33719.46
556.47	33686.7
556.67	33498.28
556.869	33297.58
557.068	33399.98
557.268	33268.91
557.467	33375.41
557.667	33068.21
557.866	33170.61
558.065	33074.35
558.265	33100.98
558.464	33156.27
558.663	33518.76
558.863	32726.2
559.062	33287.34
559.261	32947.38
559.461	33670.31
559.66	32941.24
559.859	32931
560.058	32638.14
560.258	32896.18
560.457	32734.39
560.656	32808.12
560.855	32228.54
561.054	32865.46
561.253	32515.26
561.453	32613.56
561.652	32629.94
561.851	32695.48
562.05	32672.95
562.249	32296.13
562.448	32652.47
562.647	32588.99
562.846	32490.68
563.045	32668.86
563.244	32234.69
563.443	32173.25
563.642	31734.98
563.841	32199.87
564.04	32249.02
564.239	32117.95
564.438	31943.88
564.637	32126.14
564.836	32281.79
565.035	31761.61
565.234	31755.46
565.432	31599.82
565.631	31874.24
565.83	31786.18
566.029	31612.1
566.228	31593.67
566.427	31677.64
566.625	31331.53
566.824	31114.45
567.023	31538.38
567.222	31061.2
567.42	31241.42
567.619	30983.38
567.818	31319.24
568.016	31016.15
568.215	31098.06
568.414	31306.96
568.612	31077.58
568.811	31208.65
569.01	30977.23
569.208	30547.16
569.407	30975.19
569.605	30725.33
569.804	31126.74
570.002	30338.27
570.201	30745.81
570.4	30520.54
570.598	30696.66
570.797	30088.42
570.995	30463.19
571.193	30047.46
571.392	30651.61
571.59	29830.37
571.789	30248.16
571.987	29656.29
572.186	29977.83
572.384	29992.16
572.582	29873.38
572.781	29762.79
572.979	29402.35
573.177	29732.07
573.376	29719.78
573.574	29279.47
573.772	29922.53
573.971	29629.67
574.169	29394.15
574.367	29175.02
574.565	29271.28
574.763	29338.86
574.962	29127.92
575.16	29017.33
575.358	29179.12
575.556	28687.6
575.754	29035.76
575.952	28773.62
576.151	28597.49
576.349	28701.94
576.547	28314.87
576.745	28783.86
576.943	28550.39
577.141	28427.51
577.339	28411.13
577.537	28423.42
577.735	28378.36
577.933	28472.57
578.131	27981.06
578.329	27960.58
578.527	27780.35
578.725	28009.73
578.923	28032.25
579.121	27563.27
579.319	27837.7
579.516	27997.44
579.714	27618.57
579.912	27600.13
580.11	27315.47
580.308	27823.36
580.506	27450.63
580.704	27065.61
580.901	27526.41
581.099	27286.79
581.297	26854.67
581.495	27282.7
581.692	27149.58
581.89	26799.38
582.088	27112.72
582.285	26809.62
582.483	27088.14
582.681	27096.33
582.878	26772.75
583.076	26701.08
583.274	26807.57
583.471	26588.44
583.669	26709.27
583.866	26608.92
584.064	26639.64
584.262	26309.91
584.459	26891.54
584.657	26397.98
584.854	26443.03
585.052	25814.3
585.249	26367.26
585.447	26613.01
585.644	26158.36
585.841	26039.58
586.039	26352.92
586.236	25328.94
586.434	25752.87
586.631	25421.09
586.828	25578.79
587.026	25367.85
587.223	25683.23
587.42	25232.68
587.618	25238.83
587.815	25062.7
588.012	25148.71
588.21	24939.82
588.407	25541.92
588.604	24991.02
588.801	25064.75
588.999	25038.12
589.196	25095.47
589.393	24868.14
589.59	24565.04
589.787	24546.61
589.984	24266.04
590.182	24255.8
590.379	24554.8
590.576	24024.38
590.773	24560.95
590.97	24184.12
591.167	24403.25
591.364	23786.82
591.561	24356.15
591.758	24223.03
591.955	23962.94
592.152	24157.5
592.349	24014.14
592.546	23895.36
592.743	24110.39
592.94	23530.82
593.137	23625.03
593.334	23758.14
593.531	23215.43
593.727	23350.6
593.924	23422.28
594.121	23223.62
594.318	23364.93
594.515	22820.17
594.712	23579.97
594.908	22877.52
595.105	23088.46
595.302	22988.11
595.499	23065.93
595.696	22478.16
595.892	22476.12
596.089	22598.99
596.286	22660.43
596.482	22560.08
596.679	22527.31
596.876	22697.3
597.072	22310.23
597.269	22355.29
597.466	21994.84
597.662	22246.74
597.859	22351.19
598.055	21982.56
598.252	22037.85
598.448	22031.71
598.645	22013.27
598.841	21652.83
599.038	22029.66
599.234	21669.22
599.431	21253.48
599.627	21722.46
599.824	21790.05
600.02	21570.91
600.217	21658.98
600.413	21501.28
600.609	21241.19
600.806	21351.78
601.002	21220.71
601.198	21413.22
601.395	20956.52
601.591	21181.8
601.787	21155.18
601.984	20964.71
602.18	21116.26
602.376	20960.62
602.572	20850.03
602.769	20776.3
602.965	20688.24
603.161	20555.12
603.357	20385.14
603.553	20503.92
603.75	20663.66
603.946	20036.98
604.142	20542.83
604.338	20256.12
604.534	20065.66
604.73	19975.55
604.926	19850.62
605.122	20024.7
605.318	19840.38
605.514	19950.97
605.71	19926.39
605.906	19803.52
606.102	19637.63
606.298	19883.39
606.494	19840.38
606.69	19778.94
606.886	19856.76
607.082	19541.38
607.278	19494.27
607.474	19342.72
607.67	19563.9
607.866	19066.25
608.062	19615.1
608.257	19318.15
608.453	19099.02
608.649	19258.76
608.845	19170.69
609.041	19213.7
609.236	19066.25
609.432	19266.95
609.628	19248.52
609.824	19174.79
610.019	19049.86
610.215	19236.23
610.411	19013
610.606	18748.81
610.802	18945.42
610.998	18707.85
611.193	19021.19
611.389	18650.51
611.584	18812.3
611.78	18384.27
611.976	18754.96
612.171	18503.06
612.367	18492.82
612.562	18797.96
612.758	18402.71
612.953	18533.78
613.149	18589.07
613.344	18204.05
613.539	18683.28
613.735	18326.93
613.93	18625.93
614.126	18273.68
614.321	18558.35
614.517	18337.17
614.712	18412.95
614.907	18001.3
615.103	18251.16
615.298	18093.46
615.493	18324.88
615.688	17728.92
615.884	18361.75
616.079	18027.93
616.274	18181.53
616.47	17960.34
616.665	18056.6
616.86	17888.67
617.055	18001.3
617.25	17849.75
617.445	18296.21
617.641	17626.53
617.836	17630.62
618.031	17696.16
618.226	17694.11
618.421	17583.52
618.616	17542.56
618.811	17442.21
619.006	17571.23
619.201	17206.69
619.396	17354.15
619.591	17190.31
619.786	17372.58
619.981	16879.02
620.176	17137.06
620.371	16653.74
620.566	16692.65
620.761	16717.23
620.956	16997.8
621.151	16897.45
621.346	16725.42
621.541	16504.24
621.735	16625.07
621.93	16584.11
622.125	16465.33
622.32	16328.11
622.515	16440.75
622.709	16252.34
622.904	16102.84
623.099	15893.94
623.294	15998.39
623.488	15869.37
623.683	15699.39
623.878	15441.34
624.072	15658.43
624.267	15691.2
624.462	15459.77
624.656	15502.78
624.851	15519.17
625.046	15074.76
625.24	15136.2
625.435	15105.48
625.629	15117.76
625.824	15123.91
626.018	14769.61
626.213	14691.79
626.407	14796.23
626.602	14552.52
626.796	14433.74
626.991	14607.82
627.185	14642.64
627.38	14429.65
627.574	14200.27
627.768	14230.99
627.963	14009.81
628.157	13917.65
628.352	13970.9
628.546	13768.15
628.74	13805.02
628.935	13475.29
629.129	13743.58
629.323	13559.26
629.517	13442.53
629.712	13299.17
629.906	13290.98
630.1	13368.8
630.294	13589.98
630.489	13229.54
630.683	13143.52
630.877	13114.85
631.071	12975.59
631.265	13092.32
631.459	12793.32
631.653	12740.07
631.848	12645.87
632.042	12834.28
632.236	12621.29
632.43	12416.49
632.624	12742.12
632.818	12416.49
633.012	12232.18
633.206	12273.14
633.4	12162.55
633.594	12234.22
633.788	12013.04
633.982	12146.16
634.176	12092.91
634.369	12000.76
634.563	12017.14
634.757	11851.25
634.951	11841.01
635.145	11771.38
635.339	11904.5
635.533	11650.55
635.726	11578.87
635.92	11257.34
636.114	11486.72
636.308	11189.76
636.501	11445.76
636.695	11394.56
636.889	11234.82
637.083	11136.51
637.276	11068.93
637.47	10898.95
637.664	10739.21
637.857	10833.41
638.051	11019.78
638.244	10800.65
638.438	10661.38
638.632	10706.44
638.825	10542.6
639.019	10462.73
639.212	10466.83
639.406	10704.39
639.599	10284.56
639.793	10495.5
639.986	10165.78
640.18	10487.31
640.373	10335.76
640.567	10208.78
640.76	10241.55
640.954	10133.01
641.147	10014.23
641.34	9819.67
641.534	9895.44
641.727	9756.18
641.92	10032.66
642.114	9692.69
642.307	9823.76
642.5	9850.39
642.694	9557.53
642.887	9557.53
643.08	9756.18
643.273	9758.23
643.467	9618.97
643.66	9346.59
643.853	9379.36
644.046	9203.23
644.239	9246.24
644.432	9125.41
644.626	8996.39
644.819	9248.29
645.012	9207.33
645.205	9180.7
645.398	9023.01
645.591	8936.99
645.784	8967.71
645.977	8904.23
646.17	8732.2
646.363	8828.45
646.556	8814.12
646.749	8664.61
646.942	8635.94
647.135	8537.64
647.328	8642.09
647.521	8363.56
647.714	8453.67
647.907	8515.11
648.099	8316.46
648.292	8539.69
648.485	8402.47
648.678	8267.31
648.871	8273.45
649.064	8324.65
649.256	8371.75
649.449	8039.98
649.642	8156.72
649.835	7736.88
650.027	7976.5
650.22	7829.04
650.413	8005.17
650.605	7972.4
650.798	7765.56
650.991	7648.82
651.183	7949.87
651.376	7779.89
651.568	7749.17
651.761	7640.63
651.954	7599.67
652.146	7501.37
652.339	7614.01
652.531	7417.4
652.724	7460.41
652.916	7306.81
653.109	7128.64
653.301	7427.64
653.494	7398.97
653.686	7073.34
653.879	7274.04
654.071	7319.1
654.263	7233.08
654.456	7165.5
654.648	7009.86
654.84	6889.03
655.033	6891.07
655.225	7024.19
655.417	6932.03
655.61	6784.58
655.802	6798.91
655.994	6923.84
656.186	6823.49
656.379	6774.34
656.571	6688.32
656.763	6780.48
656.955	6671.94
657.148	6723.14
657.34	6661.7
657.532	6563.4
657.724	6440.52
657.916	6499.91
658.108	6532.68
658.3	6334.03
658.492	6413.9
658.684	6334.03
658.876	6403.66
659.068	6405.7
659.26	6258.25
659.452	6274.63
659.644	6102.61
659.836	6233.68
660.028	6260.3
660.22	5977.68
660.412	6174.28
660.604	5965.39
660.796	6139.47
660.988	6096.46
661.18	5938.77
661.372	5992.02
661.563	5903.95
661.755	5934.67
661.947	5848.66
662.139	5936.72
662.331	5824.08
662.522	5779.03
662.714	5797.46
662.906	5711.44
663.097	5715.54
663.289	5797.46
663.481	5637.72
663.673	5678.68
663.864	5566.04
664.056	5549.65
664.247	5518.93
664.439	5453.4
664.631	5543.51
664.822	5545.56
665.014	5490.26
665.205	5301.85
665.397	5285.47
665.588	5447.26
665.78	5273.18
665.971	5359.19
666.163	5273.18
666.354	5301.85
666.546	5318.23
666.737	5424.73
666.929	5221.98
667.12	5119.58
667.311	5129.82
667.503	5193.31
667.694	5142.11
667.885	5023.33
668.077	5043.81
668.268	5015.13
668.459	5062.24
668.651	5092.96
668.842	4879.97
669.033	4908.64
669.224	5047.9
669.416	5058.14
669.607	4939.36
669.798	4875.87
669.989	4984.41
670.18	4863.58
670.371	4933.22
670.563	5039.71
670.754	4781.67
670.945	4679.27
671.136	4781.67
671.327	4877.92
671.518	4628.07
671.709	4718.18
671.9	4812.39
672.091	4701.79
672.282	4617.83
672.473	4562.53
672.664	4548.2
672.855	4513.38
673.046	4529.77
673.237	4646.5
673.428	4580.96
673.619	4564.58
673.809	4585.06
674	4497
674.191	4429.42
674.382	4507.24
674.573	4439.65
674.764	4433.51
674.954	4470.37
675.145	4316.78
675.336	4398.7
675.527	4400.74
675.717	4206.19
675.908	4251.24
676.099	4339.3
676.289	4294.25
676.48	4216.43
676.671	4191.85
676.861	4359.78
677.052	4302.44
677.243	4091.5
677.433	4245.1
677.624	4341.35
677.814	4318.82
678.005	4333.16
678.195	4140.65
678.386	4136.56
678.576	4279.91
678.767	4011.63
678.957	4228.71
679.148	4130.41
679.338	4269.67
679.529	4021.87
679.719	4134.51
679.909	4111.98
680.1	4200.04
680.29	4077.16
680.481	4148.84
680.671	4048.49
680.861	4232.81
681.052	4030.06
681.242	3933.81
681.432	3962.48
681.622	4085.36
681.813	3960.43
682.003	3970.67
682.193	3964.53
682.383	3935.85
682.573	3919.47
682.764	3866.22
682.954	3999.34
683.144	3862.13
683.334	3847.79
683.524	3884.66
683.714	4009.58
683.904	3878.51
684.094	3858.03
684.284	3794.54
684.474	3749.49
684.664	3880.56
684.854	3774.07
685.044	3841.65
685.234	3810.93
685.424	3769.97
685.614	3794.54
685.804	3614.32
685.994	3702.39
686.184	3743.35
686.374	3720.82
686.564	3663.47
686.753	3798.64
686.943	3626.61
687.133	3630.71
687.323	3526.26
687.513	3407.48
687.702	3546.74
687.892	3556.98
688.082	3511.93
688.272	3690.1
688.461	3524.21
688.651	3589.75
688.841	3487.35
689.03	3516.02
689.22	3307.13
689.41	3522.16
689.599	3337.85
689.789	3382.9
689.979	3393.14
690.168	3434.1
690.358	3284.6
690.547	3354.23
690.737	3434.1
690.926	3362.42
691.116	3284.6
691.305	3288.7
691.495	3243.64
691.684	3192.44
691.874	3305.08
692.063	3360.38
692.252	3366.52
692.442	3141.24
692.631	3198.59
692.82	3167.87
693.01	3108.48
693.199	3147.39
693.388	3085.95
693.578	3139.19
693.767	2999.93
693.956	3073.66
694.146	3034.75
694.335	2983.55
694.524	3016.32
694.713	3001.98
694.902	3012.22
695.092	3133.05
695.281	2956.93
695.47	2954.88
695.659	2903.68
695.848	2918.01
696.037	3090.04
696.226	2879.1
696.415	2971.26
696.604	2889.34
696.793	2965.12
696.982	2811.52
697.171	2987.65
697.36	2983.55
697.549	2774.66
697.738	2819.71
697.927	2854.53
698.116	2811.52
698.305	2821.76
698.494	2815.62
698.683	2797.18
698.872	2821.76
699.061	2702.98
699.25	2788.99
699.438	2674.31
699.627	2774.66
699.816	2817.66
700.005	2891.39
700.193	2707.07
700.382	2645.63
700.571	2803.33
700.76	2743.94
700.948	2690.69
701.137	2809.47
701.326	2614.91
701.514	2750.08
701.703	2743.94
701.892	2748.03
702.08	2668.16
702.269	2774.66
702.457	2588.29
702.646	2682.5
702.834	2555.52
703.023	2553.48
703.212	2772.61
703.4	2674.31
703.589	2639.49
703.777	2721.41
703.965	2584.2
704.154	2533
704.342	2596.48
704.531	2643.59
704.719	2621.06
704.907	2633.35
705.096	2639.49
705.284	2641.54
705.472	2483.84
705.661	2621.06
705.849	2717.31
706.037	2643.59
706.226	2645.63
706.414	2539.14
706.602	2565.76
706.79	2680.45
706.979	2590.34
707.167	2549.38
707.355	2449.03
707.543	2668.16
707.731	2563.72
707.919	2567.81
708.107	2477.7
708.296	2528.9
708.484	2539.14
708.672	2526.85
708.86	2573.96
709.048	2631.3
709.236	2625.15
709.424	2643.59
709.612	2645.63
709.8	2469.51
709.988	2573.96
710.176	2668.16
710.364	2576
710.551	2578.05
710.739	2590.34
710.927	2662.02
711.115	2592.39
711.303	2539.14
711.491	2543.24
711.679	2608.77
711.866	2502.28
712.054	2569.86
712.242	2518.66
712.43	2616.96
712.617	2635.39
712.805	2580.1
712.993	2629.25
713.181	2410.12
713.368	2586.24
713.556	2489.99
713.744	2440.84
713.931	2565.76
714.119	2590.34
714.306	2584.2
714.494	2678.4
714.682	2543.24
714.869	2522.76
715.057	2598.53
715.244	2567.81
715.432	2559.62
715.619	2596.48
715.807	2569.86
715.994	2504.32
716.182	2631.3
716.369	2602.63
716.556	2500.23
716.744	2557.57
716.931	2512.52
717.119	2584.2
717.306	2543.24
717.493	2508.42
717.681	2621.06
717.868	2535.04
718.055	2582.15
718.242	2473.6
718.43	2621.06
718.617	2444.93
718.804	2600.58
718.991	2637.44
719.179	2547.33
719.366	2559.62
719.553	2608.77
719.74	2586.24
719.927	2565.76
720.114	2530.95
720.301	2516.61
720.488	2440.84
720.676	2543.24
720.863	2635.39
721.05	2649.73
721.237	2606.72
721.424	2518.66
721.611	2461.32
721.798	2537.09
721.985	2500.23
722.172	2498.18
722.358	2524.8
722.545	2580.1
722.732	2619.01
722.919	2547.33
723.106	2506.37
723.293	2555.52
723.48	2487.94
723.667	2399.88
723.853	2449.03
724.04	2711.17
724.227	2598.53
724.414	2508.42
724.6	2502.28
724.787	2514.56
724.974	2623.11
725.161	2600.58
725.347	2518.66
725.534	2541.19
725.72	2608.77
725.907	2500.23
726.094	2551.43
726.28	2563.72
726.467	2705.03
726.653	2528.9
726.84	2506.37
727.027	2555.52
727.213	2414.21
727.4	2502.28
727.586	2438.79
727.773	2496.13
727.959	2455.17
728.145	2496.13
728.332	2600.58
728.518	2584.2
728.705	2705.03
728.891	2563.72
729.077	2567.81
729.264	2543.24
729.45	2637.44
729.636	2543.24
729.823	2467.46
730.009	2590.34
730.195	2533
730.382	2619.01
730.568	2588.29
730.754	2557.57
730.94	2524.8
731.126	2530.95
731.313	2481.8
731.499	2494.08
731.685	2518.66
731.871	2578.05
732.057	2530.95
732.243	2498.18
732.429	2596.48
732.615	2551.43
732.801	2539.14
732.987	2508.42
733.173	2600.58
733.359	2621.06
733.545	2610.82
733.731	2395.78
733.917	2549.38
734.103	2520.71
734.289	2551.43
734.475	2434.69
734.661	2563.72
734.847	2692.74
735.033	2518.66
735.219	2469.51
735.404	2479.75
735.59	2594.44
735.776	2576
735.962	2502.28
736.148	2528.9
736.333	2481.8
736.519	2424.45
736.705	2449.03
736.89	2416.26
737.076	2537.09
737.262	2559.62
737.447	2584.2
737.633	2381.45
737.819	2533
738.004	2371.21
738.19	2449.03
738.375	2576
738.561	2541.19
738.747	2410.12
738.932	2397.83
739.118	2449.03
739.303	2467.46
739.489	2520.71
739.674	2492.04
739.859	2494.08
740.045	2444.93
740.23	2350.73
740.416	2350.73
740.601	2373.25
740.786	2305.67
740.972	2242.18
741.157	2358.92
741.342	2363.01
741.528	2344.58
741.713	2336.39
741.898	2391.69
742.084	2279.05
742.269	2354.82
742.454	2274.95
742.639	2293.38
742.824	2348.68
743.01	2340.49
743.195	2360.97
743.38	2268.81
743.565	2262.66
743.75	2227.85
743.935	2281.1
744.12	2244.23
744.305	2242.18
744.49	2274.95
744.675	2277
744.86	2336.39
745.045	2293.38
745.23	2137.74
745.415	2121.35
745.6	2168.46
745.785	2211.46
745.97	2117.26
746.155	2166.41
746.34	2113.16
746.525	2123.4
746.71	2277
746.895	1973.9
747.079	2084.49
747.264	2156.17
747.449	2129.55
747.634	2197.13
747.819	1998.48
748.003	2014.86
748.188	2004.62
748.373	2123.4
748.557	2059.92
748.742	1912.46
748.927	2027.15
749.111	1904.27
749.296	1930.89
749.481	1914.51
749.665	1846.93
749.85	1937.04
750.034	1955.47
750.219	2002.57
750.404	1877.65
750.588	1840.78
750.773	1779.34
750.957	1863.31
751.141	1830.54
751.326	1830.54
751.51	1719.95
751.695	1793.68
751.879	1824.4
752.064	1828.49
752.248	1748.62
752.432	1773.2
752.617	1795.73
752.801	1719.95
752.985	1756.82
753.17	1681.04
753.354	1648.27
753.538	1685.14
753.722	1672.85
753.907	1642.13
754.091	1611.41
754.275	1627.79
754.459	1597.07
754.643	1588.88
754.828	1611.41
755.012	1535.64
755.196	1574.55
755.38	1623.7
755.564	1554.07
755.748	1466
755.932	1529.49
756.116	1525.4
756.3	1406.61
756.484	1490.58
756.668	1472.15
756.852	1429.14
757.036	1537.68
757.22	1431.19
757.404	1468.05
757.588	1494.68
757.772	1494.68
757.956	1445.52
758.14	1373.85
758.323	1261.21
758.507	1459.86
758.691	1423
758.875	1386.13
759.059	1404.57
759.242	1269.4
759.426	1332.89
759.61	1259.16
759.794	1306.26
759.977	1298.07
760.161	1371.8
760.345	1302.17
760.528	1418.9
760.712	1341.08
760.895	1359.51
761.079	1144.47
761.263	1207.96
761.446	1189.53
761.63	1271.45
761.813	1222.3
761.997	1185.43
762.18	1222.3
762.364	1207.96
762.547	1173.14
762.731	1230.49
762.914	1201.82
763.098	1167
763.281	1162.9
763.464	1179.29
763.648	1158.81
763.831	1177.24
764.015	1152.67
764.198	1171.1
764.381	1205.91
764.564	1164.95
764.748	1144.47
764.931	1128.09
765.114	935.58
765.297	1130.14
765.481	1115.8
765.664	1162.9
765.847	1150.62
766.03	1091.23
766.213	1121.95
766.397	1150.62
766.58	1115.8
766.763	1107.61
766.946	1040.03
767.129	1195.67
767.312	1076.89
767.495	1021.6
767.678	1035.93
767.861	1044.12
768.044	1072.79
768.227	1054.36
768.41	968.35
768.593	970.4
768.776	1023.64
768.959	986.78
769.142	1027.74
769.324	1035.93
769.507	1011.36
769.69	1015.45
769.873	990.88
770.056	1033.88
770.239	945.82
770.421	970.4
770.604	956.06
770.787	986.78
770.97	921.24
771.152	954.01
771.335	812.7
771.518	884.38
771.7	992.92
771.883	935.58
772.066	1011.36
772.248	1035.93
772.431	904.86
772.613	931.48
772.796	945.82
772.978	880.29
773.161	849.57
773.343	888.48
773.526	913.05
773.708	876.19
773.891	837.28
774.073	929.44
774.256	837.28
774.438	802.46
774.621	874.14
774.803	818.85
774.985	874.14
775.168	919.2
775.35	868
775.532	904.86
775.715	810.65
775.897	681.63
776.079	814.75
776.261	829.09
776.444	816.8
776.626	765.6
776.808	732.83
776.99	761.5
777.173	827.04
777.355	777.89
777.537	771.74
777.719	749.22
777.901	779.93
778.083	646.82
778.265	738.98
778.447	824.99
778.629	677.54
778.811	657.06
778.993	802.46
779.175	710.3
779.357	700.06
779.539	652.96
779.721	677.54
779.903	704.16
780.085	657.06
780.267	644.77
780.449	667.3
780.631	767.65
780.812	640.67
780.994	583.33
781.176	597.67
781.358	624.29
781.54	671.39
781.721	636.58
781.903	622.24
782.085	566.95
782.267	573.09
782.448	571.04
782.63	546.47
782.812	622.24
782.993	661.15
783.175	566.95
783.357	485.03
783.538	575.14
783.72	566.95
783.901	597.67
784.083	517.79
784.264	571.04
784.446	513.7
784.627	519.84
784.809	560.8
784.99	560.8
785.172	493.22
785.353	519.84
785.535	540.32
785.716	523.94
785.897	482.98
786.079	454.31
786.26	442.02
786.441	548.51
786.623	474.79
786.804	579.23
786.985	485.03
787.167	458.4
787.348	485.03
787.529	521.89
787.71	480.93
787.891	462.5
788.073	380.58
788.254	335.53
788.435	464.55
788.616	499.36
788.797	409.25
788.978	536.23
789.159	358.05
789.34	421.54
789.522	462.5
789.703	462.5
789.884	419.49
790.065	382.63
790.246	433.83
790.427	343.72
790.607	442.02
790.788	478.88
790.969	351.91
791.15	421.54
791.331	337.57
791.512	368.29
791.693	327.33
791.874	378.53
792.054	396.96
792.235	376.48
792.416	370.34
792.597	362.15
792.778	399.01
792.958	376.48
793.139	380.58
793.32	374.44
793.5	286.37
793.681	380.58
793.862	425.64
794.042	341.67
794.223	331.43
794.404	288.42
794.584	308.9
794.765	358.05
794.945	290.47
795.126	298.66
795.306	376.48
795.487	341.67
795.667	323.24
795.848	317.09
796.028	331.43
796.209	317.09
796.389	310.95
796.57	296.61
796.75	278.18
796.93	304.81
797.111	353.96
797.291	282.28
797.471	298.66
797.652	335.53
797.832	269.99
798.012	298.66
798.192	269.99
798.373	272.04
798.553	257.7
798.733	296.61
798.913	267.94
799.093	265.89
799.274	315.05
799.454	265.89
799.634	372.39
799.814	317.09
799.994	335.53
800.174	278.18
800.354	276.13
800.534	216.74
800.714	243.37
800.894	276.13
801.074	247.46
801.254	302.76
801.434	284.33
801.614	218.79
801.794	241.32
801.974	685.73
802.154	267.94
802.334	243.37
802.514	206.5
802.693	290.47
802.873	231.08
803.053	288.42
803.233	255.65
803.413	267.94
803.592	216.74
803.772	239.27
803.952	245.41
804.131	245.41
804.311	313
804.491	282.28
804.67	138.92
804.85	224.94
805.03	323.24
805.209	306.85
805.389	263.85
805.568	294.57
805.748	208.55
805.928	226.98
806.107	194.22
806.287	222.89
806.466	239.27
806.646	292.52
806.825	233.13
807.004	143.02
807.184	229.03
807.363	220.84
807.543	210.6
807.722	181.93
807.901	159.4
808.081	218.79
808.26	224.94
808.439	173.74
808.619	216.74
808.798	245.41
808.977	161.45
809.156	257.7
809.336	294.57
809.515	118.44
809.694	233.13
809.873	239.27
810.052	247.46
810.231	145.06
810.411	214.7
810.59	224.94
810.769	147.11
810.948	218.79
811.127	200.36
811.306	218.79
811.485	183.98
811.664	224.94
811.843	171.69
812.022	122.54
812.201	214.7
812.38	175.78
812.559	249.51
812.737	253.61
812.916	177.83
813.095	241.32
813.274	181.93
813.453	192.17
813.632	155.3
813.811	159.4
813.989	157.35
814.168	149.16
814.347	218.79
814.526	173.74
814.704	214.7
814.883	214.7
815.062	124.58
815.24	153.26
815.419	132.78
815.598	177.83
815.776	194.22
815.955	167.59
816.133	140.97
816.312	267.94
816.49	165.54
816.669	175.78
816.847	212.65
817.026	140.97
817.204	52.91
817.383	192.17
817.561	149.16
817.74	198.31
817.918	106.15
818.097	177.83
818.275	120.49
818.453	218.79
818.632	100.01
818.81	173.74
818.988	102.06
819.167	204.46
819.345	112.3
819.523	124.58
819.701	122.54
819.879	97.96
820.058	188.07
820.236	130.73
820.414	132.78
820.592	114.34
820.77	145.06
820.948	210.6
821.127	198.31
821.305	42.67
821.483	153.26
821.661	136.87
821.839	48.81
822.017	81.58
822.195	114.34
822.373	57
822.551	95.91
822.729	212.65
822.907	171.69
823.085	132.78
823.262	145.06
823.44	130.73
823.618	59.05
823.796	161.45
823.974	95.91
824.152	140.97
824.329	73.39
824.507	87.72
824.685	157.35
824.863	161.45
825.04	67.24
825.218	59.05
825.396	183.98
825.574	93.87
825.751	91.82
825.929	177.83
826.107	124.58
826.284	124.58
826.462	165.54
826.639	100.01
826.817	71.34
826.994	83.63
827.172	91.82
827.349	153.26
827.527	77.48
827.704	104.11
827.882	159.4
828.059	61.1
828.237	91.82
828.414	118.44
828.591	85.67
828.769	112.3
828.946	26.28
829.124	114.34
829.301	26.28
829.478	69.29
829.655	106.15
829.833	132.78
830.01	28.33
830.187	95.91
830.364	89.77
830.542	104.11
830.719	143.02
830.896	112.3
831.073	128.68
831.25	22.19
831.427	110.25
831.604	120.49
831.782	75.43
831.959	18.09
832.136	59.05
832.313	75.43
832.49	171.69
832.667	108.2
832.844	130.73
833.021	102.06
833.198	42.67
833.374	102.06
833.551	93.87
833.728	73.39
833.905	36.52
834.082	71.34
834.259	114.34
834.436	175.78
834.612	93.87
834.789	130.73
834.966	46.76
835.143	147.11
835.319	7.85
835.496	87.72
835.673	102.06
835.85	65.19
836.026	108.2
836.203	118.44
836.38	112.3
836.556	104.11
836.733	28.33
836.909	130.73
837.086	28.33
837.262	100.01
837.439	38.57
837.616	81.58
837.792	-29.01
837.968	67.24
838.145	48.81
838.321	63.15
838.498	73.39
838.674	100.01
838.851	81.58
839.027	95.91
839.203	85.67
839.38	124.58
839.556	71.34
839.732	81.58
839.909	69.29
840.085	106.15
840.261	3.75
840.437	83.63
840.614	87.72
840.79	122.54
840.966	73.39
841.142	38.57
841.318	38.57
841.494	57
841.671	147.11
841.847	50.86
842.023	85.67
842.199	79.53
842.375	-0.34
842.551	-14.68
842.727	40.62
842.903	128.68
843.079	110.25
843.255	122.54
843.431	114.34
843.607	83.63
843.783	48.81
843.959	130.73
844.134	48.81
844.31	-2.39
844.486	44.71
844.662	13.99
844.838	57
845.013	44.71
845.189	59.05
845.365	108.2
845.541	-22.87
845.716	36.52
845.892	100.01
846.068	83.63
846.244	3.75
846.419	140.97
846.595	77.48
846.77	16.04
846.946	97.96
847.122	73.39
847.297	-26.96
847.473	75.43
847.648	26.28
847.824	52.91
847.999	30.38
848.175	18.09
848.35	102.06
848.526	97.96
848.701	73.39
848.876	42.67
849.052	46.76
849.227	100.01
849.403	63.15
849.578	169.64
849.753	-35.16
849.929	36.52
850.104	13.99
850.279	77.48
850.454	151.21
850.63	93.87
850.805	30.38
850.98	65.19
851.155	42.67
851.33	52.91
851.505	-6.49
851.681	46.76
851.856	28.33
852.031	93.87
852.206	71.34
852.381	-12.63
852.556	22.19
852.731	83.63
852.906	118.44
853.081	108.2
853.256	73.39
853.431	110.25
853.606	44.71
853.781	-0.34
853.956	7.85
854.131	-12.63
854.305	36.52
854.48	75.43
854.655	24.23
854.83	18.09
855.005	59.05
855.18	32.43
855.354	116.39
855.529	67.24
855.704	13.99
855.879	-0.34
856.053	108.2
856.228	100.01
856.403	32.43
856.577	149.16
856.752	-18.77
856.926	71.34
857.101	-4.44
857.276	-0.34
857.45	11.95
857.625	97.96
857.799	63.15
857.974	26.28
858.148	59.05
858.323	-12.63
858.497	36.52
858.672	83.63
858.846	1.71
859.02	63.15
859.195	69.29
859.369	-29.01
859.543	97.96
859.718	48.81
859.892	26.28
860.066	79.53
860.241	18.09
860.415	20.14
860.589	87.72
860.763	34.47
860.938	34.47
861.112	3.75
861.286	50.86
861.46	52.91
861.634	18.09
861.808	36.52
861.982	20.14
862.157	34.47
862.331	42.67
862.505	59.05
862.679	-2.39
862.853	22.19
863.027	85.67
863.201	122.54
863.375	32.43
863.549	44.71
863.722	28.33
863.896	67.24
864.07	38.57
864.244	100.01
864.418	13.99
864.592	52.91
864.766	42.67
864.939	36.52
865.113	67.24
865.287	32.43
865.461	13.99
865.634	28.33
865.808	16.04
865.982	63.15
866.156	-16.73
866.329	3.75
866.503	110.25
866.676	-14.68
866.85	48.81
867.024	38.57
867.197	38.57
867.371	110.25
867.544	46.76
867.718	54.95
867.891	28.33
868.065	-61.78
868.238	46.76
868.412	11.95
868.585	30.38
868.759	-10.58
868.932	32.43
869.105	-37.2
869.279	24.23
869.452	-8.53
869.625	130.73
869.799	3.75
869.972	9.9
870.145	-10.58
870.319	65.19
870.492	3.75
870.665	28.33
870.838	52.91
871.011	-69.97
871.185	69.29
871.358	38.57
871.531	34.47
871.704	-20.82
871.877	44.71
872.05	11.95
872.223	3.75
872.396	54.95
872.569	7.85
872.742	40.62
872.915	108.2
873.088	-16.73
873.261	42.67
873.434	42.67
873.607	-12.63
873.78	24.23
873.953	26.28
874.126	16.04
874.299	36.52
874.471	22.19
874.644	30.38
874.817	42.67
874.99	106.15
875.163	-51.54
875.335	26.28
875.508	-16.73
875.681	52.91
875.853	32.43
876.026	48.81
876.199	59.05
876.371	59.05
876.544	57
876.717	36.52
876.889	40.62
877.062	73.39
877.234	-0.34
877.407	97.96
877.579	-26.96
877.752	57
877.924	79.53
878.097	81.58
878.269	16.04
878.442	120.49
878.614	-2.39
878.786	34.47
878.959	34.47
879.131	30.38
879.303	48.81
879.476	-39.25
879.648	44.71
879.82	-8.53
879.993	16.04
880.165	59.05
880.337	13.99
880.509	-24.92
880.681	-4.44
880.854	-33.11
881.026	36.52
881.198	106.15
881.37	20.14
881.542	-16.73
881.714	24.23
881.886	-14.68
882.058	75.43
882.23	52.91
882.402	-26.96
882.574	-2.39
882.746	-33.11
882.918	13.99
883.09	52.91
883.262	-53.59
883.434	9.9
883.606	57
883.778	32.43
883.95	3.75
884.122	13.99
884.293	40.62
884.465	16.04
884.637	97.96
884.809	-6.49
884.98	22.19
885.152	16.04
885.324	-2.39
885.496	3.75
885.667	1.71
885.839	11.95
886.011	-2.39
886.182	48.81
886.354	7.85
886.525	59.05
886.697	-37.2
886.869	18.09
887.04	79.53
887.212	13.99
887.383	52.91
887.555	-6.49
887.726	-57.68
887.897	30.38
888.069	22.19
888.24	61.1
888.412	83.63
888.583	-43.35
888.754	34.47
888.926	-51.54
889.097	16.04
889.268	-37.2
889.44	16.04
889.611	-78.16
889.782	-20.82
889.953	-31.06
890.125	71.34
890.296	77.48
890.467	5.8
890.638	-43.35
890.809	-20.82
890.98	-22.87
891.151	46.76
891.323	20.14
891.494	-37.2
891.665	-78.16
891.836	67.24
892.007	44.71
892.178	-12.63
892.349	57
892.52	-10.58
892.691	3.75
892.862	5.8
893.032	63.15
893.203	-8.53
893.374	32.43
893.545	-22.87
893.716	-33.11
893.887	-0.34
894.057	-39.25
894.228	-33.11
894.399	1.71
894.57	5.8
894.74	75.43
894.911	18.09
895.082	26.28
895.253	69.29
895.423	44.71
895.594	-26.96
895.764	-37.2
895.935	26.28
896.106	-39.25
896.276	52.91
896.447	22.19
896.617	7.85
896.788	28.33
896.958	52.91
897.129	-2.39
897.299	73.39
897.47	63.15
897.64	20.14
897.81	48.81
897.981	-20.82
898.151	42.67
898.322	1.71
898.492	9.9
898.662	36.52
898.832	26.28
899.003	13.99
899.173	61.1
899.343	-31.06
899.513	40.62
