Data from USB4F104151__41__12-27-21-974.txt Node

Date: Fri Mar 14 12:27:21 EDT 2025
User: louis
Spectrometer: USB4F10415
Trigger mode: 4
Integration Time (sec): 2.000000E-2
Scans to average: 1
Electric dark correction enabled: true
Nonlinearity correction enabled: false
Boxcar width: 0
XAxis mode: Wavelengths
Number of Pixels in Spectrum: 3648
>>>>>Begin Spectral Data<<<<<
178.204	-62.98
178.424	-62.98
178.644	-62.98
178.864	-99.84
179.084	-65.02
179.304	29.18
179.524	-30.21
179.744	-56.83
179.964	2.56
180.184	35.33
180.404	80.38
180.624	68.09
180.844	-11.78
181.064	-83.45
181.283	25.09
181.503	-75.26
181.723	16.9
181.943	-13.82
182.163	37.38
182.383	39.42
182.602	45.57
182.822	82.43
183.042	57.86
183.262	55.81
183.482	-36.35
183.701	41.47
183.921	-5.63
184.141	-19.97
184.361	-28.16
184.58	59.9
184.8	102.91
185.02	-17.92
185.239	39.42
185.459	-1.54
185.679	64
185.898	-26.11
186.118	-24.06
186.338	-3.58
186.557	61.95
186.777	27.14
186.997	18.94
187.216	-38.4
187.436	64
187.655	-1.54
187.875	43.52
188.095	45.57
188.314	61.95
188.534	18.94
188.753	-17.92
188.973	53.76
189.192	29.18
189.412	43.52
189.631	66.05
189.851	33.28
190.07	53.76
190.29	55.81
190.509	8.7
190.729	-9.73
190.948	78.33
191.168	147.97
191.387	-17.92
191.607	-13.82
191.826	53.76
192.045	-32.26
192.265	45.57
192.484	43.52
192.704	-5.63
192.923	-34.3
193.142	57.86
193.362	104.96
193.581	8.7
193.8	-13.82
194.02	0.51
194.239	4.61
194.458	61.95
194.678	-26.11
194.897	12.8
195.116	-19.97
195.335	-5.63
195.555	-7.68
195.774	-34.3
195.993	4.61
196.212	-9.73
196.432	102.91
196.651	41.47
196.87	20.99
197.089	51.71
197.308	57.86
197.528	35.33
197.747	18.94
197.966	47.62
198.185	45.57
198.404	-9.73
198.623	-7.68
198.842	-22.02
199.062	80.38
199.281	113.15
199.5	4.61
199.719	70.14
199.938	27.14
200.157	102.91
200.376	-17.92
200.595	70.14
200.814	20.99
201.033	2.56
201.252	70.14
201.471	39.42
201.69	-1.54
201.909	10.75
202.128	68.09
202.347	-3.58
202.566	-7.68
202.785	8.7
203.004	-1.54
203.223	92.67
203.442	86.53
203.661	29.18
203.879	18.94
204.098	66.05
204.317	-38.4
204.536	94.72
204.755	10.75
204.974	107.01
205.193	37.38
205.411	78.33
205.63	104.96
205.849	51.71
206.068	14.85
206.287	35.33
206.505	80.38
206.724	27.14
206.943	41.47
207.162	20.99
207.381	74.24
207.599	16.9
207.818	98.81
208.037	-9.73
208.255	76.29
208.474	10.75
208.693	20.99
208.911	45.57
209.13	20.99
209.349	0.51
209.567	37.38
209.786	80.38
210.005	41.47
210.223	-15.87
210.442	-3.58
210.661	39.42
210.879	25.09
211.098	6.66
211.316	-34.3
211.535	20.99
211.753	86.53
211.972	84.48
212.191	23.04
212.409	18.94
212.628	8.7
212.846	64
213.065	31.23
213.283	51.71
213.502	78.33
213.72	64
213.938	33.28
214.157	-13.82
214.375	37.38
214.594	-77.31
214.812	70.14
215.031	23.04
215.249	74.24
215.467	20.99
215.686	57.86
215.904	39.42
216.122	82.43
216.341	2.56
216.559	100.86
216.778	37.38
216.996	53.76
217.214	66.05
217.432	12.8
217.651	43.52
217.869	8.7
218.087	59.9
218.306	10.75
218.524	-1.54
218.742	29.18
218.96	72.19
219.179	92.67
219.397	-5.63
219.615	47.62
219.833	74.24
220.051	55.81
220.27	121.34
220.488	45.57
220.706	61.95
220.924	18.94
221.142	57.86
221.36	59.9
221.578	-30.21
221.796	39.42
222.015	96.77
222.233	-52.74
222.451	98.81
222.669	-103.93
222.887	70.14
223.105	0.51
223.323	27.14
223.541	41.47
223.759	47.62
223.977	80.38
224.195	98.81
224.413	51.71
224.631	61.95
224.849	10.75
225.067	64
225.285	31.23
225.503	43.52
225.721	-7.68
225.939	6.66
226.157	59.9
226.375	107.01
226.592	37.38
226.81	8.7
227.028	41.47
227.246	74.24
227.464	4.61
227.682	150.01
227.9	94.72
228.117	-15.87
228.335	68.09
228.553	43.52
228.771	53.76
228.989	94.72
229.206	43.52
229.424	-44.54
229.642	35.33
229.86	-32.26
230.077	-34.3
230.295	29.18
230.513	6.66
230.731	10.75
230.948	14.85
231.166	109.05
231.384	-32.26
231.601	39.42
231.819	55.81
232.037	37.38
232.254	8.7
232.472	80.38
232.689	-34.3
232.907	82.43
233.125	37.38
233.342	78.33
233.56	27.14
233.777	33.28
233.995	61.95
234.213	53.76
234.43	55.81
234.648	49.66
234.865	98.81
235.083	20.99
235.3	6.66
235.518	68.09
235.735	53.76
235.953	72.19
236.17	18.94
236.388	23.04
236.605	-26.11
236.822	70.14
237.04	-13.82
237.257	51.71
237.475	-11.78
237.692	57.86
237.909	45.57
238.127	29.18
238.344	92.67
238.562	143.87
238.779	14.85
238.996	6.66
239.214	37.38
239.431	88.57
239.648	18.94
239.865	68.09
240.083	-24.06
240.3	41.47
240.517	23.04
240.735	14.85
240.952	88.57
241.169	129.53
241.386	33.28
241.603	29.18
241.821	-1.54
242.038	82.43
242.255	47.62
242.472	82.43
242.689	12.8
242.907	4.61
243.124	16.9
243.341	27.14
243.558	25.09
243.775	33.28
243.992	-9.73
244.209	66.05
244.426	2.56
244.643	102.91
244.86	0.51
245.078	70.14
245.295	154.11
245.512	4.61
245.729	33.28
245.946	64
246.163	57.86
246.38	27.14
246.597	25.09
246.814	-11.78
247.031	66.05
247.248	0.51
247.464	72.19
247.681	117.25
247.898	23.04
248.115	12.8
248.332	27.14
248.549	6.66
248.766	68.09
248.983	55.81
249.2	-17.92
249.417	41.47
249.633	33.28
249.85	59.9
250.067	84.48
250.284	53.76
250.501	-15.87
250.717	47.62
250.934	0.51
251.151	8.7
251.368	25.09
251.585	135.68
251.801	-1.54
252.018	-34.3
252.235	16.9
252.451	8.7
252.668	18.94
252.885	27.14
253.102	45.57
253.318	33.28
253.535	37.38
253.752	35.33
253.968	49.66
254.185	64
254.401	14.85
254.618	82.43
254.835	53.76
255.051	111.1
255.268	-15.87
255.484	61.95
255.701	25.09
255.917	100.86
256.134	0.51
256.351	23.04
256.567	-1.54
256.784	-3.58
257	-19.97
257.217	66.05
257.433	39.42
257.65	39.42
257.866	39.42
258.082	33.28
258.299	-56.83
258.515	64
258.732	0.51
258.948	-32.26
259.165	10.75
259.381	49.66
259.597	12.8
259.814	-42.5
260.03	14.85
260.246	37.38
260.463	8.7
260.679	86.53
260.895	78.33
261.112	43.52
261.328	-19.97
261.544	14.85
261.761	78.33
261.977	72.19
262.193	23.04
262.409	51.71
262.626	2.56
262.842	29.18
263.058	66.05
263.274	100.86
263.49	25.09
263.707	94.72
263.923	45.57
264.139	-13.82
264.355	-36.35
264.571	43.52
264.787	14.85
265.004	31.23
265.22	-40.45
265.436	84.48
265.652	12.8
265.868	78.33
266.084	57.86
266.3	57.86
266.516	-24.06
266.732	27.14
266.948	16.9
267.164	72.19
267.38	4.61
267.596	68.09
267.812	64
268.028	45.57
268.244	-26.11
268.46	82.43
268.676	4.61
268.892	80.38
269.108	74.24
269.324	2.56
269.54	-36.35
269.756	88.57
269.972	27.14
270.188	104.96
270.403	61.95
270.619	98.81
270.835	20.99
271.051	12.8
271.267	-1.54
271.483	23.04
271.698	-7.68
271.914	88.57
272.13	39.42
272.346	80.38
272.562	31.23
272.777	41.47
272.993	39.42
273.209	20.99
273.425	59.9
273.64	29.18
273.856	35.33
274.072	-15.87
274.287	88.57
274.503	66.05
274.719	-5.63
274.934	16.9
275.15	-17.92
275.366	25.09
275.581	29.18
275.797	35.33
276.012	35.33
276.228	4.61
276.444	100.86
276.659	70.14
276.875	-7.68
277.09	35.33
277.306	-54.78
277.521	27.14
277.737	72.19
277.952	57.86
278.168	53.76
278.383	39.42
278.599	-17.92
278.814	29.18
279.03	-22.02
279.245	90.62
279.461	31.23
279.676	-3.58
279.892	-32.26
280.107	-5.63
280.322	-30.21
280.538	35.33
280.753	-9.73
280.969	20.99
281.184	49.66
281.399	104.96
281.615	8.7
281.83	27.14
282.045	-17.92
282.26	94.72
282.476	51.71
282.691	29.18
282.906	12.8
283.122	53.76
283.337	-13.82
283.552	33.28
283.767	78.33
283.983	66.05
284.198	-7.68
284.413	51.71
284.628	20.99
284.843	6.66
285.058	51.71
285.274	43.52
285.489	39.42
285.704	47.62
285.919	-9.73
286.134	66.05
286.349	-34.3
286.564	6.66
286.779	55.81
286.995	55.81
287.21	-9.73
287.425	55.81
287.64	37.38
287.855	27.14
288.07	14.85
288.285	72.19
288.5	100.86
288.715	18.94
288.93	35.33
289.145	-22.02
289.36	74.24
289.575	-15.87
289.79	68.09
290.004	45.57
290.219	-3.58
290.434	-19.97
290.649	-50.69
290.864	4.61
291.079	45.57
291.294	0.51
291.509	-26.11
291.724	20.99
291.938	55.81
292.153	74.24
292.368	41.47
292.583	78.33
292.798	61.95
293.012	47.62
293.227	6.66
293.442	31.23
293.657	107.01
293.871	86.53
294.086	27.14
294.301	37.38
294.516	49.66
294.73	51.71
294.945	-15.87
295.16	-1.54
295.374	-9.73
295.589	70.14
295.804	66.05
296.018	53.76
296.233	100.86
296.447	47.62
296.662	-13.82
296.877	20.99
297.091	104.96
297.306	-30.21
297.52	14.85
297.735	35.33
297.949	66.05
298.164	-15.87
298.378	0.51
298.593	18.94
298.807	27.14
299.022	88.57
299.236	49.66
299.451	2.56
299.665	-1.54
299.88	72.19
300.094	45.57
300.309	18.94
300.523	29.18
300.737	10.75
300.952	55.81
301.166	33.28
301.381	27.14
301.595	12.8
301.809	-40.45
302.024	20.99
302.238	23.04
302.452	94.72
302.667	-42.5
302.881	25.09
303.095	113.15
303.309	4.61
303.524	-5.63
303.738	8.7
303.952	51.71
304.166	18.94
304.381	-17.92
304.595	25.09
304.809	39.42
305.023	64
305.237	18.94
305.452	102.91
305.666	20.99
305.88	41.47
306.094	23.04
306.308	47.62
306.522	-11.78
306.736	31.23
306.95	94.72
307.164	61.95
307.379	53.76
307.593	78.33
307.807	16.9
308.021	53.76
308.235	-24.06
308.449	61.95
308.663	-3.58
308.877	57.86
309.091	68.09
309.305	41.47
309.519	-44.54
309.733	47.62
309.947	2.56
310.161	29.18
310.374	35.33
310.588	115.2
310.802	41.47
311.016	49.66
311.23	-5.63
311.444	29.18
311.658	45.57
311.872	76.29
312.085	35.33
312.299	119.29
312.513	66.05
312.727	78.33
312.941	0.51
313.154	78.33
313.368	59.9
313.582	23.04
313.796	29.18
314.009	70.14
314.223	86.53
314.437	25.09
314.651	47.62
314.864	-52.74
315.078	31.23
315.292	80.38
315.505	33.28
315.719	100.86
315.933	90.62
316.146	43.52
316.36	66.05
316.573	37.38
316.787	0.51
317.001	82.43
317.214	10.75
317.428	-1.54
317.641	-5.63
317.855	37.38
318.068	4.61
318.282	2.56
318.495	51.71
318.709	82.43
318.922	102.91
319.136	31.23
319.349	55.81
319.563	-15.87
319.776	43.52
319.99	18.94
320.203	82.43
320.417	37.38
320.63	31.23
320.843	0.51
321.057	88.57
321.27	-11.78
321.483	8.7
321.697	61.95
321.91	6.66
322.124	-32.26
322.337	55.81
322.55	35.33
322.763	39.42
322.977	59.9
323.19	86.53
323.403	29.18
323.617	-30.21
323.83	61.95
324.043	23.04
324.256	47.62
324.469	-36.35
324.683	70.14
324.896	33.28
325.109	45.57
325.322	23.04
325.535	45.57
325.748	20.99
325.962	-5.63
326.175	8.7
326.388	29.18
326.601	27.14
326.814	12.8
327.027	64
327.24	68.09
327.453	29.18
327.666	-22.02
327.879	55.81
328.092	131.58
328.305	31.23
328.518	16.9
328.731	102.91
328.944	37.38
329.157	16.9
329.37	-7.68
329.583	90.62
329.796	12.8
330.009	6.66
330.222	70.14
330.435	70.14
330.648	35.33
330.861	27.14
331.073	51.71
331.286	18.94
331.499	113.15
331.712	12.8
331.925	51.71
332.138	43.52
332.35	29.18
332.563	-9.73
332.776	41.47
332.989	10.75
333.202	76.29
333.414	-7.68
333.627	12.8
333.84	66.05
334.053	61.95
334.265	14.85
334.478	31.23
334.691	-9.73
334.903	53.76
335.116	76.29
335.329	70.14
335.541	80.38
335.754	10.75
335.966	74.24
336.179	55.81
336.392	18.94
336.604	82.43
336.817	39.42
337.029	88.57
337.242	92.67
337.454	55.81
337.667	4.61
337.88	47.62
338.092	78.33
338.305	121.34
338.517	33.28
338.729	74.24
338.942	119.29
339.154	-50.69
339.367	51.71
339.579	35.33
339.792	49.66
340.004	23.04
340.217	-5.63
340.429	82.43
340.641	49.66
340.854	12.8
341.066	-38.4
341.278	74.24
341.491	86.53
341.703	49.66
341.915	-13.82
342.128	47.62
342.34	10.75
342.552	25.09
342.764	76.29
342.977	76.29
343.189	57.86
343.401	4.61
343.613	45.57
343.826	0.51
344.038	31.23
344.25	-9.73
344.462	51.71
344.674	27.14
344.886	-1.54
345.099	-7.68
345.311	-13.82
345.523	31.23
345.735	-22.02
345.947	-30.21
346.159	35.33
346.371	37.38
346.583	-5.63
346.795	127.49
347.007	-19.97
347.219	51.71
347.431	31.23
347.643	14.85
347.855	45.57
348.067	27.14
348.279	47.62
348.491	107.01
348.703	76.29
348.915	27.14
349.127	-17.92
349.339	80.38
349.551	16.9
349.763	53.76
349.975	25.09
350.187	43.52
350.399	70.14
350.61	111.1
350.822	39.42
351.034	55.81
351.246	14.85
351.458	27.14
351.669	78.33
351.881	129.53
352.093	39.42
352.305	135.68
352.517	-13.82
352.728	37.38
352.94	29.18
353.152	66.05
353.363	51.71
353.575	47.62
353.787	78.33
353.999	41.47
354.21	35.33
354.422	45.57
354.633	70.14
354.845	92.67
355.057	-1.54
355.268	25.09
355.48	84.48
355.692	66.05
355.903	-13.82
356.115	117.25
356.326	47.62
356.538	70.14
356.749	96.77
356.961	154.11
357.172	49.66
357.384	10.75
357.595	74.24
357.807	51.71
358.018	27.14
358.23	129.53
358.441	72.19
358.653	-3.58
358.864	-9.73
359.075	-11.78
359.287	49.66
359.498	64
359.709	74.24
359.921	53.76
360.132	72.19
360.344	51.71
360.555	27.14
360.766	35.33
360.977	-19.97
361.189	119.29
361.4	-9.73
361.611	111.1
361.823	90.62
362.034	37.38
362.245	-9.73
362.456	51.71
362.667	-9.73
362.879	29.18
363.09	78.33
363.301	156.16
363.512	23.04
363.723	33.28
363.935	107.01
364.146	14.85
364.357	47.62
364.568	127.49
364.779	-42.5
364.99	57.86
365.201	61.95
365.412	94.72
365.623	-5.63
365.834	-7.68
366.045	8.7
366.256	33.28
366.467	37.38
366.678	10.75
366.889	-32.26
367.1	-9.73
367.311	41.47
367.522	47.62
367.733	107.01
367.944	16.9
368.155	68.09
368.366	18.94
368.577	74.24
368.788	96.77
368.999	35.33
369.209	39.42
369.42	109.05
369.631	125.44
369.842	-5.63
370.053	82.43
370.264	129.53
370.474	90.62
370.685	43.52
370.896	82.43
371.107	49.66
371.317	43.52
371.528	57.86
371.739	27.14
371.95	27.14
372.16	-30.21
372.371	-9.73
372.582	20.99
372.792	47.62
373.003	39.42
373.214	61.95
373.424	70.14
373.635	78.33
373.846	70.14
374.056	68.09
374.267	66.05
374.477	6.66
374.688	41.47
374.898	78.33
375.109	45.57
375.319	37.38
375.53	61.95
375.74	39.42
375.951	80.38
376.161	-28.16
376.372	92.67
376.582	74.24
376.793	29.18
377.003	39.42
377.214	64
377.424	117.25
377.635	14.85
377.845	94.72
378.055	61.95
378.266	-36.35
378.476	61.95
378.686	80.38
378.897	49.66
379.107	86.53
379.317	80.38
379.528	35.33
379.738	121.34
379.948	66.05
380.158	70.14
380.369	18.94
380.579	137.73
380.789	12.8
380.999	55.81
381.21	2.56
381.42	90.62
381.63	2.56
381.84	98.81
382.05	33.28
382.261	-3.58
382.471	29.18
382.681	49.66
382.891	20.99
383.101	174.59
383.311	57.86
383.521	98.81
383.731	133.63
383.941	78.33
384.151	82.43
384.361	96.77
384.571	29.18
384.781	59.9
384.991	33.28
385.201	94.72
385.411	98.81
385.621	109.05
385.831	6.66
386.041	-62.98
386.251	29.18
386.461	49.66
386.671	20.99
386.881	113.15
387.091	-3.58
387.301	39.42
387.511	135.68
387.72	201.21
387.93	33.28
388.14	31.23
388.35	45.57
388.56	23.04
388.769	59.9
388.979	-30.21
389.189	6.66
389.399	94.72
389.609	102.91
389.818	59.9
390.028	61.95
390.238	88.57
390.447	49.66
390.657	109.05
390.867	92.67
391.076	41.47
391.286	78.33
391.496	76.29
391.705	53.76
391.915	150.01
392.125	2.56
392.334	47.62
392.544	49.66
392.753	78.33
392.963	39.42
393.172	59.9
393.382	61.95
393.591	61.95
393.801	53.76
394.01	135.68
394.22	80.38
394.429	64
394.639	59.9
394.848	82.43
395.058	129.53
395.267	78.33
395.477	117.25
395.686	70.14
395.895	121.34
396.105	133.63
396.314	109.05
396.524	145.92
396.733	80.38
396.942	78.33
397.152	86.53
397.361	111.1
397.57	55.81
397.78	51.71
397.989	90.62
398.198	123.39
398.407	12.8
398.617	102.91
398.826	139.77
399.035	76.29
399.244	76.29
399.453	145.92
399.663	49.66
399.872	88.57
400.081	100.86
400.29	150.01
400.499	209.4
400.708	143.87
400.917	14.85
401.127	98.81
401.336	82.43
401.545	143.87
401.754	90.62
401.963	111.1
402.172	102.91
402.381	70.14
402.59	111.1
402.799	61.95
403.008	104.96
403.217	39.42
403.426	176.64
403.635	49.66
403.844	109.05
404.053	141.82
404.262	70.14
404.471	137.73
404.68	84.48
404.888	88.57
405.097	127.49
405.306	49.66
405.515	147.97
405.724	121.34
405.933	111.1
406.142	119.29
406.35	174.59
406.559	190.97
406.768	139.77
406.977	170.49
407.185	141.82
407.394	190.97
407.603	209.4
407.812	221.69
408.02	244.22
408.229	240.12
408.438	156.16
408.646	84.48
408.855	215.55
409.064	205.31
409.272	240.12
409.481	266.75
409.69	252.41
409.898	229.88
410.107	270.84
410.315	217.6
410.524	291.32
410.733	231.93
410.941	262.65
411.15	242.17
411.358	313.85
411.567	295.42
411.775	322.04
411.984	336.38
412.192	301.56
412.401	385.53
412.609	387.58
412.818	397.82
413.026	371.19
413.234	426.49
413.443	403.96
413.651	403.96
413.86	389.63
414.068	475.64
414.276	518.65
414.485	510.46
414.693	594.42
414.901	487.93
415.11	541.18
415.318	578.04
415.526	639.48
415.734	592.37
415.943	635.38
416.151	659.96
416.359	694.77
416.567	692.73
416.776	662.01
416.984	750.07
417.192	831.99
417.4	680.44
417.608	840.18
417.817	897.52
418.025	883.19
418.233	877.04
418.441	950.77
418.649	948.72
418.857	956.91
419.065	1087.98
419.273	946.67
419.481	1231.34
419.689	1077.74
419.897	1130.99
420.105	1184.24
420.313	1153.52
420.521	1393.13
420.729	1282.54
420.937	1354.22
421.145	1374.7
421.353	1438.19
421.561	1503.72
421.769	1571.3
421.977	1661.41
422.185	1552.87
422.393	1647.08
422.601	1941.99
422.809	1790.44
423.017	1868.26
423.224	1862.12
423.432	1941.99
423.64	1948.13
423.848	2232.8
424.056	2077.15
424.263	2281.95
424.471	2228.7
424.679	2218.46
424.887	2466.27
425.094	2503.13
425.302	2511.32
425.51	2544.09
425.718	2701.78
425.925	2644.44
426.133	2798.04
426.341	2804.18
426.548	3123.66
426.756	2972.11
426.964	3193.3
427.171	3396.04
427.379	3459.53
427.586	3559.88
427.794	3582.41
428.001	3725.77
428.209	3832.26
428.417	3795.4
428.624	4059.59
428.832	4155.84
429.039	4094.4
429.247	4026.82
429.454	4495.8
429.662	4800.95
429.869	4495.8
430.076	4766.14
430.284	4680.12
430.491	4788.66
430.699	5102
430.906	5034.42
431.114	5265.84
431.321	5419.44
431.528	5527.98
431.736	5847.46
431.943	6076.84
432.15	5943.72
432.358	6119.84
432.565	6308.26
432.772	6357.41
432.979	6650.27
433.187	6859.16
433.394	6795.67
433.601	7176.59
433.808	7393.68
434.016	7334.29
434.223	7526.8
434.43	7883.14
434.637	7819.66
434.844	8397.18
435.052	8307.07
435.259	8434.05
435.466	8534.4
435.673	8479.1
435.88	8991.09
436.087	9439.6
436.294	9402.74
436.501	9187.7
436.708	9490.8
436.915	9685.36
437.122	10207.59
437.329	10252.64
437.537	10463.58
437.743	10510.69
437.95	10553.69
438.157	11135.32
438.364	11458.9
438.571	11544.91
438.778	11522.38
438.985	12765.5
439.192	12106.06
439.399	12618.05
439.606	12396.87
439.813	12912.95
440.02	13582.64
440.227	13556.02
440.433	13269.3
440.64	13801.77
440.847	13578.54
441.054	14197.03
441.261	15202.58
441.467	14993.69
441.674	15073.56
441.881	15651.09
442.088	15737.1
442.294	15421.72
442.501	16001.29
442.708	16208.14
442.914	16871.68
443.121	17697.01
443.328	17152.25
443.534	18458.85
443.741	18000.11
443.948	17787.12
444.154	18624.74
444.361	18936.03
444.568	18895.07
444.774	19163.36
444.981	18979.04
445.187	19785.94
445.394	20551.88
445.6	20291.79
445.807	22341.8
446.013	21651.64
446.22	21762.23
446.426	22792.36
446.633	22655.14
446.839	24080.53
447.046	22681.77
447.252	23902.36
447.459	24006.8
447.665	24008.85
447.871	24899.72
448.078	25897.08
448.284	24858.76
448.491	25528.44
448.697	26431.6
448.903	26802.28
449.11	27299.94
449.316	26585.19
449.522	27476.06
449.728	27562.08
449.935	28117.07
450.141	28139.6
450.347	28815.43
450.553	28076.12
450.76	28242
450.966	29009.99
451.172	28784.71
451.378	29423.68
451.584	29030.47
451.791	29810.75
451.997	29804.6
452.203	29990.97
452.409	29919.29
452.615	30036.02
452.821	28530.76
453.027	28264.53
453.233	29997.11
453.44	28964.93
453.646	29218.88
453.852	28899.4
454.058	29872.18
454.264	28985.41
454.47	29388.86
454.676	28680.27
454.882	29945.91
455.088	27117.67
455.294	27762.78
455.5	28002.39
455.705	28473.42
455.911	27150.43
456.117	26896.49
456.323	26591.34
456.529	24819.85
456.735	26073.2
456.941	25276.54
457.147	24670.34
457.352	24219.79
457.558	24029.33
457.764	23980.18
457.97	23431.32
458.176	22782.12
458.381	23117.98
458.587	21909.68
458.793	22098.09
458.999	20785.35
459.204	22263.98
459.41	21512.38
459.616	20232.4
459.821	20347.08
460.027	20216.01
460.233	19548.37
460.438	18915.55
460.644	19026.14
460.85	18022.64
461.055	18084.08
461.261	17961.2
461.466	16425.22
461.672	16060.68
461.878	17148.15
462.083	16015.63
462.289	15687.95
462.494	15673.62
462.7	14944.54
462.905	14487.84
463.111	15012.12
463.316	15042.84
463.522	14516.51
463.727	14838.05
463.932	14819.61
464.138	14588.19
464.343	14663.97
464.549	14137.64
464.754	14743.84
464.959	14563.62
465.165	14432.55
465.37	14043.43
465.575	13492.53
465.781	13969.71
465.986	14045.48
466.191	13476.15
466.397	13263.16
466.602	12484.93
466.807	13078.84
467.012	13121.85
467.218	13027.64
467.423	12945.72
467.628	12892.48
467.833	13588.78
468.038	12896.57
468.244	12529.98
468.449	12876.09
468.654	12429.63
468.859	12458.31
469.064	12570.94
469.269	12122.44
469.474	12192.07
469.679	12405.06
469.885	11936.07
470.09	12142.92
470.295	12273.99
470.5	11805
470.705	11864.39
470.91	11522.38
471.115	11436.37
471.32	11616.59
471.525	11579.73
471.73	11555.15
471.935	11260.24
472.139	11034.97
472.344	11016.54
472.549	10916.19
472.754	10815.83
472.959	10717.53
473.164	10205.54
473.369	10623.33
473.574	10527.07
473.778	10625.37
473.983	10471.78
474.188	10432.86
474.393	9881.96
474.598	9984.36
474.802	9873.77
475.007	9855.34
475.212	9730.41
475.417	9439.6
475.621	9539.95
475.826	9560.43
476.031	9425.26
476.235	9126.26
476.44	9320.82
476.645	9138.55
476.849	9111.92
477.054	8978.81
477.259	8972.66
477.463	9034.1
477.668	8759.67
477.872	8782.2
478.077	8778.11
478.282	8536.45
478.486	8305.03
478.691	8296.83
478.895	8294.79
479.1	8345.98
479.304	8386.94
479.509	7985.54
479.713	8176
479.918	8089.99
480.122	7911.82
480.326	7833.99
480.531	7999.88
480.735	7901.58
480.94	7741.83
481.144	8061.32
481.348	7514.51
481.553	7922.06
481.757	7623.05
481.961	7682.44
482.166	7670.15
482.37	7743.88
482.574	7582.09
482.778	7614.86
482.983	7790.99
483.187	7715.21
483.391	7725.45
483.595	7625.1
483.8	7578
484.004	7743.88
484.208	7537.04
484.412	7608.72
484.616	7696.78
484.821	7694.73
485.025	7545.23
485.229	7977.35
485.433	7657.87
485.637	7731.59
485.841	7578
486.045	7618.96
486.249	7639.44
486.453	7586.19
486.657	7528.85
486.861	7674.25
487.065	7336.34
487.269	7944.58
487.473	7473.55
487.677	7670.15
487.881	7747.98
488.085	7733.64
488.289	7625.1
488.493	7549.32
488.697	7631.24
488.901	7793.03
489.105	7639.44
489.309	7666.06
489.512	7661.96
489.716	7715.21
489.92	7819.66
490.124	7741.83
490.328	7960.97
490.531	7797.13
490.735	8051.08
490.939	7823.75
491.143	7623.05
491.346	7743.88
491.55	8032.65
491.754	7967.11
491.958	7788.94
492.161	7909.77
492.365	8116.61
492.569	7948.68
492.772	8055.17
492.976	7950.73
493.18	8268.16
493.383	8339.84
493.587	8333.7
493.79	8358.27
493.994	8284.55
494.197	8345.98
494.401	8485.25
494.605	8386.94
494.808	8698.24
495.012	8624.51
495.215	8675.71
495.419	8671.61
495.622	8452.48
495.825	8849.78
496.029	8833.4
496.232	8982.9
496.436	8905.08
496.639	9353.59
496.843	9161.08
497.046	9326.96
497.249	9199.99
497.453	9580.91
497.656	9494.9
497.859	9482.61
498.063	9738.6
498.266	9941.35
498.469	9943.4
498.673	10066.28
498.876	10109.29
499.079	10107.24
499.282	10234.21
499.485	10422.62
499.689	10406.24
499.892	10641.76
500.095	10572.13
500.298	10858.84
500.501	11061.59
500.705	11049.3
500.908	11186.52
501.111	11194.71
501.314	11194.71
501.517	11618.64
501.72	11755.85
501.923	11557.2
502.126	11923.79
502.329	12329.28
502.532	12200.26
502.735	12181.83
502.938	12382.53
503.141	12534.08
503.344	12865.85
503.547	12781.88
503.75	12951.87
503.953	13119.8
504.156	13347.12
504.359	13283.64
504.562	13599.02
504.765	13734.19
504.968	13996.33
505.17	13979.95
505.373	14020.91
505.576	14315.81
505.779	14332.2
505.982	14547.23
506.185	14782.75
506.387	14778.65
506.59	15087.9
506.793	15366.42
506.996	15094.04
507.198	15538.45
507.401	15575.31
507.604	15886.61
507.807	15907.09
508.009	16138.51
508.212	16259.34
508.415	16230.66
508.617	16701.7
508.82	16705.79
509.022	17004.8
509.225	17230.07
509.428	17182.97
509.63	17357.05
509.833	17367.29
510.035	17834.22
510.238	17709.3
510.44	17916.14
510.643	18358.5
510.845	18206.95
511.048	18151.66
511.25	18686.18
511.453	18858.21
511.655	19493.08
511.858	19212.51
512.06	19441.88
512.262	19552.47
512.465	19644.63
512.667	19964.11
512.87	20046.03
513.072	20043.98
513.274	20531.4
513.477	20615.37
513.679	21014.72
513.881	20951.23
514.084	21098.69
514.286	21246.14
514.488	21440.7
514.69	21954.74
514.893	22110.38
515.095	21893.3
515.297	22372.52
515.499	22624.42
515.701	22935.71
515.904	22997.15
516.106	23222.43
516.308	23425.18
516.51	23150.75
516.712	23478.43
516.914	23865.49
517.116	24344.72
517.318	24180.88
517.52	24127.63
517.722	24418.44
517.925	24959.11
518.127	25389.18
518.329	24975.49
518.531	25391.23
518.733	25393.28
518.935	25956.47
519.136	25919.6
519.338	26249.33
519.54	26122.35
519.742	26474.6
519.944	26308.72
520.146	26916.97
520.348	27310.18
520.55	27252.83
520.752	27203.68
520.954	27801.69
521.155	27818.07
521.357	28235.86
521.559	28262.48
521.761	28364.88
521.963	28594.25
522.164	28622.92
522.366	28760.14
522.568	28991.56
522.77	29308.99
522.971	29851.7
523.173	29417.54
523.375	29591.61
523.576	29925.43
523.778	29689.91
523.98	30314.55
524.181	29997.11
524.383	30496.81
524.584	30920.74
524.786	30832.68
524.988	30498.86
525.189	31248.42
525.391	31115.3
525.592	31281.19
525.794	31514.66
525.995	32057.37
526.197	31832.09
526.398	31774.75
526.6	32114.71
526.801	31977.5
527.003	32094.23
527.204	32405.52
527.406	32245.78
527.607	32161.81
527.808	32927.75
528.01	32448.53
528.211	32727.05
528.412	33437.7
528.614	33124.36
528.815	32946.19
529.016	33705.98
529.218	32946.19
529.419	33193.99
529.62	33497.09
529.822	33380.35
530.023	33251.33
530.224	33169.41
530.425	33542.14
530.626	33261.57
530.828	33437.7
531.029	33878.01
531.23	33644.54
531.431	33699.84
531.632	33705.98
531.833	33730.56
532.035	34099.19
532.236	33961.98
532.437	33751.04
532.638	34078.71
532.839	34260.98
533.04	34209.78
533.241	34109.43
533.442	34625.52
533.643	34435.06
533.844	34070.52
534.045	34236.41
534.246	33640.45
534.447	34363.38
534.648	34045.94
534.849	34363.38
535.05	34142.2
535.251	34453.49
535.451	34109.43
535.652	34224.12
535.853	34195.45
536.054	34250.74
536.255	34314.23
536.456	33835
536.657	34488.31
536.857	34283.51
537.058	34344.95
537.259	34701.29
537.46	34416.63
537.66	34222.07
537.861	34682.86
538.062	34228.21
538.263	34469.87
538.463	34400.24
538.664	34273.27
538.865	34504.69
539.065	34506.74
539.266	34230.26
539.466	34611.18
539.667	33933.31
539.868	34758.64
540.068	34103.29
540.269	34467.83
540.469	34506.74
540.67	34095.1
540.87	34234.36
541.071	34381.81
541.271	34428.91
541.472	34256.89
541.672	34281.46
541.873	34197.49
542.073	33363.97
542.274	34148.34
542.474	34402.29
542.675	33931.26
542.875	34338.8
543.075	34021.37
543.276	33368.07
543.476	34709.49
543.676	34004.99
543.877	34172.92
544.077	34277.36
544.277	33945.59
544.478	34060.28
544.678	34318.32
544.878	34271.22
545.078	34357.24
545.279	34164.73
545.479	34215.93
545.679	33964.03
545.879	34027.51
546.079	34041.85
546.28	34045.94
546.48	33826.81
546.68	33906.68
546.88	33824.76
547.08	34226.17
547.28	33787.9
547.48	33759.23
547.68	34154.49
547.88	33884.15
548.081	33828.86
548.281	34088.95
548.481	33603.58
548.681	34258.93
548.881	33898.49
549.081	33646.59
549.28	33570.82
549.48	34115.58
549.68	33941.5
549.88	34471.92
550.08	34009.08
550.28	33765.37
550.48	33974.27
550.68	34310.13
550.88	33835
551.08	34043.9
551.279	33816.57
551.479	33443.84
551.679	33587.2
551.879	33632.25
552.079	34334.71
552.278	33685.5
552.478	33988.6
552.678	34029.56
552.878	33861.63
553.077	33562.62
553.277	33679.36
553.477	34174.97
553.676	33779.71
553.876	33716.22
554.076	33525.76
554.275	33347.59
554.475	33282.05
554.674	33818.62
554.874	33478.66
555.074	33495.04
555.273	33402.88
555.473	33826.81
555.672	33146.89
555.872	33329.16
556.071	33740.8
556.271	33497.09
556.47	33271.81
556.67	33165.32
556.869	33388.55
557.068	33742.85
557.268	33234.95
557.467	33400.83
557.667	33056.78
557.866	32937.99
558.065	33452.03
558.265	33103.88
558.464	32966.66
558.663	33456.13
558.863	33024.01
559.062	33265.67
559.261	32872.46
559.461	33198.09
559.66	32571.41
559.859	33155.08
560.058	33075.21
560.258	32661.52
560.457	32473.1
560.656	32925.71
560.855	32512.02
561.054	32727.05
561.253	32659.47
561.453	32657.42
561.652	32866.31
561.851	32647.18
562.05	32788.49
562.249	32358.42
562.448	32919.56
562.647	32540.69
562.846	32473.1
563.045	32534.54
563.244	31844.38
563.443	32497.68
563.642	32174.1
563.841	32135.19
564.04	32108.57
564.239	32243.73
564.438	32286.74
564.637	31926.3
564.836	32110.61
565.035	31625.25
565.234	31588.38
565.432	31764.51
565.631	31711.26
565.83	31590.43
566.029	31496.22
566.228	31365.15
566.427	31246.37
566.625	31213.6
566.824	31115.3
567.023	31633.44
567.222	31217.7
567.42	31422.5
567.619	31215.65
567.818	31236.13
568.016	31045.67
568.215	31246.37
568.414	30980.14
568.612	31146.02
568.811	30695.47
569.01	30799.91
569.208	30500.91
569.407	30783.53
569.605	30435.38
569.804	30826.54
570.002	30478.38
570.201	30687.28
570.4	30404.66
570.598	30212.15
570.797	29929.53
570.995	30507.05
571.193	30105.65
571.392	30304.31
571.59	29818.94
571.789	29872.18
571.987	30267.44
572.186	30298.16
572.384	30025.78
572.582	29562.94
572.781	30222.39
572.979	29409.34
573.177	29599.8
573.376	29558.84
573.574	29583.42
573.772	30029.88
573.971	29216.83
574.169	29153.35
574.367	29358.14
574.565	29263.94
574.763	29091.91
574.962	29124.68
575.16	28950.6
575.358	29016.13
575.556	28801.1
575.754	29112.39
575.952	28680.27
576.151	28936.26
576.349	28528.72
576.547	28061.78
576.745	28416.08
576.943	28665.93
577.141	28541
577.339	28444.75
577.537	28604.49
577.735	28088.4
577.933	27924.57
578.131	28139.6
578.329	28024.92
578.527	27959.38
578.725	28035.16
578.923	28088.4
579.121	27963.48
579.319	27723.86
579.516	28078.16
579.714	27578.46
579.912	27877.46
580.11	27701.34
580.308	27666.52
580.506	27582.56
580.704	27138.15
580.901	27297.89
581.099	27471.96
581.297	27275.36
581.495	27099.23
581.692	27314.27
581.89	26892.39
582.088	27340.89
582.285	26837.09
582.483	26904.68
582.681	26925.16
582.878	26933.35
583.076	26794.09
583.274	26888.29
583.471	26275.95
583.669	26509.42
583.866	26589.29
584.064	26663.02
584.262	26323.05
584.459	26134.64
584.657	26151.02
584.854	26294.38
585.052	25770.1
585.249	26196.08
585.447	26435.69
585.644	25622.65
585.841	25956.47
586.039	26181.74
586.236	25831.54
586.434	25665.66
586.631	25505.91
586.828	25641.08
587.026	25329.79
587.223	25794.68
587.42	25436.28
587.618	25444.48
587.815	25194.62
588.012	24975.49
588.21	25194.62
588.407	25548.92
588.604	25018.5
588.801	24830.09
588.999	24995.97
589.196	24725.64
589.393	24840.32
589.59	24717.45
589.787	24588.42
589.984	24600.71
590.182	24285.33
590.379	24590.47
590.576	24389.77
590.773	24207.5
590.97	24463.5
591.167	24658.06
591.364	24010.9
591.561	24139.92
591.758	23988.37
591.955	24184.97
592.152	23863.44
592.349	23603.35
592.546	24017.04
592.743	23902.36
592.94	23341.21
593.137	23453.85
593.334	23652.5
593.531	23472.28
593.727	23722.13
593.924	23443.61
594.121	23206.05
594.318	23373.98
594.515	22859.94
594.712	23185.57
594.908	23333.02
595.105	22991.01
595.302	22939.81
595.499	23204
595.696	22823.08
595.892	22692.01
596.089	22939.81
596.286	22845.6
596.482	22534.31
596.679	22436.01
596.876	22380.71
597.072	22184.11
597.269	22403.24
597.466	22118.57
597.662	21956.78
597.859	22225.07
598.055	22143.15
598.252	22208.69
598.448	22151.34
598.645	21782.71
598.841	21893.3
599.038	21504.18
599.234	22048.94
599.431	21745.84
599.627	21477.56
599.824	21786.8
600.02	21813.43
600.217	21582.01
600.413	21416.12
600.609	21373.11
600.806	21391.55
601.002	21389.5
601.198	21065.92
601.395	21264.57
601.591	20908.22
601.787	21178.56
601.984	20824.26
602.18	21108.93
602.376	20637.89
602.572	20721.86
602.769	20965.57
602.965	20474.06
603.161	20551.88
603.357	20633.8
603.553	20197.58
603.75	20570.31
603.946	20267.21
604.142	20371.66
604.338	20349.13
604.534	20123.85
604.73	20240.59
604.926	20089.04
605.122	20209.87
605.318	19994.83
605.514	19704.02
605.71	19622.1
605.906	19701.97
606.102	20023.5
606.298	19689.68
606.494	19773.65
606.69	19656.92
606.886	20086.99
607.082	19128.54
607.278	19640.53
607.474	19548.37
607.67	19433.69
607.866	19177.69
608.062	19558.61
608.257	19359.96
608.453	19224.79
608.649	19294.43
608.845	19267.8
609.041	19050.72
609.236	19081.44
609.432	19255.51
609.628	19050.72
609.824	19048.67
610.019	18968.8
610.215	18813.15
610.411	18858.21
610.606	18870.5
610.802	19216.6
610.998	19097.82
611.193	18944.22
611.389	18612.45
611.584	18526.44
611.78	18643.17
611.976	18690.27
612.171	18933.98
612.367	18694.37
612.562	18331.88
612.758	18264.3
612.953	18485.48
613.149	18698.47
613.344	18407.66
613.539	18596.07
613.735	18282.73
613.93	18393.32
614.126	18045.16
614.321	18122.99
614.517	18178.28
614.712	18301.16
614.907	18237.67
615.103	18358.5
615.298	17901.81
615.493	18231.53
615.688	18135.28
615.884	18417.89
616.079	17996.01
616.274	17907.95
616.47	18342.12
616.665	18157.8
616.86	17914.09
617.055	17932.53
617.25	17971.44
617.445	18018.54
617.641	17914.09
617.836	17772.78
618.031	17682.67
618.226	17934.57
618.421	17518.84
618.616	17852.66
618.811	17309.94
619.006	17676.53
619.201	17160.44
619.396	17305.85
619.591	17107.19
619.786	17484.02
619.981	17119.48
620.176	17387.77
620.371	16912.64
620.566	16935.17
620.761	16939.26
620.956	16933.12
621.151	16597.25
621.346	16861.44
621.541	16404.74
621.735	16814.34
621.93	16345.35
622.125	16316.68
622.32	16163.08
622.515	16322.82
622.709	16134.41
622.904	16105.74
623.099	16156.94
623.294	16009.48
623.488	15724.82
623.683	15788.3
623.878	15761.68
624.072	15587.6
624.267	15632.66
624.462	15536.4
624.656	15610.13
624.851	15520.02
625.046	15186.2
625.24	15386.9
625.435	14897.44
625.629	15118.62
625.824	14981.4
626.018	15143.19
626.213	14784.8
626.407	14663.97
626.602	14364.96
626.796	14805.28
626.991	14567.71
627.185	14631.2
627.38	14369.06
627.574	14307.62
627.768	14190.89
627.963	14088.49
628.157	14016.81
628.352	14049.58
628.546	13803.82
628.74	13916.46
628.935	13785.39
629.129	13529.39
629.323	13480.24
629.517	13517.11
629.712	13506.87
629.906	13523.25
630.1	13154.62
630.294	13424.95
630.489	13246.77
630.683	13062.46
630.877	13025.59
631.071	12572.99
631.265	13062.46
631.459	12900.67
631.653	12769.6
631.848	12847.42
632.042	12699.97
632.236	12865.85
632.43	12497.22
632.624	12415.3
632.818	12515.65
633.012	12237.13
633.206	12245.32
633.4	12388.67
633.594	12218.69
633.788	12130.63
633.982	12015.94
634.176	12022.09
634.369	11819.34
634.563	11944.27
634.757	11811.15
634.951	11749.71
635.145	11852.11
635.339	11721.04
635.533	11809.1
635.726	11710.8
635.92	11372.88
636.114	11600.21
636.308	11501.9
636.501	11356.5
636.695	11321.68
636.889	11276.63
637.083	11112.79
637.276	11184.47
637.47	11059.54
637.664	10963.29
637.857	10885.47
638.051	10789.21
638.244	10957.14
638.438	10649.95
638.632	10893.66
638.825	10697.05
639.019	10652
639.212	10539.36
639.406	10525.02
639.599	10391.91
639.793	10512.74
639.986	10332.51
640.18	10367.33
640.373	10279.27
640.567	10174.82
640.76	10103.14
640.954	10023.27
641.147	10041.7
641.34	10058.09
641.534	10004.84
641.727	10084.71
641.92	9832.81
642.114	9783.66
642.307	9810.28
642.5	9621.87
642.694	9644.4
642.887	9509.23
643.08	9802.09
643.273	9490.8
643.467	9601.39
643.66	9380.21
643.853	9423.22
644.046	9152.88
644.239	9306.48
644.432	9105.78
644.626	8987
644.819	9339.25
645.012	9030.01
645.205	9017.72
645.398	9058.68
645.591	8929.66
645.784	9122.16
645.977	8739.19
646.17	8829.31
646.363	8644.99
646.556	8540.54
646.749	8704.38
646.942	8841.59
647.135	8628.6
647.328	8659.32
647.521	8444.29
647.714	8202.63
647.907	8548.73
648.099	8501.63
648.292	8440.19
648.485	8257.92
648.678	8350.08
648.871	8184.2
649.064	8114.56
649.256	8378.75
649.449	8221.06
649.642	8055.17
649.835	7975.3
650.027	8145.28
650.22	7825.8
650.413	7981.45
650.605	7903.62
650.798	7803.27
650.991	7793.03
651.183	7719.31
651.376	7797.13
651.568	7608.72
651.761	7461.26
651.954	7545.23
652.146	7639.44
652.339	7530.89
652.531	7512.46
652.724	7322
652.916	7160.21
653.109	7371.15
653.301	7250.32
653.494	7354.77
653.686	7186.83
653.879	7315.86
654.071	7115.16
654.263	7094.68
654.456	7149.97
654.648	6988.18
654.84	7188.88
655.033	6971.8
655.225	6971.8
655.417	6912.41
655.61	7033.24
655.802	7004.57
655.994	6881.69
656.186	6916.5
656.379	6625.69
656.571	6859.16
656.763	6721.95
656.955	6687.13
657.148	6613.4
657.34	6744.47
657.532	6496.67
657.724	6590.88
657.916	6740.38
658.108	6402.46
658.3	6463.9
658.492	6369.69
658.684	6388.13
658.876	6388.13
659.068	6216.1
659.26	6322.59
659.452	6406.56
659.644	6271.39
659.836	6232.48
660.028	6218.15
660.22	6046.12
660.412	6154.66
660.604	6025.64
660.796	6044.07
660.988	6150.56
661.18	6101.41
661.372	5982.63
661.563	6025.64
661.755	5886.37
661.947	5861.8
662.139	5949.86
662.331	5845.41
662.522	5824.94
662.714	5710.25
662.906	5685.67
663.097	5644.71
663.289	5626.28
663.481	5765.54
663.673	5673.39
663.864	5593.51
664.056	5597.61
664.247	5587.37
664.439	5493.16
664.631	5493.16
664.822	5329.33
665.014	5548.46
665.205	5398.96
665.397	5437.87
665.588	5505.45
665.78	5329.33
665.971	5403.05
666.163	5482.92
666.354	5310.89
666.546	5339.57
666.737	5124.53
666.929	5312.94
667.12	5263.79
667.311	5108.15
667.503	5048.75
667.694	5118.39
667.885	5007.8
668.077	5009.84
668.268	4985.27
668.459	5128.63
668.651	4995.51
668.842	5005.75
669.033	4878.77
669.224	4805.05
669.416	5034.42
669.607	4938.16
669.798	4921.78
669.989	4968.88
670.18	4737.46
670.371	4815.29
670.563	4747.7
670.754	4858.29
670.945	4676.02
671.136	4712.89
671.327	4782.52
671.518	4727.22
671.709	4551.1
671.9	4821.43
672.091	4661.69
672.282	4663.74
672.473	4624.83
672.664	4532.67
672.855	4522.43
673.046	4647.35
673.237	4653.5
673.428	4577.72
673.619	4657.59
673.809	4524.47
674	4630.97
674.191	4528.57
674.382	4477.37
674.573	4405.69
674.764	4430.27
674.954	4532.67
675.145	4354.49
675.336	4323.77
675.527	4348.35
675.717	4303.29
675.908	4458.94
676.099	4108.74
676.289	4293.05
676.48	4352.45
676.671	4243.9
676.861	4145.6
677.052	4215.23
677.243	4192.7
677.433	4207.04
677.624	4245.95
677.814	4149.7
678.005	4417.98
678.195	4069.83
678.386	4137.41
678.576	4213.18
678.767	4200.9
678.957	4147.65
679.148	4272.57
679.338	4092.35
679.529	4055.49
679.719	4262.33
679.909	4063.68
680.1	4049.35
680.29	4094.4
680.481	4004.29
680.671	4037.06
680.861	4151.74
681.052	4055.49
681.242	3979.72
681.432	4098.5
681.622	4010.43
681.813	3905.99
682.003	4024.77
682.193	3897.8
682.383	3912.13
682.573	4028.87
682.764	3953.09
682.954	3924.42
683.144	4028.87
683.334	3787.21
683.524	3920.32
683.714	3926.47
683.904	3848.65
684.094	4008.39
684.284	3905.99
684.474	3932.61
684.664	3840.45
684.854	3793.35
685.044	3885.51
685.234	3871.17
685.424	3848.65
685.614	3963.33
685.804	3879.36
685.994	3875.27
686.184	3709.38
686.374	3662.28
686.564	3709.38
686.753	3611.08
686.943	3609.03
687.133	3656.14
687.323	3539.4
687.513	3752.39
687.702	3455.44
687.892	3588.55
688.082	3617.22
688.272	3600.84
688.461	3559.88
688.651	3629.51
688.841	3494.35
689.03	3408.33
689.22	3584.46
689.41	3424.72
689.599	3482.06
689.789	3383.76
689.979	3398.09
690.168	3467.72
690.358	3477.96
690.547	3176.91
690.737	3441.1
690.926	3297.74
691.116	3396.04
691.305	3205.58
691.495	3406.28
691.684	3287.5
691.874	3205.58
692.063	3187.15
692.252	3244.49
692.442	3162.58
692.631	3209.68
692.82	3232.21
693.01	3185.1
693.199	3250.64
693.388	2982.35
693.578	3031.51
693.767	3090.9
693.956	3011.03
694.146	3189.2
694.335	2986.45
694.524	2945.49
694.713	3058.13
694.902	2994.64
695.092	3031.51
695.281	2982.35
695.47	2976.21
695.659	2896.34
695.848	2896.34
696.037	2968.02
696.226	2918.87
696.415	2877.91
696.604	2908.63
696.793	2902.48
696.982	2832.85
697.171	2851.28
697.36	2949.59
697.549	2834.9
697.738	2892.24
697.927	2867.67
698.116	2896.34
698.305	2888.15
698.494	2830.8
698.683	2779.61
698.872	2836.95
699.061	2730.45
699.25	2816.47
699.438	2912.72
699.627	2777.56
699.816	2709.97
700.005	2660.82
700.193	2652.63
700.382	2740.69
700.571	2712.02
700.76	2765.27
700.948	2591.19
701.137	2660.82
701.326	2804.18
701.514	2732.5
701.703	2681.3
701.892	2597.34
702.08	2740.69
702.269	2615.77
702.457	2531.8
702.646	2583
702.834	2615.77
703.023	2734.55
703.212	2761.17
703.4	2583
703.589	2535.9
703.777	2707.93
703.965	2658.78
704.154	2693.59
704.342	2513.37
704.531	2851.28
704.719	2458.07
704.907	2611.67
705.096	2783.7
705.284	2619.86
705.472	2593.24
705.661	2613.72
705.849	2533.85
706.037	2728.41
706.226	2488.79
706.414	2456.03
706.602	2628.06
706.79	2646.49
706.979	2570.71
707.167	2572.76
707.355	2546.14
707.543	2562.52
707.731	2611.67
707.919	2675.16
708.107	2537.95
708.296	2648.54
708.484	2413.02
708.672	2585.05
708.86	2488.79
709.048	2580.95
709.236	2490.84
709.424	2642.39
709.612	2636.25
709.8	2486.75
709.988	2578.9
710.176	2605.53
710.364	2597.34
710.551	2431.45
710.739	2546.14
710.927	2511.32
711.115	2709.97
711.303	2554.33
711.491	2542.04
711.679	2531.8
711.866	2568.66
712.054	2529.75
712.242	2525.66
712.43	2679.26
712.617	2421.21
712.805	2578.9
712.993	2499.03
713.181	2558.42
713.368	2464.22
713.556	2595.29
713.744	2542.04
713.931	2646.49
714.119	2523.61
714.306	2585.05
714.494	2556.38
714.682	2501.08
714.869	2480.6
715.057	2623.96
715.244	2501.08
715.432	2499.03
715.619	2464.22
715.807	2513.37
715.994	2636.25
716.182	2535.9
716.369	2609.62
716.556	2681.3
716.744	2546.14
716.931	2578.9
717.119	2601.43
717.306	2501.08
717.493	2521.56
717.681	2650.58
717.868	2601.43
718.055	2515.42
718.242	2597.34
718.43	2558.42
718.617	2552.28
718.804	2552.28
718.991	2564.57
719.179	2509.27
719.366	2673.11
719.553	2580.95
719.74	2472.41
719.927	2580.95
720.114	2558.42
720.301	2523.61
720.488	2474.46
720.676	2513.37
720.863	2630.1
721.05	2580.95
721.237	2613.72
721.424	2603.48
721.611	2558.42
721.798	2550.23
721.985	2494.94
722.172	2472.41
722.358	2486.75
722.545	2562.52
722.732	2632.15
722.919	2632.15
723.106	2568.66
723.293	2621.91
723.48	2609.62
723.667	2501.08
723.853	2593.24
724.04	2646.49
724.227	2505.18
724.414	2597.34
724.6	2634.2
724.787	2464.22
724.974	2611.67
725.161	2501.08
725.347	2621.91
725.534	2666.97
725.72	2599.38
725.907	2671.06
726.094	2488.79
726.28	2546.14
726.467	2585.05
726.653	2501.08
726.84	2525.66
727.027	2650.58
727.213	2447.83
727.4	2595.29
727.586	2517.47
727.773	2517.47
727.959	2603.48
728.145	2677.21
728.332	2556.38
728.518	2675.16
728.705	2511.32
728.891	2628.06
729.077	2560.47
729.264	2533.85
729.45	2574.81
729.636	2648.54
729.823	2496.99
730.009	2546.14
730.195	2494.94
730.382	2601.43
730.568	2570.71
730.754	2607.58
730.94	2535.9
731.126	2621.91
731.313	2486.75
731.499	2570.71
731.685	2527.71
731.871	2456.03
732.057	2634.2
732.243	2630.1
732.429	2486.75
732.615	2496.99
732.801	2603.48
732.987	2449.88
733.173	2630.1
733.359	2595.29
733.545	2480.6
733.731	2621.91
733.917	2564.57
734.103	2539.99
734.289	2556.38
734.475	2517.47
734.661	2601.43
734.847	2496.99
735.033	2519.51
735.219	2564.57
735.404	2550.23
735.59	2578.9
735.776	2527.71
735.962	2515.42
736.148	2548.19
736.333	2496.99
736.519	2603.48
736.705	2574.81
736.89	2398.68
737.076	2515.42
737.262	2503.13
737.447	2499.03
737.633	2484.7
737.819	2441.69
738.004	2496.99
738.19	2503.13
738.375	2443.74
738.561	2490.84
738.747	2453.98
738.932	2365.92
739.118	2470.36
739.303	2431.45
739.489	2578.9
739.674	2449.88
739.859	2443.74
740.045	2460.12
740.23	2435.55
740.416	2400.73
740.601	2531.8
740.786	2484.7
740.972	2365.92
741.157	2492.89
741.342	2466.27
741.528	2345.44
741.713	2345.44
741.898	2458.07
742.084	2367.96
742.269	2281.95
742.454	2376.16
742.639	2431.45
742.824	2357.72
743.01	2335.2
743.195	2419.16
743.38	2294.24
743.565	2333.15
743.75	2322.91
743.935	2322.91
744.12	2363.87
744.305	2363.87
744.49	2267.61
744.675	2294.24
744.86	2189.79
745.045	2259.42
745.23	2165.21
745.415	2298.33
745.6	2173.41
745.785	2171.36
745.97	2245.09
746.155	2103.78
746.34	2142.69
746.525	2013.67
746.71	2128.35
746.895	2134.5
747.079	2019.81
747.264	2103.78
747.449	2038.24
747.634	2091.49
747.819	2034.14
748.003	2071.01
748.188	2161.12
748.373	2114.02
748.557	2021.86
748.742	1944.03
748.927	2044.38
749.111	2058.72
749.296	1972.71
749.481	1991.14
749.665	2021.86
749.85	1890.79
750.034	1982.95
750.219	1833.44
750.404	1886.69
750.588	1829.35
750.773	1827.3
750.957	1767.91
751.141	1843.68
751.326	1825.25
751.51	1817.06
751.695	1812.96
751.879	1815.01
752.064	1788.39
752.248	1794.53
752.432	1862.12
752.617	1747.43
752.801	1735.14
752.985	1825.25
753.17	1706.47
753.354	1647.08
753.538	1704.42
753.722	1565.16
753.907	1645.03
754.091	1579.5
754.275	1663.46
754.459	1628.65
754.643	1565.16
754.828	1581.54
755.012	1544.68
755.196	1573.35
755.38	1536.49
755.564	1485.29
755.748	1550.82
755.932	1587.69
756.116	1538.54
756.3	1497.58
756.484	1524.2
756.668	1399.27
756.852	1456.62
757.036	1470.95
757.22	1513.96
757.404	1429.99
757.588	1444.33
757.772	1327.6
757.956	1333.74
758.14	1454.57
758.323	1370.6
758.507	1382.89
758.691	1401.32
758.875	1399.27
759.059	1421.8
759.242	1376.75
759.426	1327.6
759.61	1370.6
759.794	1307.12
759.977	1262.06
760.161	1419.75
760.345	1362.41
760.528	1280.49
760.712	1341.93
760.895	1214.96
761.079	1296.88
761.263	1284.59
761.446	1331.69
761.63	1114.61
761.813	1214.96
761.997	1243.63
762.18	1241.58
762.364	1268.2
762.547	1249.77
762.731	1253.87
762.914	1274.35
763.098	1206.77
763.281	1272.3
763.464	1208.81
763.648	1143.28
763.831	1169.9
764.015	1178.09
764.198	1118.7
764.381	1190.38
764.564	1079.79
764.748	1104.37
764.931	1151.47
765.114	1112.56
765.297	1169.9
765.481	1163.76
765.664	1130.99
765.847	1069.55
766.03	1128.94
766.213	1169.9
766.397	1116.65
766.58	1112.56
766.763	1137.13
766.946	1083.89
767.129	1075.7
767.312	1051.12
767.495	1016.3
767.678	1051.12
767.861	1108.46
768.044	1034.74
768.227	1141.23
768.41	1065.46
768.593	981.49
768.776	1073.65
768.959	954.87
769.142	985.58
769.324	1092.08
769.507	1038.83
769.69	954.87
769.873	932.34
770.056	1042.93
770.239	969.2
770.421	948.72
770.604	985.58
770.787	1022.45
770.97	1038.83
771.152	977.39
771.335	1008.11
771.518	928.24
771.7	936.43
771.883	1106.42
772.066	928.24
772.248	975.35
772.431	1049.07
772.613	1016.3
772.796	934.39
772.978	870.9
773.161	995.82
773.343	901.62
773.526	936.43
773.708	840.18
773.891	885.23
774.073	911.86
774.256	858.61
774.438	891.38
774.621	831.99
774.803	877.04
774.985	797.17
775.168	803.32
775.35	829.94
775.532	776.69
775.715	823.8
775.897	831.99
776.079	856.56
776.261	854.51
776.444	793.08
776.626	801.27
776.808	750.07
776.99	774.64
777.173	821.75
777.355	758.26
777.537	754.16
777.719	668.15
777.901	778.74
778.083	721.4
778.265	748.02
778.447	748.02
778.629	725.49
778.811	750.07
778.993	721.4
779.175	778.74
779.357	684.53
779.539	635.38
779.721	764.4
779.903	639.48
780.085	686.58
780.267	719.35
780.449	655.86
780.631	676.34
780.812	698.87
780.994	633.33
781.176	621.05
781.358	715.25
781.54	621.05
781.721	643.57
781.903	582.14
782.085	625.14
782.267	616.95
782.448	522.74
782.63	655.86
782.812	604.66
782.993	649.72
783.175	580.09
783.357	492.02
783.538	578.04
783.72	494.07
783.901	582.14
784.083	549.37
784.264	530.94
784.446	510.46
784.627	489.98
784.809	670.2
784.99	492.02
785.172	438.78
785.353	573.94
785.535	535.03
785.716	504.31
785.897	434.68
786.079	457.21
786.26	522.74
786.441	496.12
786.623	487.93
786.804	516.6
786.985	473.59
787.167	471.54
787.348	426.49
787.529	446.97
787.71	496.12
787.891	383.48
788.073	438.78
788.254	475.64
788.435	451.07
788.616	479.74
788.797	420.35
788.978	494.07
789.159	408.06
789.34	403.96
789.522	420.35
789.703	496.12
789.884	469.5
790.065	387.58
790.246	492.02
790.427	430.59
790.607	440.83
790.788	440.83
790.969	315.9
791.15	428.54
791.331	379.39
791.512	403.96
791.693	352.76
791.874	418.3
792.054	481.78
792.235	367.1
792.416	350.71
792.597	389.63
792.778	350.71
792.958	438.78
793.139	397.82
793.32	356.86
793.5	369.15
793.681	387.58
793.862	373.24
794.042	373.24
794.223	346.62
794.404	330.23
794.584	346.62
794.765	291.32
794.945	313.85
795.126	328.19
795.306	354.81
795.487	367.1
795.667	313.85
795.848	258.56
796.028	272.89
796.209	326.14
796.389	311.8
796.57	348.67
796.75	248.32
796.93	350.71
797.111	252.41
797.291	328.19
797.471	305.66
797.652	375.29
797.832	328.19
798.012	295.42
798.192	272.89
798.373	334.33
798.553	305.66
798.733	332.28
798.913	367.1
799.093	256.51
799.274	322.04
799.454	367.1
799.634	252.41
799.814	295.42
799.994	297.47
800.174	381.43
800.354	248.32
800.534	264.7
800.714	303.61
800.894	215.55
801.074	219.64
801.254	258.56
801.434	293.37
801.614	317.95
801.794	313.85
801.974	651.77
802.154	256.51
802.334	297.47
802.514	229.88
802.693	211.45
802.873	223.74
803.053	266.75
803.233	274.94
803.413	342.52
803.592	219.64
803.772	223.74
803.952	244.22
804.131	262.65
804.311	190.97
804.491	289.28
804.67	262.65
804.85	203.26
805.03	236.03
805.209	285.18
805.389	217.6
805.568	168.45
805.748	188.93
805.928	236.03
806.107	313.85
806.287	246.27
806.466	270.84
806.646	248.32
806.825	184.83
807.004	195.07
807.184	178.69
807.363	233.98
807.543	188.93
807.722	233.98
807.901	227.84
808.081	217.6
808.26	227.84
808.439	266.75
808.619	238.08
808.798	236.03
808.977	147.97
809.156	229.88
809.336	219.64
809.515	213.5
809.694	193.02
809.873	174.59
810.052	211.45
810.231	195.07
810.411	162.3
810.59	242.17
810.769	199.16
810.948	242.17
811.127	98.81
811.306	223.74
811.485	129.53
811.664	274.94
811.843	199.16
812.022	221.69
812.201	166.4
812.38	174.59
812.559	152.06
812.737	139.77
812.916	145.92
813.095	154.11
813.274	147.97
813.453	266.75
813.632	125.44
813.811	186.88
813.989	201.21
814.168	174.59
814.347	111.1
814.526	209.4
814.704	190.97
814.883	203.26
815.062	121.34
815.24	231.93
815.419	147.97
815.598	229.88
815.776	176.64
815.955	150.01
816.133	115.2
816.312	131.58
816.49	123.39
816.669	119.29
816.847	139.77
817.026	96.77
817.204	174.59
817.383	170.49
817.561	190.97
817.74	201.21
817.918	221.69
818.097	172.54
818.275	131.58
818.453	135.68
818.632	170.49
818.81	172.54
818.988	135.68
819.167	104.96
819.345	160.25
819.523	129.53
819.701	152.06
819.879	156.16
820.058	141.82
820.236	211.45
820.414	154.11
820.592	164.35
820.77	213.5
820.948	203.26
821.127	139.77
821.305	90.62
821.483	135.68
821.661	121.34
821.839	205.31
822.017	150.01
822.195	133.63
822.373	117.25
822.551	145.92
822.729	162.3
822.907	111.1
823.085	43.52
823.262	123.39
823.44	41.47
823.618	131.58
823.796	150.01
823.974	76.29
824.152	133.63
824.329	121.34
824.507	143.87
824.685	168.45
824.863	164.35
825.04	152.06
825.218	61.95
825.396	131.58
825.574	172.54
825.751	90.62
825.929	170.49
826.107	162.3
826.284	154.11
826.462	131.58
826.639	111.1
826.817	139.77
826.994	115.2
827.172	66.05
827.349	201.21
827.527	115.2
827.704	166.4
827.882	90.62
828.059	135.68
828.237	145.92
828.414	51.71
828.591	123.39
828.769	80.38
828.946	135.68
829.124	74.24
829.301	72.19
829.478	49.66
829.655	154.11
829.833	145.92
830.01	47.62
830.187	117.25
830.364	158.21
830.542	115.2
830.719	88.57
830.896	64
831.073	166.4
831.25	135.68
831.427	131.58
831.604	135.68
831.782	37.38
831.959	80.38
832.136	143.87
832.313	72.19
832.49	104.96
832.667	147.97
832.844	76.29
833.021	74.24
833.198	100.86
833.374	27.14
833.551	90.62
833.728	115.2
833.905	27.14
834.082	64
834.259	98.81
834.436	158.21
834.612	111.1
834.789	115.2
834.966	80.38
835.143	49.66
835.319	59.9
835.496	94.72
835.673	104.96
835.85	115.2
836.026	82.43
836.203	111.1
836.38	82.43
836.556	43.52
836.733	43.52
836.909	84.48
837.086	18.94
837.262	10.75
837.439	68.09
837.616	88.57
837.792	29.18
837.968	-5.63
838.145	68.09
838.321	109.05
838.498	64
838.674	68.09
838.851	45.57
839.027	57.86
839.203	20.99
839.38	174.59
839.556	86.53
839.732	90.62
839.909	82.43
840.085	64
840.261	70.14
840.437	123.39
840.614	31.23
840.79	82.43
840.966	35.33
841.142	80.38
841.318	-1.54
841.494	35.33
841.671	84.48
841.847	92.67
842.023	53.76
842.199	80.38
842.375	143.87
842.551	39.42
842.727	23.04
842.903	64
843.079	59.9
843.255	96.77
843.431	57.86
843.607	102.91
843.783	64
843.959	125.44
844.134	74.24
844.31	31.23
844.486	113.15
844.662	49.66
844.838	55.81
845.013	59.9
845.189	88.57
845.365	59.9
845.541	53.76
845.716	104.96
845.892	115.2
846.068	164.35
846.244	27.14
846.419	31.23
846.595	14.85
846.77	49.66
846.946	68.09
847.122	88.57
847.297	90.62
847.473	80.38
847.648	27.14
847.824	82.43
847.999	-3.58
848.175	-1.54
848.35	0.51
848.526	129.53
848.701	74.24
848.876	55.81
849.052	33.28
849.227	4.61
849.403	53.76
849.578	-26.11
849.753	70.14
849.929	33.28
850.104	41.47
850.279	80.38
850.454	25.09
850.63	70.14
850.805	6.66
850.98	20.99
851.155	18.94
851.33	64
851.505	74.24
851.681	68.09
851.856	92.67
852.031	100.86
852.206	41.47
852.381	66.05
852.556	-3.58
852.731	147.97
852.906	33.28
853.081	39.42
853.256	23.04
853.431	35.33
853.606	102.91
853.781	-67.07
853.956	57.86
854.131	55.81
854.305	0.51
854.48	117.25
854.655	31.23
854.83	39.42
855.005	92.67
855.18	94.72
855.354	0.51
855.529	-30.21
855.704	72.19
855.879	45.57
856.053	23.04
856.228	-30.21
856.403	20.99
856.577	84.48
856.752	8.7
856.926	107.01
857.101	107.01
857.276	10.75
857.45	88.57
857.625	84.48
857.799	104.96
857.974	70.14
858.148	4.61
858.323	55.81
858.497	39.42
858.672	41.47
858.846	57.86
859.02	61.95
859.195	43.52
859.369	94.72
859.543	59.9
859.718	41.47
859.892	51.71
860.066	2.56
860.241	-28.16
860.415	49.66
860.589	33.28
860.763	25.09
860.938	59.9
861.112	-17.92
861.286	47.62
861.46	27.14
861.634	4.61
861.808	8.7
861.982	59.9
862.157	27.14
862.331	33.28
862.505	-91.65
862.679	4.61
862.853	-3.58
863.027	0.51
863.201	20.99
863.375	-11.78
863.549	55.81
863.722	12.8
863.896	100.86
864.07	-46.59
864.244	80.38
864.418	100.86
864.592	70.14
864.766	31.23
864.939	80.38
865.113	33.28
865.287	66.05
865.461	0.51
865.634	20.99
865.808	4.61
865.982	43.52
866.156	39.42
866.329	49.66
866.503	-13.82
866.676	72.19
866.85	0.51
867.024	2.56
867.197	82.43
867.371	137.73
867.544	16.9
867.718	53.76
867.891	94.72
868.065	70.14
868.238	86.53
868.412	47.62
868.585	39.42
868.759	-3.58
868.932	-11.78
869.105	66.05
869.279	-38.4
869.452	2.56
869.625	18.94
869.799	-3.58
869.972	-42.5
870.145	55.81
870.319	23.04
870.492	18.94
870.665	68.09
870.838	53.76
871.011	-13.82
871.185	23.04
871.358	45.57
871.531	49.66
871.704	66.05
871.877	33.28
872.05	47.62
872.223	25.09
872.396	70.14
872.569	-50.69
872.742	-11.78
872.915	43.52
873.088	-50.69
873.261	10.75
873.434	76.29
873.607	27.14
873.78	47.62
873.953	25.09
874.126	39.42
874.299	4.61
874.471	51.71
874.644	10.75
874.817	74.24
874.99	96.77
875.163	-62.98
875.335	31.23
875.508	10.75
875.681	27.14
875.853	-19.97
876.026	31.23
876.199	57.86
876.371	107.01
876.544	0.51
876.717	-11.78
876.889	25.09
877.062	-9.73
877.234	-19.97
877.407	31.23
877.579	37.38
877.752	-44.54
877.924	53.76
878.097	43.52
878.269	-22.02
878.442	4.61
878.614	-7.68
878.786	25.09
878.959	76.29
879.131	-44.54
879.303	39.42
879.476	-1.54
879.648	35.33
879.82	72.19
879.993	16.9
880.165	64
880.337	-17.92
880.509	49.66
880.681	-22.02
880.854	6.66
881.026	51.71
881.198	104.96
881.37	23.04
881.542	8.7
881.714	16.9
881.886	18.94
882.058	18.94
882.23	6.66
882.402	2.56
882.574	39.42
882.746	10.75
882.918	31.23
883.09	-3.58
883.262	61.95
883.434	41.47
883.606	-5.63
883.778	33.28
883.95	16.9
884.122	2.56
884.293	45.57
884.465	-9.73
884.637	16.9
884.809	-62.98
884.98	129.53
885.152	31.23
885.324	37.38
885.496	-1.54
885.667	-11.78
885.839	125.44
886.011	27.14
886.182	4.61
886.354	20.99
886.525	68.09
886.697	0.51
886.869	-1.54
887.04	-3.58
887.212	72.19
887.383	78.33
887.555	61.95
887.726	-38.4
887.897	45.57
888.069	66.05
888.24	68.09
888.412	-40.45
888.583	-32.26
888.754	-22.02
888.926	31.23
889.097	-75.26
889.268	-11.78
889.44	-1.54
889.611	23.04
889.782	29.18
889.953	-17.92
890.125	64
890.296	66.05
890.467	-7.68
890.638	-3.58
890.809	25.09
890.98	12.8
891.151	47.62
891.323	6.66
891.494	14.85
891.665	0.51
891.836	39.42
892.007	4.61
892.178	31.23
892.349	35.33
892.52	0.51
892.691	2.56
892.862	51.71
893.032	-22.02
893.203	-36.35
893.374	64
893.545	53.76
893.716	16.9
893.887	68.09
894.057	0.51
894.228	55.81
894.399	-3.58
894.57	39.42
894.74	-1.54
894.911	43.52
895.082	29.18
895.253	14.85
895.423	-40.45
895.594	-13.82
895.764	-15.87
895.935	29.18
896.106	-28.16
896.276	59.9
896.447	-77.31
896.617	29.18
896.788	-36.35
896.958	-9.73
897.129	49.66
897.299	68.09
897.47	104.96
897.64	39.42
897.81	16.9
897.981	47.62
898.151	14.85
898.322	-1.54
898.492	43.52
898.662	-9.73
898.832	29.18
899.003	23.04
899.173	51.71
899.343	-28.16
899.513	55.81
