Data from USB4F104151__101__12-29-10-728.txt Node

Date: Fri Mar 14 12:29:10 EDT 2025
User: louis
Spectrometer: USB4F10415
Trigger mode: 4
Integration Time (sec): 2.000000E-2
Scans to average: 1
Electric dark correction enabled: true
Nonlinearity correction enabled: false
Boxcar width: 0
XAxis mode: Wavelengths
Number of Pixels in Spectrum: 3648
>>>>>Begin Spectral Data<<<<<
178.204	-192.34
178.424	-192.34
178.644	-192.34
178.864	-104.28
179.084	-85.84
179.304	-81.75
179.524	-1.88
179.744	51.37
179.964	6.31
180.184	-16.21
180.404	18.6
180.624	-42.84
180.844	-14.17
181.064	-3.93
181.283	-12.12
181.503	90.28
181.723	6.31
181.943	-14.17
182.163	82.09
182.383	39.08
182.602	53.42
182.822	8.36
183.042	47.27
183.262	22.7
183.482	112.81
183.701	41.13
183.921	20.65
184.141	43.18
184.361	73.9
184.58	30.89
184.8	61.61
185.02	14.51
185.239	39.08
185.459	41.13
185.679	45.23
185.898	0.17
186.118	71.85
186.338	2.22
186.557	49.32
186.777	45.23
186.997	71.85
187.216	32.94
187.436	2.22
187.655	26.79
187.875	43.18
188.095	-10.07
188.314	69.8
188.534	90.28
188.753	43.18
188.973	55.47
189.192	104.62
189.412	39.08
189.631	100.52
189.851	88.23
190.07	106.67
190.29	10.41
190.509	37.03
190.729	-26.45
190.948	18.6
191.168	73.9
191.387	57.51
191.607	45.23
191.826	45.23
192.045	61.61
192.265	67.75
192.484	41.13
192.704	14.51
192.923	73.9
193.142	114.86
193.362	30.89
193.581	63.66
193.8	55.47
194.02	110.76
194.239	-53.08
194.458	45.23
194.678	-30.55
194.897	55.47
195.116	41.13
195.335	34.99
195.555	53.42
195.774	-22.36
195.993	80.04
196.212	43.18
196.432	43.18
196.651	-24.4
196.87	4.27
197.089	82.09
197.308	55.47
197.528	63.66
197.747	26.79
197.966	94.38
198.185	88.23
198.404	-46.93
198.623	63.66
198.842	147.62
199.062	96.43
199.281	47.27
199.5	-28.5
199.719	125.1
199.938	86.19
200.157	65.71
200.376	110.76
200.595	28.84
200.814	98.47
201.033	82.09
201.252	94.38
201.471	30.89
201.69	67.75
201.909	65.71
202.128	73.9
202.347	-14.17
202.566	71.85
202.785	49.32
203.004	43.18
203.223	71.85
203.442	22.7
203.661	75.95
203.879	96.43
204.098	57.51
204.317	61.61
204.536	82.09
204.755	65.71
204.974	80.04
205.193	127.14
205.411	53.42
205.63	0.17
205.849	57.51
206.068	6.31
206.287	94.38
206.505	24.75
206.724	-34.64
206.943	57.51
207.162	-18.26
207.381	69.8
207.599	55.47
207.818	-18.26
208.037	61.61
208.255	47.27
208.474	80.04
208.693	-3.93
208.911	77.99
209.13	53.42
209.349	71.85
209.567	18.6
209.786	49.32
210.005	18.6
210.223	-24.4
210.442	30.89
210.661	49.32
210.879	43.18
211.098	28.84
211.316	34.99
211.535	94.38
211.753	57.51
211.972	121
212.191	39.08
212.409	75.95
212.628	53.42
212.846	-3.93
213.065	100.52
213.283	37.03
213.502	-34.64
213.72	16.55
213.938	34.99
214.157	61.61
214.375	14.51
214.594	41.13
214.812	20.65
215.031	125.1
215.249	41.13
215.467	45.23
215.686	69.8
215.904	47.27
216.122	18.6
216.341	69.8
216.559	12.46
216.778	90.28
216.996	90.28
217.214	67.75
217.432	86.19
217.651	123.05
217.869	6.31
218.087	90.28
218.306	32.94
218.524	45.23
218.742	43.18
218.96	112.81
219.179	32.94
219.397	41.13
219.615	67.75
219.833	24.75
220.051	-26.45
220.27	92.33
220.488	59.56
220.706	43.18
220.924	49.32
221.142	-20.31
221.36	67.75
221.578	77.99
221.796	26.79
222.015	20.65
222.233	53.42
222.451	30.89
222.669	16.55
222.887	49.32
223.105	24.75
223.323	28.84
223.541	22.7
223.759	131.24
223.977	57.51
224.195	82.09
224.413	-12.12
224.631	12.46
224.849	41.13
225.067	41.13
225.285	22.7
225.503	28.84
225.721	-20.31
225.939	47.27
226.157	92.33
226.375	67.75
226.592	-20.31
226.81	67.75
227.028	39.08
227.246	145.58
227.464	75.95
227.682	65.71
227.9	88.23
228.117	86.19
228.335	47.27
228.553	53.42
228.771	73.9
228.989	166.06
229.206	86.19
229.424	82.09
229.642	86.19
229.86	30.89
230.077	63.66
230.295	67.75
230.513	51.37
230.731	45.23
230.948	92.33
231.166	28.84
231.384	43.18
231.601	80.04
231.819	43.18
232.037	22.7
232.254	14.51
232.472	28.84
232.689	71.85
232.907	80.04
233.125	55.47
233.342	26.79
233.56	86.19
233.777	12.46
233.995	8.36
234.213	63.66
234.43	88.23
234.648	22.7
234.865	22.7
235.083	65.71
235.3	55.47
235.518	98.47
235.735	55.47
235.953	43.18
236.17	24.75
236.388	94.38
236.605	2.22
236.822	41.13
237.04	53.42
237.257	18.6
237.475	37.03
237.692	-3.93
237.909	57.51
238.127	67.75
238.344	80.04
238.562	106.67
238.779	80.04
238.996	-1.88
239.214	-16.21
239.431	-3.93
239.648	24.75
239.865	90.28
240.083	30.89
240.3	94.38
240.517	14.51
240.735	39.08
240.952	43.18
241.169	39.08
241.386	37.03
241.603	125.1
241.821	-5.97
242.038	102.57
242.255	30.89
242.472	-10.07
242.689	178.34
242.907	75.95
243.124	34.99
243.341	6.31
243.558	30.89
243.775	30.89
243.992	-26.45
244.209	22.7
244.426	47.27
244.643	137.38
244.86	10.41
245.078	10.41
245.295	28.84
245.512	135.34
245.729	-18.26
245.946	82.09
246.163	84.14
246.38	86.19
246.597	30.89
246.814	-5.97
247.031	57.51
247.248	112.81
247.464	39.08
247.681	-40.79
247.898	-1.88
248.115	20.65
248.332	22.7
248.549	157.86
248.766	32.94
248.983	71.85
249.2	34.99
249.417	59.56
249.633	-30.55
249.85	24.75
250.067	65.71
250.284	18.6
250.501	6.31
250.717	129.19
250.934	34.99
251.151	116.9
251.368	49.32
251.585	92.33
251.801	86.19
252.018	-71.51
252.235	6.31
252.451	49.32
252.668	28.84
252.885	102.57
253.102	67.75
253.318	6.31
253.535	59.56
253.752	28.84
253.968	77.99
254.185	2.22
254.401	77.99
254.618	47.27
254.835	102.57
255.051	90.28
255.268	49.32
255.484	110.76
255.701	-18.26
255.917	129.19
256.134	8.36
256.351	84.14
256.567	20.65
256.784	6.31
257	82.09
257.217	77.99
257.433	104.62
257.65	28.84
257.866	30.89
258.082	-10.07
258.299	0.17
258.515	104.62
258.732	86.19
258.948	16.55
259.165	94.38
259.381	18.6
259.597	61.61
259.814	24.75
260.03	32.94
260.246	65.71
260.463	100.52
260.679	104.62
260.895	55.47
261.112	61.61
261.328	59.56
261.544	49.32
261.761	137.38
261.977	26.79
262.193	30.89
262.409	86.19
262.626	22.7
262.842	98.47
263.058	49.32
263.274	73.9
263.49	84.14
263.707	75.95
263.923	96.43
264.139	12.46
264.355	45.23
264.571	55.47
264.787	-12.12
265.004	57.51
265.22	-16.21
265.436	32.94
265.652	108.71
265.868	30.89
266.084	-28.5
266.3	53.42
266.516	-18.26
266.732	102.57
266.948	80.04
267.164	67.75
267.38	30.89
267.596	92.33
267.812	82.09
268.028	131.24
268.244	53.42
268.46	90.28
268.676	69.8
268.892	112.81
269.108	37.03
269.324	-20.31
269.54	61.61
269.756	77.99
269.972	28.84
270.188	55.47
270.403	51.37
270.619	41.13
270.835	26.79
271.051	57.51
271.267	-18.26
271.483	4.27
271.698	77.99
271.914	69.8
272.13	18.6
272.346	32.94
272.562	12.46
272.777	84.14
272.993	55.47
273.209	30.89
273.425	43.18
273.64	43.18
273.856	86.19
274.072	-16.21
274.287	67.75
274.503	8.36
274.719	96.43
274.934	63.66
275.15	-1.88
275.366	41.13
275.581	106.67
275.797	49.32
276.012	47.27
276.228	61.61
276.444	106.67
276.659	57.51
276.875	53.42
277.09	59.56
277.306	37.03
277.521	110.76
277.737	116.9
277.952	-26.45
278.168	32.94
278.383	102.57
278.599	98.47
278.814	77.99
279.03	32.94
279.245	61.61
279.461	30.89
279.676	49.32
279.892	55.47
280.107	-5.97
280.322	18.6
280.538	8.36
280.753	67.75
280.969	0.17
281.184	75.95
281.399	100.52
281.615	30.89
281.83	28.84
282.045	-3.93
282.26	88.23
282.476	106.67
282.691	18.6
282.906	82.09
283.122	98.47
283.337	90.28
283.552	80.04
283.767	141.48
283.983	102.57
284.198	6.31
284.413	59.56
284.628	24.75
284.843	45.23
285.058	112.81
285.274	69.8
285.489	45.23
285.704	39.08
285.919	28.84
286.134	90.28
286.349	26.79
286.564	47.27
286.779	80.04
286.995	57.51
287.21	12.46
287.425	43.18
287.64	0.17
287.855	61.61
288.07	43.18
288.285	108.71
288.5	92.33
288.715	47.27
288.93	84.14
289.145	37.03
289.36	108.71
289.575	-12.12
289.79	88.23
290.004	77.99
290.219	94.38
290.434	-3.93
290.649	94.38
290.864	100.52
291.079	51.37
291.294	55.47
291.509	88.23
291.724	67.75
291.938	104.62
292.153	129.19
292.368	121
292.583	55.47
292.798	-3.93
293.012	59.56
293.227	104.62
293.442	37.03
293.657	80.04
293.871	69.8
294.086	84.14
294.301	65.71
294.516	75.95
294.73	65.71
294.945	-28.5
295.16	80.04
295.374	41.13
295.589	84.14
295.804	51.37
296.018	121
296.233	174.25
296.447	71.85
296.662	-20.31
296.877	88.23
297.091	75.95
297.306	34.99
297.52	108.71
297.735	114.86
297.949	-36.69
298.164	41.13
298.378	-10.07
298.593	80.04
298.807	39.08
299.022	92.33
299.236	141.48
299.451	92.33
299.665	73.9
299.88	26.79
300.094	118.95
300.309	102.57
300.523	77.99
300.737	80.04
300.952	82.09
301.166	22.7
301.381	53.42
301.595	37.03
301.809	96.43
302.024	67.75
302.238	55.47
302.452	77.99
302.667	145.58
302.881	102.57
303.095	41.13
303.309	121
303.524	84.14
303.738	22.7
303.952	-14.17
304.166	75.95
304.381	75.95
304.595	86.19
304.809	73.9
305.023	24.75
305.237	32.94
305.452	61.61
305.666	86.19
305.88	121
306.094	57.51
306.308	-1.88
306.522	51.37
306.736	39.08
306.95	86.19
307.164	34.99
307.379	67.75
307.593	18.6
307.807	14.51
308.021	77.99
308.235	0.17
308.449	18.6
308.663	8.36
308.877	172.2
309.091	63.66
309.305	82.09
309.519	73.9
309.733	45.23
309.947	14.51
310.161	49.32
310.374	51.37
310.588	96.43
310.802	77.99
311.016	-16.21
311.23	71.85
311.444	2.22
311.658	41.13
311.872	77.99
312.085	61.61
312.299	90.28
312.513	45.23
312.727	18.6
312.941	84.14
313.154	71.85
313.368	26.79
313.582	53.42
313.796	-10.07
314.009	32.94
314.223	94.38
314.437	63.66
314.651	41.13
314.864	47.27
315.078	63.66
315.292	10.41
315.505	57.51
315.719	61.61
315.933	51.37
316.146	-8.02
316.36	77.99
316.573	18.6
316.787	63.66
317.001	26.79
317.214	41.13
317.428	90.28
317.641	90.28
317.855	26.79
318.068	110.76
318.282	49.32
318.495	86.19
318.709	114.86
318.922	18.6
319.136	-18.26
319.349	145.58
319.563	69.8
319.776	-5.97
319.99	49.32
320.203	143.53
320.417	57.51
320.63	32.94
320.843	51.37
321.057	102.57
321.27	77.99
321.483	20.65
321.697	67.75
321.91	41.13
322.124	67.75
322.337	53.42
322.55	4.27
322.763	59.56
322.977	82.09
323.19	67.75
323.403	75.95
323.617	129.19
323.83	51.37
324.043	141.48
324.256	94.38
324.469	112.81
324.683	84.14
324.896	82.09
325.109	-5.97
325.322	71.85
325.535	104.62
325.748	141.48
325.962	2.22
326.175	88.23
326.388	77.99
326.601	98.47
326.814	61.61
327.027	-24.4
327.24	75.95
327.453	30.89
327.666	63.66
327.879	104.62
328.092	84.14
328.305	4.27
328.518	98.47
328.731	45.23
328.944	39.08
329.157	100.52
329.37	71.85
329.583	39.08
329.796	65.71
330.009	-10.07
330.222	18.6
330.435	63.66
330.648	69.8
330.861	51.37
331.073	-1.88
331.286	121
331.499	75.95
331.712	51.37
331.925	28.84
332.138	69.8
332.35	143.53
332.563	30.89
332.776	102.57
332.989	63.66
333.202	73.9
333.414	57.51
333.627	53.42
333.84	77.99
334.053	39.08
334.265	80.04
334.478	84.14
334.691	53.42
334.903	106.67
335.116	104.62
335.329	59.56
335.541	57.51
335.754	153.77
335.966	102.57
336.179	102.57
336.392	135.34
336.604	80.04
336.817	84.14
337.029	37.03
337.242	47.27
337.454	71.85
337.667	71.85
337.88	102.57
338.092	67.75
338.305	143.53
338.517	53.42
338.729	86.19
338.942	96.43
339.154	4.27
339.367	10.41
339.579	37.03
339.792	65.71
340.004	112.81
340.217	53.42
340.429	61.61
340.641	82.09
340.854	55.47
341.066	-8.02
341.278	67.75
341.491	32.94
341.703	121
341.915	4.27
342.128	61.61
342.34	24.75
342.552	53.42
342.764	84.14
342.977	65.71
343.189	65.71
343.401	57.51
343.613	45.23
343.826	90.28
344.038	45.23
344.25	100.52
344.462	53.42
344.674	108.71
344.886	14.51
345.099	98.47
345.311	49.32
345.523	100.52
345.735	141.48
345.947	86.19
346.159	6.31
346.371	71.85
346.583	53.42
346.795	131.24
347.007	-3.93
347.219	49.32
347.431	4.27
347.643	104.62
347.855	94.38
348.067	67.75
348.279	-10.07
348.491	77.99
348.703	125.1
348.915	14.51
349.127	108.71
349.339	98.47
349.551	32.94
349.763	135.34
349.975	106.67
350.187	100.52
350.399	106.67
350.61	135.34
350.822	-8.02
351.034	121
351.246	121
351.458	88.23
351.669	67.75
351.881	39.08
352.093	67.75
352.305	59.56
352.517	-10.07
352.728	71.85
352.94	90.28
353.152	61.61
353.363	49.32
353.575	131.24
353.787	153.77
353.999	86.19
354.21	12.46
354.422	49.32
354.633	69.8
354.845	151.72
355.057	30.89
355.268	92.33
355.48	37.03
355.692	28.84
355.903	47.27
356.115	118.95
356.326	86.19
356.538	121
356.749	51.37
356.961	131.24
357.172	28.84
357.384	159.91
357.595	182.44
357.807	125.1
358.018	63.66
358.23	61.61
358.441	59.56
358.653	39.08
358.864	41.13
359.075	104.62
359.287	61.61
359.498	20.65
359.709	57.51
359.921	75.95
360.132	98.47
360.344	73.9
360.555	80.04
360.766	102.57
360.977	84.14
361.189	116.9
361.4	84.14
361.611	116.9
361.823	61.61
362.034	157.86
362.245	12.46
362.456	123.05
362.667	104.62
362.879	20.65
363.09	145.58
363.301	114.86
363.512	67.75
363.723	51.37
363.935	41.13
364.146	41.13
364.357	108.71
364.568	53.42
364.779	112.81
364.99	80.04
365.201	104.62
365.412	86.19
365.623	51.37
365.834	137.38
366.045	86.19
366.256	116.9
366.467	116.9
366.678	51.37
366.889	-38.74
367.1	73.9
367.311	30.89
367.522	53.42
367.733	26.79
367.944	139.43
368.155	129.19
368.366	114.86
368.577	80.04
368.788	32.94
368.999	112.81
369.209	59.56
369.42	137.38
369.631	143.53
369.842	137.38
370.053	94.38
370.264	63.66
370.474	86.19
370.685	139.43
370.896	4.27
371.107	65.71
371.317	53.42
371.528	26.79
371.739	164.01
371.95	112.81
372.16	69.8
372.371	14.51
372.582	67.75
372.792	84.14
373.003	90.28
373.214	75.95
373.424	94.38
373.635	12.46
373.846	98.47
374.056	92.33
374.267	75.95
374.477	94.38
374.688	145.58
374.898	135.34
375.109	49.32
375.319	98.47
375.53	118.95
375.74	84.14
375.951	43.18
376.161	71.85
376.372	137.38
376.582	-1.88
376.793	102.57
377.003	37.03
377.214	82.09
377.424	114.86
377.635	73.9
377.845	84.14
378.055	106.67
378.266	43.18
378.476	131.24
378.686	102.57
378.897	69.8
379.107	104.62
379.317	12.46
379.528	80.04
379.738	110.76
379.948	106.67
380.158	127.14
380.369	155.82
380.579	55.47
380.789	92.33
380.999	59.56
381.21	153.77
381.42	61.61
381.63	80.04
381.84	98.47
382.05	104.62
382.261	65.71
382.471	49.32
382.681	116.9
382.891	149.67
383.101	71.85
383.311	139.43
383.521	47.27
383.731	53.42
383.941	133.29
384.151	108.71
384.361	112.81
384.571	108.71
384.781	106.67
384.991	135.34
385.201	139.43
385.411	92.33
385.621	104.62
385.831	153.77
386.041	108.71
386.251	108.71
386.461	110.76
386.671	116.9
386.881	104.62
387.091	88.23
387.301	73.9
387.511	100.52
387.72	141.48
387.93	159.91
388.14	116.9
388.35	110.76
388.56	112.81
388.769	141.48
388.979	71.85
389.189	90.28
389.399	77.99
389.609	139.43
389.818	116.9
390.028	139.43
390.238	112.81
390.447	108.71
390.657	96.43
390.867	92.33
391.076	104.62
391.286	61.61
391.496	77.99
391.705	110.76
391.915	151.72
392.125	127.14
392.334	90.28
392.544	96.43
392.753	116.9
392.963	90.28
393.172	190.63
393.382	82.09
393.591	161.96
393.801	135.34
394.01	141.48
394.22	98.47
394.429	77.99
394.639	145.58
394.848	112.81
395.058	55.47
395.267	157.86
395.477	114.86
395.686	139.43
395.895	102.57
396.105	153.77
396.314	147.62
396.524	118.95
396.733	123.05
396.942	182.44
397.152	147.62
397.361	202.92
397.57	116.9
397.78	164.01
397.989	135.34
398.198	207.02
398.407	170.15
398.617	168.1
398.826	159.91
399.035	194.73
399.244	125.1
399.453	59.56
399.663	110.76
399.872	145.58
400.081	88.23
400.29	196.78
400.499	106.67
400.708	188.58
400.917	204.97
401.127	133.29
401.336	155.82
401.545	172.2
401.754	186.54
401.963	186.54
402.172	139.43
402.381	180.39
402.59	172.2
402.799	225.45
403.008	157.86
403.217	170.15
403.426	229.54
403.635	207.02
403.844	186.54
404.053	217.26
404.262	166.06
404.471	245.93
404.68	170.15
404.888	262.31
405.097	276.65
405.306	184.49
405.515	288.93
405.724	213.16
405.933	293.03
406.142	168.1
406.35	282.79
406.559	315.56
406.768	286.89
406.977	356.52
407.185	297.13
407.394	286.89
407.603	229.54
407.812	270.5
408.02	432.29
408.229	311.46
408.438	428.2
408.646	284.84
408.855	352.42
409.064	413.86
409.272	426.15
409.481	454.82
409.69	415.91
409.898	499.88
410.107	503.97
410.315	469.16
410.524	481.44
410.733	489.64
410.941	489.64
411.15	557.22
411.358	477.35
411.567	606.37
411.775	600.23
411.984	579.75
412.192	594.08
412.401	600.23
412.609	657.57
412.818	757.92
413.026	848.03
413.234	735.39
413.443	802.97
413.651	833.69
413.86	811.17
414.068	888.99
414.276	991.39
414.485	932
414.693	989.34
414.901	1032.35
415.11	1132.7
415.318	1093.79
415.526	1083.55
415.734	1058.97
415.943	1106.07
416.151	1212.57
416.359	1218.71
416.567	1228.95
416.776	1267.86
416.984	1509.52
417.192	1370.26
417.4	1435.8
417.608	1480.85
417.817	1482.9
418.025	1497.24
418.233	1661.07
418.441	1632.4
418.649	1757.33
418.857	1814.67
419.065	1882.25
419.273	1810.58
419.481	2068.62
419.689	2111.63
419.897	2265.22
420.105	2214.02
420.313	2199.69
420.521	2252.94
420.729	2345.09
420.937	2490.5
421.145	2597
421.353	2656.39
421.561	2746.5
421.769	2900.09
421.977	2926.72
422.185	2945.15
422.393	3100.8
422.601	3328.12
422.809	3342.46
423.017	3252.35
423.224	3364.98
423.432	3477.62
423.64	3713.14
423.848	4126.83
424.056	3782.77
424.263	4104.3
424.471	4284.52
424.679	4268.14
424.887	4565.09
425.094	4530.28
425.302	4681.83
425.51	4690.02
425.718	4804.71
425.925	4956.26
426.133	5111.9
426.341	5382.23
426.548	5593.17
426.756	5638.23
426.964	5853.27
427.171	6164.56
427.379	6445.13
427.586	6336.59
427.794	6645.83
428.001	6922.31
428.209	7170.11
428.417	6975.55
428.624	7469.11
428.832	7546.94
429.039	7532.6
429.247	7575.61
429.454	8157.23
429.662	8798.24
429.869	8206.38
430.076	8943.65
430.284	8628.26
430.491	8871.97
430.699	9531.42
430.906	9461.79
431.114	9611.29
431.321	10156.05
431.528	10229.77
431.736	10747.91
431.943	11216.9
432.15	10971.14
432.358	10883.08
432.565	11669.5
432.772	11700.22
432.979	12445.68
433.187	12451.82
433.394	12480.49
433.601	13305.82
433.808	13453.28
434.016	13322.21
434.223	13903.83
434.43	14909.38
434.637	14370.77
434.844	15247.3
435.052	15757.24
435.259	15484.86
435.466	15716.28
435.673	15589.31
435.88	16375.73
436.087	17168.29
436.294	17291.17
436.501	17041.32
436.708	17383.33
436.915	18194.33
437.122	18700.17
437.329	18599.82
437.537	19621.76
437.743	19711.87
437.95	19468.16
438.157	20537.2
438.364	21452.64
438.571	21180.26
438.778	21215.08
438.985	23342.92
439.192	22271.83
439.399	23197.51
439.606	22462.29
439.813	23779.14
440.02	25243.43
440.227	24342.33
440.433	24309.56
440.64	25497.38
440.847	25413.41
441.054	25843.49
441.261	27787.01
441.467	27086.61
441.674	27875.07
441.881	28958.45
442.088	28880.63
442.294	28362.49
442.501	29544.17
442.708	29716.2
442.914	30957.27
443.121	32165.57
443.328	31530.7
443.534	33875.62
443.741	32788.15
443.948	32345.79
444.154	34424.48
444.361	34160.29
444.568	34731.67
444.774	34537.12
444.981	34809.5
445.187	36429.44
445.394	37342.83
445.6	37764.71
445.807	40566.34
446.013	39005.78
446.22	39738.96
446.426	41336.37
446.633	41369.14
446.839	42714.65
447.046	41422.39
447.252	43472.4
447.459	43429.4
447.665	43296.28
447.871	45141.5
448.078	47224.28
448.284	45047.29
448.491	45983.21
448.697	48010.7
448.903	48502.21
449.11	48569.8
449.316	48045.52
449.522	48991.68
449.728	50083.25
449.935	50216.36
450.141	50208.17
450.347	51772.82
450.553	50519.46
450.76	50593.19
450.966	52508.04
451.172	51471.77
451.378	53116.29
451.584	51699.09
451.791	53026.18
451.997	53181.82
452.203	54209.9
452.409	54060.4
452.615	53446.01
452.821	52100.5
453.027	51467.67
453.233	53726.58
453.44	52407.69
453.646	52657.54
453.852	52620.68
454.058	53882.23
454.264	51793.3
454.47	53120.38
454.676	51500.44
454.882	53796.21
455.088	48795.07
455.294	49520.06
455.5	50578.85
455.705	51035.55
455.911	49040.83
456.117	48057.81
456.323	47533.53
456.529	45047.29
456.735	46859.74
456.941	45778.42
457.147	44957.18
457.352	43730.45
457.558	43200.02
457.764	43343.38
457.97	42673.7
458.176	41332.28
458.381	41528.88
458.587	39485.01
458.793	39560.78
458.999	37543.53
459.204	40296
459.41	39433.81
459.616	36669.05
459.821	36570.75
460.027	36746.87
460.233	35712.65
460.438	34330.27
460.644	34580.12
460.85	33023.67
461.055	32296.64
461.261	31923.91
461.466	29865.7
461.672	29009.65
461.878	31162.06
462.083	29099.76
462.289	28702.45
462.494	28315.39
462.7	26967.82
462.905	26152.73
463.111	27299.59
463.316	27105.04
463.522	26517.27
463.727	26611.48
463.932	26636.05
464.138	26308.38
464.343	26394.39
464.549	25544.48
464.754	26275.61
464.959	26021.66
465.165	25802.53
465.37	24887.09
465.575	24485.69
465.781	25564.96
465.986	25653.03
466.191	24493.88
466.397	23732.03
466.602	22904.65
466.807	23914.3
467.012	23680.83
467.218	23750.46
467.423	23482.18
467.628	23500.61
467.833	24762.16
468.038	23588.67
468.244	23105.35
468.449	23904.06
468.654	23013.2
468.859	22984.52
469.064	22658.9
469.269	21968.73
469.474	22083.42
469.679	22570.83
469.885	21481.31
470.09	21954.4
470.295	21997.4
470.5	21526.37
470.705	21464.93
470.91	21100.39
471.115	21090.15
471.32	21090.15
471.525	21204.84
471.73	20531.06
471.935	20524.91
472.139	19814.27
472.344	19951.48
472.549	19666.81
472.754	19664.77
472.959	19142.53
473.164	18849.68
473.369	18794.38
473.574	19455.87
473.778	19107.72
473.983	19036.04
474.188	18755.47
474.393	18216.85
474.598	18128.79
474.802	18053.02
475.007	18102.17
475.212	18065.3
475.417	16822.19
475.621	17250.21
475.826	17397.67
476.031	16693.16
476.235	16568.24
476.44	17121.19
476.645	16549.81
476.849	16619.44
477.054	16332.72
477.259	16109.49
477.463	15767.48
477.668	15583.16
477.872	15878.07
478.077	15556.54
478.282	15222.72
478.486	15247.3
478.691	15169.48
478.895	14960.58
479.1	14700.49
479.304	14735.31
479.509	14299.09
479.713	14792.65
479.918	14550.99
480.122	14092.24
480.326	14387.15
480.531	14391.25
480.735	14051.28
480.94	14165.97
481.144	14493.65
481.348	13930.45
481.553	13971.41
481.757	13692.89
481.961	13901.78
482.166	14219.22
482.37	13922.26
482.574	13604.83
482.778	13817.82
482.983	14186.45
483.187	13768.66
483.391	13909.97
483.595	13834.2
483.8	13645.79
484.004	13608.92
484.208	13776.86
484.412	13551.58
484.616	13783
484.821	13680.6
485.025	13490.14
485.229	13965.27
485.433	13846.49
485.637	13696.99
485.841	13559.77
486.045	13653.98
486.249	13553.63
486.453	13688.79
486.657	13625.31
486.861	13690.84
487.065	13328.35
487.269	13506.52
487.473	13512.67
487.677	13862.87
487.881	13701.08
488.085	13694.94
488.289	13813.72
488.493	13625.31
488.697	13879.25
488.901	13780.95
489.105	13742.04
489.309	13846.49
489.512	14063.57
489.716	14020.56
489.92	14079.96
490.124	13795.29
490.328	14116.82
490.531	13772.76
490.735	13920.21
490.939	14135.25
491.143	14163.92
491.346	13770.71
491.55	14225.36
491.754	14233.55
491.958	14270.42
492.161	14170.07
492.365	14421.97
492.569	14258.13
492.772	14546.89
492.976	14464.97
493.18	14677.96
493.383	15044.55
493.587	14745.55
493.79	15028.17
493.994	14667.72
494.197	14909.38
494.401	15314.88
494.605	15161.28
494.808	15216.58
495.012	15507.39
495.215	15341.5
495.419	15525.82
495.622	15466.43
495.825	16093.11
496.029	15923.13
496.232	16068.53
496.436	16046.01
496.639	16234.42
496.843	16525.23
497.046	16900.01
497.249	16687.02
497.453	17227.68
497.656	17199.01
497.859	17153.96
498.063	17180.58
498.266	17676.19
498.469	17573.79
498.673	17807.26
498.876	17967
499.079	18237.33
499.282	18266
499.485	18964.36
499.689	18714.51
499.892	18661.26
500.095	19132.29
500.298	19584.9
500.501	19482.5
500.705	19795.84
500.908	20098.94
501.111	20289.4
501.314	20211.57
501.517	20412.28
501.72	20971.37
501.923	20787.05
502.126	21167.98
502.329	21579.62
502.532	21829.47
502.735	21823.33
502.938	22228.82
503.141	22464.34
503.344	22837.07
503.547	22521.68
503.75	23283.53
503.953	23498.56
504.156	23316.29
504.359	23770.94
504.562	23738.18
504.765	24385.33
504.968	24667.95
505.17	24942.38
505.373	24717.11
505.576	25364.26
505.779	25605.92
505.982	25530.15
506.185	26197.79
506.387	26257.18
506.59	26527.51
506.793	27004.69
506.996	26898.19
507.198	27631.37
507.401	27492.1
507.604	27875.07
507.807	28335.87
508.009	28335.87
508.212	28593.91
508.415	29120.24
508.617	29589.22
508.82	29357.8
509.022	29398.76
509.225	30187.23
509.428	30451.42
509.63	30762.71
509.833	31010.51
510.035	31641.29
510.238	31413.96
510.44	31749.83
510.643	32132.8
510.845	32038.59
511.048	32028.35
511.25	32755.38
511.453	32937.65
511.655	34029.22
511.858	33220.27
512.06	33699.5
512.262	34094.75
512.465	34442.91
512.667	34924.18
512.87	34987.67
513.072	35518.09
513.274	36015.75
513.477	35917.45
513.679	36601.47
513.881	36879.99
514.084	37224.05
514.286	36980.34
514.488	37133.94
514.69	38096.49
514.893	38424.16
515.095	38235.75
515.297	39231.06
515.499	38970.97
515.701	39355.99
515.904	39738.96
516.106	40347.2
516.308	40578.62
516.51	41016.89
516.712	40898.11
516.914	41399.86
517.116	41856.56
517.318	42057.26
517.52	42173.99
517.722	42604.06
517.925	43183.64
518.127	43574.8
518.329	43109.91
518.531	43574.8
518.733	44441.09
518.935	44299.78
519.136	44451.33
519.338	45239.8
519.54	45456.89
519.742	45424.12
519.944	45739.5
520.146	46239.21
520.348	46415.33
520.55	46951.9
520.752	47209.95
520.954	47652.31
521.155	47242.71
521.357	48088.52
521.559	48506.31
521.761	49042.88
521.963	48623.04
522.164	48725.44
522.366	49538.49
522.568	49622.45
522.77	49776.05
522.971	50859.43
523.173	49851.83
523.375	50410.92
523.576	50908.58
523.778	50746.79
523.98	51346.84
524.181	51723.67
524.383	51490.2
524.584	52174.22
524.786	52329.87
524.988	51930.51
525.189	52817.28
525.391	52712.84
525.592	53075.33
525.794	53147.01
525.995	53572.99
526.197	53151.1
526.398	53730.68
526.6	53978.48
526.801	53867.89
527.003	54113.65
527.204	54003.06
527.406	54470
527.607	54277.49
527.808	54529.39
528.01	54300.01
528.211	54429.04
528.412	55541.08
528.614	55070.05
528.815	55307.61
529.016	55889.24
529.218	55111.01
529.419	55096.67
529.62	55508.32
529.822	55602.52
530.023	55588.19
530.224	55692.63
530.425	55727.45
530.626	55213.41
530.828	55487.84
531.029	56186.19
531.23	55313.76
531.431	55649.63
531.632	55766.36
531.833	56499.53
532.035	55911.77
532.236	56178
532.437	56737.1
532.638	56001.88
532.839	56505.68
533.04	56186.19
533.241	55725.4
533.442	57025.86
533.643	56769.86
533.844	56188.24
534.045	56362.32
534.246	55915.86
534.447	56442.19
534.648	56196.43
534.849	56440.14
535.05	55682.39
535.251	56503.63
535.451	56098.13
535.652	56487.24
535.853	56278.35
536.054	56390.99
536.255	56765.77
536.456	56333.65
536.657	56909.13
536.857	56503.63
537.058	56552.78
537.259	56671.56
537.46	56208.72
537.66	56122.71
537.861	56247.63
538.062	56145.23
538.263	56753.48
538.463	55985.49
538.664	56384.85
538.865	56229.2
539.065	56565.07
539.266	55762.26
539.466	56520.01
539.667	56145.23
539.868	56710.47
540.068	56372.56
540.269	56337.74
540.469	56581.45
540.67	55928.15
540.87	55997.78
541.071	56292.69
541.271	55795.03
541.472	55876.95
541.672	56171.86
541.873	56096.08
542.073	55399.77
542.274	56405.33
542.474	55907.67
542.675	55539.04
542.875	55688.54
543.075	56186.19
543.276	55418.21
543.476	56331.6
543.676	56276.3
543.877	55913.81
544.077	55962.96
544.277	55356.77
544.478	55504.22
544.678	56143.19
544.878	55602.52
545.078	55897.43
545.279	55520.6
545.479	55270.75
545.679	55913.81
545.879	55364.96
546.079	55899.48
546.28	55536.99
546.48	55305.57
546.68	55383.39
546.88	55354.72
547.08	55653.72
547.28	55211.36
547.48	54932.84
547.68	55266.66
547.88	55170.4
548.081	55348.57
548.281	55586.14
548.481	55197.02
548.681	55805.27
548.881	55493.98
549.081	55031.14
549.28	55080.29
549.48	55676.25
549.68	55455.07
549.88	56016.21
550.08	55225.7
550.28	55094.63
550.48	55387.49
550.68	55502.17
550.88	55344.48
551.08	55123.3
551.279	55358.81
551.479	54836.58
551.679	55160.16
551.879	54891.88
552.079	55434.59
552.278	54578.54
552.478	54635.88
552.678	55094.63
552.878	54955.36
553.077	55184.74
553.277	54435.18
553.477	55010.66
553.676	55020.9
553.876	54947.17
554.076	54709.61
554.275	54902.12
554.475	54578.54
554.674	54740.33
554.874	54265.2
555.074	54646.12
555.273	54521.19
555.473	54646.12
555.672	54617.45
555.872	54680.94
556.071	54228.34
556.271	54715.75
556.47	54343.02
556.67	54310.25
556.869	54406.51
557.068	54265.2
557.268	53495.16
557.467	54388.08
557.667	54246.77
557.866	54250.86
558.065	54125.94
558.265	53992.82
558.464	53665.14
558.663	54326.64
558.863	53712.25
559.062	54381.93
559.261	53489.02
559.461	54244.72
559.66	53382.52
559.859	53740.92
560.058	53509.5
560.258	53708.15
560.457	53335.42
560.656	53689.72
560.855	53288.32
561.054	53493.11
561.253	52837.76
561.453	53058.95
561.652	53468.54
561.851	53327.23
562.05	52934.02
562.249	52831.62
562.448	53142.91
562.647	52874.63
562.846	52893.06
563.045	52776.33
563.244	52751.75
563.443	53079.42
563.642	51950.99
563.841	52194.7
564.04	52084.11
564.239	52532.62
564.438	52272.53
564.637	52368.78
564.836	52372.88
565.035	52071.82
565.234	52149.65
565.432	51987.86
565.631	51705.24
565.83	52206.99
566.029	51666.33
566.228	51649.94
566.427	51658.13
566.625	51699.09
566.824	51015.07
567.023	51944.85
567.222	51096.99
567.42	51754.39
567.619	51670.42
567.818	51051.94
568.016	50967.97
568.215	51285.4
568.414	51033.5
568.612	51174.81
568.811	50775.46
569.01	50902.43
569.208	50384.3
569.407	50703.78
569.605	50488.74
569.804	51176.86
570.002	50130.35
570.201	50343.34
570.4	49821.11
570.598	50257.32
570.797	49595.83
570.995	49948.08
571.193	49388.99
571.392	49923.5
571.59	49845.68
571.789	49214.91
571.987	49460.66
572.186	49356.22
572.384	49853.87
572.582	49892.79
572.781	49735.09
572.979	48469.45
573.177	49219
573.376	49307.07
573.574	49423.8
573.772	49059.26
573.971	48637.38
574.169	48403.91
574.367	48094.67
574.565	48721.35
574.763	48397.77
574.962	48041.42
575.16	47992.27
575.358	48324.04
575.556	47560.15
575.754	48336.33
575.952	47762.9
576.151	48125.39
576.349	47674.84
576.547	47275.48
576.745	47672.79
576.943	47680.98
577.141	47635.92
577.339	47338.97
577.537	47009.25
577.735	47205.85
577.933	47093.21
578.131	47255
578.329	46452.2
578.527	46231.02
578.725	46444.01
578.923	46591.46
579.121	46357.99
579.319	46337.51
579.516	46781.92
579.714	46491.11
579.912	45647.35
580.11	46464.49
580.308	46366.18
580.506	45846
580.704	45544.95
580.901	45895.15
581.099	45850.1
581.297	44953.08
581.495	45211.13
581.692	45370.87
581.89	44946.94
582.088	45286.9
582.285	44822.01
582.483	44862.97
582.681	44768.77
582.878	44772.86
583.076	44619.27
583.274	44858.88
583.471	44262.92
583.669	44037.64
583.866	44381.7
584.064	44596.74
584.262	43521.55
584.459	44281.35
584.657	43781.65
584.854	44164.62
585.052	43306.52
585.249	43730.45
585.447	43744.78
585.644	43347.48
585.841	43638.29
586.039	43159.06
586.236	43089.43
586.434	43183.64
586.631	42749.47
586.828	42927.64
587.026	42886.68
587.223	42372.64
587.42	42472.99
587.618	42438.18
587.815	41786.93
588.012	41840.17
588.21	42298.92
588.407	42270.25
588.604	41721.39
588.801	41373.24
588.999	41489.97
589.196	41633.33
589.393	41539.12
589.59	41086.52
589.787	41150.01
589.984	40859.2
590.182	40738.37
590.379	41391.67
590.576	40730.17
590.773	40568.38
590.97	40504.9
591.167	40597.06
591.364	40193.61
591.561	40425.03
591.758	40029.77
591.955	39853.64
592.152	40439.36
592.349	39538.26
592.546	40293.96
592.743	39837.26
592.94	38852.19
593.137	39480.91
593.334	39839.31
593.531	38905.43
593.727	39147.09
593.924	39401.04
594.121	38882.91
594.318	39224.92
594.515	38444.64
594.712	38901.34
594.908	38280.8
595.105	38719.07
595.302	37916.26
595.499	38127.2
595.696	38141.54
595.892	38151.78
596.089	38178.4
596.286	38188.64
596.482	38035.05
596.679	37496.43
596.876	37631.6
597.072	37543.53
597.269	37394.03
597.466	37043.83
597.662	36904.57
597.859	36961.91
598.055	37211.76
598.252	36851.32
598.448	36886.14
598.645	36707.96
598.841	36159.11
599.038	36834.94
599.234	36449.92
599.431	36064.9
599.627	35985.03
599.824	36300.42
600.02	35595.92
600.217	36284.03
600.413	35892.87
600.609	35651.21
600.806	35212.95
601.002	35692.17
601.198	35255.95
601.395	34852.5
601.591	34872.98
601.787	35006.1
601.984	34821.78
602.18	35012.24
602.376	34549.4
602.572	34404
602.769	34819.74
602.965	33969.83
603.161	34780.82
603.357	34143.91
603.553	33932.96
603.75	34053.8
603.946	33740.46
604.142	34102.95
604.338	33535.66
604.534	33724.07
604.73	33871.53
604.926	33570.47
605.122	33543.85
605.318	33289.9
605.514	33238.7
605.71	33009.33
605.906	33115.83
606.102	33234.61
606.298	33093.3
606.494	32929.46
606.69	32693.94
606.886	32548.54
607.082	32028.35
607.278	32685.75
607.474	32419.52
607.67	32695.99
607.866	31848.13
608.062	32356.03
608.257	32177.86
608.453	32206.53
608.649	32057.03
608.845	32036.55
609.041	32022.21
609.236	31903.43
609.432	31803.08
609.628	31721.16
609.824	31571.66
610.019	31393.48
610.215	31299.28
610.411	31938.24
610.606	31561.42
610.802	31473.35
610.998	31678.15
611.193	31299.28
611.389	31166.16
611.584	31137.49
611.78	31198.93
611.976	31250.13
612.171	31028.95
612.367	31084.24
612.562	31198.93
612.758	30471.9
612.953	30791.38
613.149	31084.24
613.344	30381.79
613.539	31094.48
613.735	30555.86
613.93	31033.04
614.126	30682.84
614.321	30920.4
614.517	30502.62
614.712	30338.78
614.907	30699.22
615.103	30566.1
615.298	30273.24
615.493	30588.63
615.688	29873.89
615.884	30590.68
616.079	29849.32
616.274	30117.6
616.47	29562.6
616.665	29933.28
616.86	29634.28
617.055	29513.45
617.25	29406.95
617.445	29988.58
617.641	29005.55
617.836	29847.27
618.031	28978.93
618.226	29578.98
618.421	29224.68
618.616	29300.46
618.811	28524.28
619.006	29443.82
619.201	28657.4
619.396	28593.91
619.591	28362.49
619.786	28735.22
619.981	28112.64
620.176	28499.7
620.371	27959.04
620.566	28401.4
620.761	27823.87
620.956	28184.32
621.151	27537.16
621.346	28053.25
621.541	27541.25
621.735	27768.58
621.93	27037.45
622.125	27092.75
622.32	26832.66
622.515	27154.19
622.709	26705.68
622.904	26709.78
623.099	26601.24
623.294	26220.31
623.488	26195.74
623.683	26543.89
623.878	25992.99
624.072	26048.29
624.267	25939.74
624.462	25521.96
624.656	25491.24
624.851	25513.77
625.046	25231.15
625.24	25212.71
625.435	24991.53
625.629	24895.28
625.824	25163.56
626.018	24743.73
626.213	24053.56
626.407	24524.6
626.602	23912.25
626.796	24080.19
626.991	24137.53
627.185	23934.78
627.38	23996.22
627.574	23566.15
627.768	23517
627.963	23564.1
628.157	22906.7
628.352	23486.28
628.546	23105.35
628.74	23304.01
628.935	22812.49
629.129	22648.66
629.323	22482.77
629.517	22333.27
629.712	22454.1
629.906	22005.59
630.1	21817.18
630.294	22011.74
630.489	21692.26
630.683	21909.34
630.877	21163.88
631.071	21491.55
631.265	21585.76
631.459	21462.88
631.653	21145.45
631.848	20954.99
632.042	20598.64
632.236	21264.23
632.43	20590.45
632.624	20785.01
632.818	20533.11
633.012	20428.66
633.206	20158.33
633.4	20518.77
633.594	20096.89
633.788	19888
633.982	19986.3
634.176	19824.51
634.369	19746.69
634.563	19767.17
634.757	19527.55
634.951	19627.9
635.145	19505.03
635.339	19509.12
635.533	19044.23
635.726	19296.13
635.92	19003.27
636.114	18808.72
636.308	18827.15
636.501	18966.41
636.695	18751.37
636.889	18501.52
637.083	18309.01
637.276	18325.4
637.47	18216.85
637.664	17936.28
637.857	18030.49
638.051	18149.27
638.244	18024.34
638.438	17899.42
638.632	17711
638.825	17526.69
639.019	17581.98
639.212	17266.6
639.406	17440.67
639.599	17362.85
639.793	17350.56
639.986	17217.44
640.18	17115.05
640.373	16809.9
640.567	16781.23
640.76	16916.39
640.954	16560.05
641.147	16682.92
641.34	16553.9
641.534	16578.48
641.727	16469.94
641.92	16533.42
642.114	16211.89
642.307	16074.68
642.5	16052.15
642.694	15771.58
642.887	15810.49
643.08	15972.28
643.273	15835.07
643.467	15540.16
643.66	15421.38
643.853	15364.03
644.046	15302.59
644.239	15245.25
644.432	15337.41
644.626	14989.25
644.819	15038.41
645.012	14901.19
645.205	15026.12
645.398	15079.36
645.591	14856.14
645.784	14696.39
645.977	14469.07
646.17	14888.9
646.363	14520.27
646.556	14426.06
646.749	14311.38
646.942	14327.76
647.135	14247.89
647.328	14145.49
647.521	14258.13
647.714	13750.23
647.907	14131.16
648.099	13766.62
648.292	13760.47
648.485	13805.53
648.678	13291.49
648.871	13754.33
649.064	13301.73
649.256	13488.09
649.449	13324.26
649.642	13580.25
649.835	13152.23
650.027	12935.14
650.22	12974.05
650.413	12945.38
650.605	12910.57
650.798	12691.43
650.991	12658.67
651.183	13037.54
651.376	12652.52
651.568	12746.73
651.761	12617.71
651.954	12586.99
652.146	12394.48
652.339	12333.04
652.531	12412.91
652.724	12308.46
652.916	12046.32
653.109	12042.23
653.301	12023.8
653.494	11962.36
653.686	11841.53
653.879	11835.38
654.071	11837.43
654.263	11747.32
654.456	11620.35
654.648	11687.93
654.84	11479.04
655.033	11515.9
655.225	11509.76
655.417	11509.76
655.61	11284.48
655.802	11243.52
655.994	11020.29
656.186	11229.18
656.379	11216.9
656.571	10975.24
656.763	10809.35
656.955	10838.02
657.148	10903.56
657.34	10840.07
657.532	10758.15
657.724	10526.73
657.916	10543.11
658.108	10758.15
658.3	10483.72
658.492	10582.03
658.684	10264.59
658.876	10321.93
659.068	10477.58
659.26	10190.86
659.452	10154
659.644	10342.41
659.836	10057.75
660.028	10059.79
660.22	9826.32
660.412	10070.03
660.604	9949.2
660.796	9977.87
660.988	9725.97
661.18	9803.8
661.372	9508.89
661.563	9807.89
661.755	9582.62
661.947	9484.31
662.139	9547.8
662.331	9431.07
662.522	9379.87
662.714	9318.43
662.906	9201.69
663.097	9275.42
663.289	9162.78
663.481	9240.61
663.673	9285.66
663.864	9189.41
664.056	8988.71
664.247	9082.91
664.439	8849.44
664.631	8841.25
664.822	8884.26
665.014	8828.96
665.205	8714.28
665.397	8728.61
665.588	8589.35
665.78	8570.92
665.971	8380.46
666.163	8697.89
666.354	8464.43
666.546	8349.74
666.737	8419.37
666.929	8382.51
667.12	8409.13
667.311	8216.62
667.503	8218.67
667.694	8300.59
667.885	8040.5
668.077	8161.33
668.268	8054.83
668.459	7925.81
668.651	8013.87
668.842	7948.34
669.033	8032.3
669.224	7813.17
669.416	7759.92
669.607	7907.38
669.798	7710.77
669.989	7809.08
670.18	7751.73
670.371	7526.46
670.563	7567.42
670.754	7571.51
670.945	7411.77
671.136	7430.2
671.327	7372.86
671.518	7268.41
671.709	7397.43
671.9	7401.53
672.091	7331.9
672.282	7286.84
672.473	7055.42
672.664	7147.58
672.855	7086.14
673.046	7286.84
673.237	7260.22
673.428	7030.85
673.619	7073.85
673.809	6965.31
674	7049.28
674.191	6862.91
674.382	7024.7
674.573	6840.39
674.764	6969.41
674.954	6850.63
675.145	6869.06
675.336	6877.25
675.527	6783.04
675.717	6850.63
675.908	6535.24
676.099	6719.56
676.289	6611.01
676.48	6729.8
676.671	6484.04
676.861	6582.34
677.052	6457.42
677.243	6563.91
677.433	6475.85
677.624	6408.26
677.814	6348.87
678.005	6477.9
678.195	6565.96
678.386	6365.26
678.576	6320.2
678.767	6289.48
678.957	6322.25
679.148	6088.78
679.338	6254.67
679.529	6277.19
679.719	6119.5
679.909	6101.07
680.1	6058.06
680.29	6004.82
680.481	5996.62
680.671	5992.53
680.861	6156.36
681.052	6027.34
681.242	5951.57
681.432	6103.12
681.622	6017.1
681.813	5959.76
682.003	6045.77
682.193	5742.68
682.383	5843.03
682.573	5564.5
682.764	5689.43
682.954	5994.58
683.144	5580.89
683.334	5761.11
683.524	5783.63
683.714	5716.05
683.904	5754.96
684.094	5578.84
684.284	5552.21
684.474	5603.41
684.664	5337.18
684.854	5654.61
685.044	5552.21
685.234	5494.87
685.424	5423.19
685.614	5503.06
685.804	5480.54
685.994	5537.88
686.184	5349.47
686.374	5398.62
686.564	5249.11
686.753	5433.43
686.943	5298.27
687.133	5261.4
687.323	5290.07
687.513	5195.87
687.702	5105.76
687.892	5249.11
688.082	5173.34
688.272	5165.15
688.461	5126.24
688.651	5095.52
688.841	4999.26
689.03	5052.51
689.22	4913.25
689.41	4946.02
689.599	5066.85
689.789	4954.21
689.979	4876.38
690.168	4782.18
690.358	4909.15
690.547	4929.63
690.737	4784.23
690.926	4718.69
691.116	4622.44
691.305	4675.68
691.495	4601.96
691.684	4546.66
691.874	4694.12
692.063	4644.96
692.252	4448.36
692.442	4540.52
692.631	4497.51
692.82	4653.16
693.01	4474.98
693.199	4597.86
693.388	4464.74
693.578	4526.18
693.767	4415.59
693.956	4335.72
694.146	4323.43
694.335	4393.06
694.524	4313.19
694.713	4341.86
694.902	4335.72
695.092	4235.37
695.281	4210.79
695.47	4270.19
695.659	4259.95
695.848	4106.35
696.037	4229.23
696.226	4147.31
696.415	4190.31
696.604	4173.93
696.793	4057.2
696.982	4331.62
697.171	4055.15
697.36	4112.49
697.549	4098.16
697.738	4130.92
697.927	4063.34
698.116	4104.3
698.305	4061.29
698.494	3883.12
698.683	3915.89
698.872	4018.29
699.061	3827.82
699.25	3934.32
699.438	4014.19
699.627	3838.06
699.816	4051.05
700.005	3960.94
700.193	3840.11
700.382	3934.32
700.571	3883.12
700.76	3952.75
700.948	3893.36
701.137	3864.69
701.326	3819.63
701.514	3811.44
701.703	3663.99
701.892	3704.95
702.08	3758.19
702.269	3850.35
702.457	3682.42
702.646	3706.99
702.834	3668.08
703.023	3717.23
703.212	3717.23
703.4	3623.03
703.589	3625.08
703.777	3663.99
703.965	3690.61
704.154	3700.85
704.342	3659.89
704.531	3649.65
704.719	3608.69
704.907	3584.12
705.096	3629.17
705.284	3549.3
705.472	3711.09
705.661	3680.37
705.849	3594.36
706.037	3575.92
706.226	3555.44
706.414	3403.89
706.602	3557.49
706.79	3668.08
706.979	3520.63
707.167	3571.83
707.355	3451
707.543	3453.05
707.731	3444.85
707.919	3590.26
708.107	3410.04
708.296	3502.2
708.484	3377.27
708.672	3451
708.86	3448.95
709.048	3463.29
709.236	3410.04
709.424	3575.92
709.612	3385.46
709.8	3324.02
709.988	3426.42
710.176	3391.61
710.364	3397.75
710.551	3508.34
710.739	3401.85
710.927	3545.2
711.115	3362.94
711.303	3469.43
711.491	3371.13
711.679	3426.42
711.866	3391.61
712.054	3383.42
712.242	3418.23
712.43	3524.72
712.617	3254.39
712.805	3229.82
712.993	3151.99
713.181	3266.68
713.368	3352.7
713.556	3238.01
713.744	3182.71
713.931	3391.61
714.119	3244.15
714.306	3520.63
714.494	3303.54
714.682	3289.21
714.869	3295.35
715.057	3393.65
715.244	3211.39
715.432	3252.35
715.619	3385.46
715.807	3311.74
715.994	3186.81
716.182	3149.95
716.369	3207.29
716.556	3252.35
716.744	3143.8
716.931	3117.18
717.119	3256.44
717.306	3205.24
717.493	3217.53
717.681	3227.77
717.868	3158.14
718.055	3209.34
718.242	3248.25
718.43	3305.59
718.617	3078.27
718.804	3221.63
718.991	3123.32
719.179	3154.04
719.366	3250.3
719.553	3221.63
719.74	3174.52
719.927	3313.78
720.114	3031.16
720.301	3195
720.488	3178.62
720.676	3182.71
720.863	3190.91
721.05	3129.47
721.237	3074.17
721.424	3125.37
721.611	3154.04
721.798	3164.28
721.985	3135.61
722.172	3002.49
722.358	3135.61
722.545	3074.17
722.732	3133.56
722.919	2992.25
723.106	2996.35
723.293	2988.16
723.48	2998.4
723.667	3195
723.853	2994.3
724.04	2988.16
724.227	3000.44
724.414	3055.74
724.6	3047.55
724.787	2963.58
724.974	3111.04
725.161	3127.42
725.347	2842.75
725.534	3088.51
725.72	3033.21
725.907	2975.87
726.094	3094.65
726.28	2920.57
726.467	2887.81
726.653	3006.59
726.84	2924.67
727.027	2967.68
727.213	2992.25
727.4	2924.67
727.586	2883.71
727.773	2996.35
727.959	2898.05
728.145	2896
728.332	2930.81
728.518	2908.29
728.705	3057.79
728.891	2951.29
729.077	3094.65
729.264	2842.75
729.45	2967.68
729.636	2844.8
729.823	2828.42
730.009	2934.91
730.195	2998.4
730.382	2801.79
730.568	2953.34
730.754	2922.62
730.94	2918.53
731.126	2947.2
731.313	3014.78
731.499	2857.09
731.685	2951.29
731.871	2910.33
732.057	2920.57
732.243	2924.67
732.429	2943.1
732.615	2939.01
732.801	2838.66
732.987	2902.14
733.173	3025.02
733.359	3008.64
733.545	2912.38
733.731	2775.17
733.917	2852.99
734.103	2674.82
734.289	2873.47
734.475	2836.61
734.661	2928.77
734.847	2807.94
735.033	2941.05
735.219	2842.75
735.404	2803.84
735.59	2783.36
735.776	2836.61
735.962	2816.13
736.148	2852.99
736.333	2789.5
736.519	2728.07
736.705	2709.63
736.89	2754.69
737.076	2746.5
737.262	2746.5
737.447	2752.64
737.633	2670.72
737.819	2748.54
738.004	2809.98
738.19	2723.97
738.375	2691.2
738.561	2666.63
738.747	2633.86
738.932	2756.74
739.118	2697.35
739.303	2799.74
739.489	2646.15
739.674	2666.63
739.859	2625.67
740.045	2695.3
740.23	2736.26
740.416	2597
740.601	2584.71
740.786	2599.04
740.972	2750.59
741.157	2603.14
741.342	2594.95
741.528	2650.24
741.713	2500.74
741.898	2572.42
742.084	2484.36
742.269	2574.47
742.454	2494.6
742.639	2543.75
742.824	2390.15
743.01	2531.46
743.195	2603.14
743.38	2455.69
743.565	2369.67
743.75	2451.59
743.935	2480.26
744.12	2392.2
744.305	2496.64
744.49	2451.59
744.675	2420.87
744.86	2324.62
745.045	2293.9
745.23	2326.66
745.415	2429.06
745.6	2324.62
745.785	2265.22
745.97	2271.37
746.155	2418.82
746.34	2293.9
746.525	2429.06
746.71	2373.77
746.895	2308.23
747.079	2273.42
747.264	2222.22
747.449	2144.39
747.634	2252.94
747.819	2236.55
748.003	2164.87
748.188	2146.44
748.373	2230.41
748.557	2218.12
748.742	2146.44
748.927	2050.19
749.111	2029.71
749.296	2076.81
749.481	2050.19
749.665	2035.85
749.85	2121.87
750.034	2058.38
750.219	1978.51
750.404	1998.99
750.588	2021.52
750.773	1976.46
750.957	2027.66
751.141	1955.98
751.326	1900.69
751.51	2017.42
751.695	1904.78
751.879	1970.32
752.064	1929.36
752.248	1853.58
752.432	1915.02
752.617	1910.93
752.801	1925.26
752.985	1876.11
753.17	1955.98
753.354	1808.53
753.538	1824.91
753.722	1702.03
753.907	1659.03
754.091	1814.67
754.275	1800.34
754.459	1706.13
754.643	1720.46
754.828	1710.22
755.012	1753.23
755.196	1712.27
755.38	1671.31
755.564	1697.94
755.748	1699.98
755.932	1579.15
756.116	1669.27
756.3	1513.62
756.484	1640.59
756.668	1736.85
756.852	1601.68
757.036	1497.24
757.22	1546.39
757.404	1513.62
757.588	1566.87
757.772	1532.05
757.956	1505.43
758.14	1464.47
758.323	1472.66
758.507	1538.2
758.691	1464.47
758.875	1550.48
759.059	1573.01
759.242	1476.76
759.426	1378.45
759.61	1433.75
759.794	1497.24
759.977	1415.32
760.161	1413.27
760.345	1443.99
760.528	1390.74
760.712	1405.08
760.895	1409.17
761.079	1450.13
761.263	1366.17
761.446	1261.72
761.63	1403.03
761.813	1314.97
761.997	1368.21
762.18	1380.5
762.364	1317.01
762.547	1382.55
762.731	1269.91
762.914	1362.07
763.098	1288.34
763.281	1392.79
763.464	1331.35
763.648	1304.73
763.831	1388.69
764.015	1263.77
764.198	1259.67
764.381	1312.92
764.564	1292.44
764.748	1235.1
764.931	1286.3
765.114	1247.38
765.297	1317.01
765.481	1167.51
765.664	1243.29
765.847	1192.09
766.03	1208.47
766.213	1153.18
766.397	1134.75
766.58	1155.23
766.763	1165.46
766.946	1198.23
767.129	1124.51
767.312	1247.38
767.495	1206.42
767.678	1206.42
767.861	1167.51
768.044	1222.81
768.227	1144.99
768.41	1081.5
768.593	1173.66
768.776	1144.99
768.959	1142.94
769.142	1142.94
769.324	1091.74
769.507	1079.45
769.69	1108.12
769.873	1099.93
770.056	1132.7
770.239	1085.59
770.421	1095.83
770.604	1009.82
770.787	1003.68
770.97	1124.51
771.152	1032.35
771.335	1036.44
771.518	970.91
771.7	1056.92
771.883	1087.64
772.066	1015.96
772.248	1067.16
772.431	1020.06
772.613	1054.87
772.796	1091.74
772.978	1005.72
773.161	954.52
773.343	956.57
773.526	979.1
773.708	999.58
773.891	995.48
774.073	975
774.256	895.13
774.438	1032.35
774.621	1005.72
774.803	856.22
774.985	923.8
775.168	919.71
775.35	888.99
775.532	952.48
775.715	913.56
775.897	870.56
776.079	848.03
776.261	858.27
776.444	987.29
776.626	876.7
776.808	932
776.99	739.49
777.173	895.13
777.355	882.85
777.537	768.16
777.719	901.28
777.901	786.59
778.083	936.09
778.265	800.93
778.447	862.37
778.629	794.78
778.811	807.07
778.993	790.69
779.175	811.17
779.357	764.06
779.539	708.77
779.721	727.2
779.903	731.3
780.085	714.91
780.267	731.3
780.449	749.73
780.631	776.35
780.812	772.25
780.994	684.19
781.176	774.3
781.358	678.05
781.54	684.19
781.721	706.72
781.903	676
782.085	596.13
782.267	663.71
782.448	762.02
782.63	673.95
782.812	663.71
782.993	678.05
783.175	684.19
783.357	624.8
783.538	692.38
783.72	661.66
783.901	616.61
784.083	610.47
784.264	655.52
784.446	594.08
784.627	653.47
784.809	614.56
784.99	598.18
785.172	671.9
785.353	563.36
785.535	571.55
785.716	536.74
785.897	581.79
786.079	614.56
786.26	628.9
786.441	581.79
786.623	518.31
786.804	620.71
786.985	598.18
787.167	536.74
787.348	503.97
787.529	518.31
787.71	491.68
787.891	485.54
788.073	514.21
788.254	516.26
788.435	503.97
788.616	540.83
788.797	573.6
788.978	522.4
789.159	516.26
789.34	524.45
789.522	442.53
789.703	524.45
789.884	405.67
790.065	434.34
790.246	516.26
790.427	469.16
790.607	540.83
790.788	467.11
790.969	434.34
791.15	448.68
791.331	524.45
791.512	465.06
791.693	448.68
791.874	391.33
792.054	477.35
792.235	491.68
792.416	465.06
792.597	469.16
792.778	430.24
792.958	415.91
793.139	391.33
793.32	424.1
793.5	368.81
793.681	458.92
793.862	465.06
794.042	487.59
794.223	360.61
794.404	333.99
794.584	381.09
794.765	395.43
794.945	331.94
795.126	370.85
795.306	385.19
795.487	399.52
795.667	366.76
795.848	399.52
796.028	372.9
796.209	395.43
796.389	436.39
796.57	395.43
796.75	315.56
796.93	391.33
797.111	379.04
797.291	323.75
797.471	434.34
797.652	362.66
797.832	299.17
798.012	465.06
798.192	342.18
798.373	305.32
798.553	307.37
798.733	342.18
798.913	321.7
799.093	354.47
799.274	389.28
799.454	336.04
799.634	364.71
799.814	383.14
799.994	317.61
800.174	290.98
800.354	297.13
800.534	235.69
800.714	323.75
800.894	280.74
801.074	276.65
801.254	276.65
801.434	315.56
801.614	329.89
801.794	241.83
801.974	755.87
802.154	290.98
802.334	325.8
802.514	297.13
802.693	192.68
802.873	256.17
803.053	245.93
803.233	325.8
803.413	293.03
803.592	272.55
803.772	256.17
803.952	354.47
804.131	233.64
804.311	327.85
804.491	329.89
804.67	243.88
804.85	254.12
805.03	299.17
805.209	260.26
805.389	288.93
805.568	295.08
805.748	272.55
805.928	264.36
806.107	336.04
806.287	221.35
806.466	327.85
806.646	254.12
806.825	198.82
807.004	282.79
807.184	260.26
807.363	194.73
807.543	252.07
807.722	225.45
807.901	290.98
808.081	342.18
808.26	157.86
808.439	217.26
808.619	223.4
808.798	231.59
808.977	252.07
809.156	217.26
809.336	231.59
809.515	260.26
809.694	184.49
809.873	260.26
810.052	247.97
810.231	309.41
810.411	170.15
810.59	256.17
810.769	245.93
810.948	202.92
811.127	221.35
811.306	184.49
811.485	204.97
811.664	215.21
811.843	151.72
812.022	250.02
812.201	258.21
812.38	221.35
812.559	227.5
812.737	219.3
812.916	207.02
813.095	241.83
813.274	239.78
813.453	168.1
813.632	227.5
813.811	237.74
813.989	196.78
814.168	241.83
814.347	151.72
814.526	145.58
814.704	141.48
814.883	170.15
815.062	213.16
815.24	202.92
815.419	207.02
815.598	153.77
815.776	184.49
815.955	141.48
816.133	149.67
816.312	153.77
816.49	227.5
816.669	184.49
816.847	141.48
817.026	180.39
817.204	198.82
817.383	164.01
817.561	61.61
817.74	266.41
817.918	235.69
818.097	159.91
818.275	233.64
818.453	151.72
818.632	186.54
818.81	161.96
818.988	147.62
819.167	86.19
819.345	196.78
819.523	178.34
819.701	145.58
819.879	194.73
820.058	139.43
820.236	225.45
820.414	139.43
820.592	143.53
820.77	112.81
820.948	147.62
821.127	202.92
821.305	112.81
821.483	153.77
821.661	180.39
821.839	211.11
822.017	129.19
822.195	71.85
822.373	221.35
822.551	161.96
822.729	186.54
822.907	127.14
823.085	221.35
823.262	151.72
823.44	153.77
823.618	182.44
823.796	247.97
823.974	176.3
824.152	190.63
824.329	204.97
824.507	151.72
824.685	84.14
824.863	98.47
825.04	170.15
825.218	102.57
825.396	149.67
825.574	209.06
825.751	139.43
825.929	84.14
826.107	151.72
826.284	100.52
826.462	69.8
826.639	127.14
826.817	86.19
826.994	151.72
827.172	131.24
827.349	102.57
827.527	157.86
827.704	73.9
827.882	153.77
828.059	143.53
828.237	123.05
828.414	123.05
828.591	110.76
828.769	106.67
828.946	161.96
829.124	96.43
829.301	161.96
829.478	96.43
829.655	133.29
829.833	90.28
830.01	61.61
830.187	106.67
830.364	88.23
830.542	106.67
830.719	172.2
830.896	116.9
831.073	104.62
831.25	116.9
831.427	125.1
831.604	114.86
831.782	125.1
831.959	141.48
832.136	77.99
832.313	176.3
832.49	123.05
832.667	16.55
832.844	82.09
833.021	129.19
833.198	110.76
833.374	192.68
833.551	63.66
833.728	168.1
833.905	84.14
834.082	63.66
834.259	127.14
834.436	180.39
834.612	43.18
834.789	137.38
834.966	39.08
835.143	90.28
835.319	88.23
835.496	135.34
835.673	32.94
835.85	166.06
836.026	174.25
836.203	114.86
836.38	71.85
836.556	86.19
836.733	80.04
836.909	164.01
837.086	82.09
837.262	-20.31
837.439	80.04
837.616	127.14
837.792	75.95
837.968	161.96
838.145	77.99
838.321	112.81
838.498	157.86
838.674	135.34
838.851	108.71
839.027	77.99
839.203	59.56
839.38	88.23
839.556	133.29
839.732	100.52
839.909	12.46
840.085	102.57
840.261	75.95
840.437	131.24
840.614	108.71
840.79	151.72
840.966	41.13
841.142	147.62
841.318	106.67
841.494	90.28
841.671	65.71
841.847	110.76
842.023	127.14
842.199	108.71
842.375	67.75
842.551	51.37
842.727	59.56
842.903	98.47
843.079	51.37
843.255	71.85
843.431	65.71
843.607	94.38
843.783	-10.07
843.959	88.23
844.134	139.43
844.31	98.47
844.486	157.86
844.662	90.28
844.838	41.13
845.013	110.76
845.189	133.29
845.365	65.71
845.541	69.8
845.716	96.43
845.892	57.51
846.068	53.42
846.244	51.37
846.419	100.52
846.595	108.71
846.77	137.38
846.946	37.03
847.122	94.38
847.297	59.56
847.473	129.19
847.648	67.75
847.824	118.95
847.999	16.55
848.175	67.75
848.35	65.71
848.526	61.61
848.701	86.19
848.876	151.72
849.052	73.9
849.227	84.14
849.403	47.27
849.578	63.66
849.753	39.08
849.929	82.09
850.104	65.71
850.279	63.66
850.454	37.03
850.63	106.67
850.805	24.75
850.98	77.99
851.155	8.36
851.33	75.95
851.505	45.23
851.681	69.8
851.856	34.99
852.031	16.55
852.206	61.61
852.381	67.75
852.556	59.56
852.731	73.9
852.906	69.8
853.081	82.09
853.256	108.71
853.431	118.95
853.606	51.37
853.781	71.85
853.956	43.18
854.131	137.38
854.305	75.95
854.48	37.03
854.655	8.36
854.83	121
855.005	53.42
855.18	90.28
855.354	59.56
855.529	75.95
855.704	39.08
855.879	96.43
856.053	2.22
856.228	104.62
856.403	20.65
856.577	102.57
856.752	2.22
856.926	63.66
857.101	51.37
857.276	-24.4
857.45	47.27
857.625	145.58
857.799	94.38
857.974	94.38
858.148	34.99
858.323	104.62
858.497	61.61
858.672	61.61
858.846	63.66
859.02	73.9
859.195	20.65
859.369	2.22
859.543	94.38
859.718	94.38
859.892	2.22
860.066	32.94
860.241	84.14
860.415	73.9
860.589	-51.03
860.763	75.95
860.938	18.6
861.112	28.84
861.286	24.75
861.46	39.08
861.634	12.46
861.808	82.09
861.982	37.03
862.157	45.23
862.331	53.42
862.505	88.23
862.679	4.27
862.853	104.62
863.027	10.41
863.201	108.71
863.375	37.03
863.549	86.19
863.722	41.13
863.896	28.84
864.07	59.56
864.244	98.47
864.418	84.14
864.592	26.79
864.766	34.99
864.939	28.84
865.113	59.56
865.287	73.9
865.461	-30.55
865.634	43.18
865.808	16.55
865.982	47.27
866.156	10.41
866.329	2.22
866.503	47.27
866.676	88.23
866.85	-20.31
867.024	80.04
867.197	63.66
867.371	-5.97
867.544	75.95
867.718	16.55
867.891	94.38
868.065	75.95
868.238	63.66
868.412	108.71
868.585	45.23
868.759	61.61
868.932	28.84
869.105	47.27
869.279	71.85
869.452	-5.97
869.625	-5.97
869.799	80.04
869.972	-40.79
870.145	77.99
870.319	51.37
870.492	-28.5
870.665	88.23
870.838	34.99
871.011	-26.45
871.185	12.46
871.358	61.61
871.531	34.99
871.704	-26.45
871.877	47.27
872.05	55.47
872.223	94.38
872.396	32.94
872.569	92.33
872.742	8.36
872.915	65.71
873.088	0.17
873.261	45.23
873.434	71.85
873.607	47.27
873.78	18.6
873.953	-91.99
874.126	14.51
874.299	39.08
874.471	55.47
874.644	-3.93
874.817	65.71
874.99	-12.12
875.163	32.94
875.335	51.37
875.508	43.18
875.681	20.65
875.853	43.18
876.026	135.34
876.199	34.99
876.371	53.42
876.544	39.08
876.717	55.47
876.889	-8.02
877.062	88.23
877.234	2.22
877.407	-5.97
877.579	55.47
877.752	26.79
877.924	2.22
878.097	26.79
878.269	32.94
878.442	-8.02
878.614	39.08
878.786	77.99
878.959	-14.17
879.131	121
879.303	-46.93
879.476	-32.6
879.648	24.75
879.82	-5.97
879.993	28.84
880.165	82.09
880.337	-3.93
880.509	14.51
880.681	-55.12
880.854	24.75
881.026	65.71
881.198	47.27
881.37	24.75
881.542	22.7
881.714	30.89
881.886	63.66
882.058	49.32
882.23	43.18
882.402	63.66
882.574	28.84
882.746	59.56
882.918	12.46
883.09	49.32
883.262	24.75
883.434	114.86
883.606	45.23
883.778	45.23
883.95	67.75
884.122	-14.17
884.293	6.31
884.465	26.79
884.637	59.56
884.809	47.27
884.98	69.8
885.152	49.32
885.324	63.66
885.496	-36.69
885.667	20.65
885.839	47.27
886.011	4.27
886.182	43.18
886.354	6.31
886.525	43.18
886.697	92.33
886.869	16.55
887.04	2.22
887.212	57.51
887.383	18.6
887.555	67.75
887.726	6.31
887.897	24.75
888.069	37.03
888.24	37.03
888.412	32.94
888.583	-1.88
888.754	39.08
888.926	-22.36
889.097	61.61
889.268	69.8
889.44	22.7
889.611	-26.45
889.782	12.46
889.953	47.27
890.125	18.6
890.296	8.36
890.467	10.41
890.638	6.31
890.809	16.55
890.98	-1.88
891.151	41.13
891.323	6.31
891.494	30.89
891.665	53.42
891.836	12.46
892.007	24.75
892.178	39.08
892.349	14.51
892.52	20.65
892.691	41.13
892.862	-24.4
893.032	-20.31
893.203	37.03
893.374	6.31
893.545	43.18
893.716	-5.97
893.887	39.08
894.057	69.8
894.228	-10.07
894.399	41.13
894.57	127.14
894.74	61.61
894.911	57.51
895.082	30.89
895.253	12.46
895.423	63.66
895.594	73.9
895.764	18.6
895.935	-63.32
896.106	-18.26
896.276	-28.5
896.447	-16.21
896.617	-16.21
896.788	-10.07
896.958	4.27
897.129	75.95
897.299	2.22
897.47	39.08
897.64	12.46
897.81	-28.5
897.981	28.84
898.151	73.9
898.322	22.7
898.492	37.03
898.662	20.65
898.832	51.37
899.003	49.32
899.173	14.51
899.343	20.65
899.513	84.14
