Data from USB4F104151__85__12-27-56-930.txt Node

Date: Fri Mar 14 12:27:56 EDT 2025
User: louis
Spectrometer: USB4F10415
Trigger mode: 4
Integration Time (sec): 2.000000E-2
Scans to average: 1
Electric dark correction enabled: true
Nonlinearity correction enabled: false
Boxcar width: 0
XAxis mode: Wavelengths
Number of Pixels in Spectrum: 3648
>>>>>Begin Spectral Data<<<<<
178.204	-77.48
178.424	-77.48
178.644	-77.48
178.864	-52.91
179.084	-67.24
179.304	43.35
179.524	-30.38
179.744	-7.85
179.964	-32.43
180.184	31.06
180.404	6.49
180.624	10.58
180.844	-1.71
181.064	-1.71
181.283	4.44
181.503	-1.71
181.723	-20.14
181.943	-57
182.163	26.96
182.383	26.96
182.602	0.34
182.822	47.44
183.042	51.54
183.262	57.68
183.482	104.79
183.701	43.35
183.921	31.06
184.141	-5.8
184.361	74.07
184.58	8.53
184.8	8.53
185.02	29.01
185.239	53.59
185.459	74.07
185.679	-20.14
185.898	-7.85
186.118	63.83
186.338	29.01
186.557	24.92
186.777	10.58
186.997	76.12
187.216	59.73
187.436	106.84
187.655	47.44
187.875	55.64
188.095	-16.04
188.314	4.44
188.534	88.4
188.753	37.2
188.973	-1.71
189.192	94.55
189.412	41.3
189.631	-5.8
189.851	86.36
190.07	112.98
190.29	57.68
190.509	20.82
190.729	51.54
190.948	2.39
191.168	112.98
191.387	33.11
191.607	-18.09
191.826	59.73
192.045	63.83
192.265	12.63
192.484	67.92
192.704	-5.8
192.923	0.34
193.142	121.17
193.362	20.82
193.581	14.68
193.8	82.26
194.02	149.84
194.239	76.12
194.458	4.44
194.678	-3.75
194.897	29.01
195.116	22.87
195.335	35.16
195.555	47.44
195.774	33.11
195.993	104.79
196.212	22.87
196.432	-28.33
196.651	14.68
196.87	18.77
197.089	84.31
197.308	20.82
197.528	-1.71
197.747	45.4
197.966	67.92
198.185	35.16
198.404	12.63
198.623	35.16
198.842	33.11
199.062	35.16
199.281	41.3
199.5	-91.82
199.719	53.59
199.938	39.25
200.157	51.54
200.376	59.73
200.595	104.79
200.814	47.44
201.033	92.5
201.252	24.92
201.471	16.73
201.69	78.16
201.909	51.54
202.128	100.69
202.347	31.06
202.566	72.02
202.785	45.4
203.004	-24.23
203.223	158.03
203.442	33.11
203.661	-20.14
203.879	74.07
204.098	26.96
204.317	16.73
204.536	-22.19
204.755	49.49
204.974	45.4
205.193	43.35
205.411	18.77
205.63	-38.57
205.849	-50.86
206.068	-40.62
206.287	22.87
206.505	98.64
206.724	8.53
206.943	-22.19
207.162	-36.52
207.381	43.35
207.599	53.59
207.818	100.69
208.037	16.73
208.255	33.11
208.474	61.78
208.693	31.06
208.911	41.3
209.13	4.44
209.349	74.07
209.567	8.53
209.786	49.49
210.005	43.35
210.223	80.21
210.442	-11.95
210.661	-3.75
210.879	84.31
211.098	108.88
211.316	6.49
211.535	35.16
211.753	35.16
211.972	45.4
212.191	53.59
212.409	76.12
212.628	24.92
212.846	55.64
213.065	39.25
213.283	39.25
213.502	57.68
213.72	37.2
213.938	108.88
214.157	29.01
214.375	18.77
214.594	61.78
214.812	-24.23
215.031	61.78
215.249	59.73
215.467	-24.23
215.686	53.59
215.904	8.53
216.122	96.6
216.341	80.21
216.559	20.82
216.778	43.35
216.996	72.02
217.214	26.96
217.432	37.2
217.651	12.63
217.869	37.2
218.087	2.39
218.306	10.58
218.524	106.84
218.742	90.45
218.96	0.34
219.179	-26.28
219.397	55.64
219.615	35.16
219.833	0.34
220.051	-11.95
220.27	96.6
220.488	-54.95
220.706	-7.85
220.924	2.39
221.142	-50.86
221.36	53.59
221.578	16.73
221.796	-11.95
222.015	88.4
222.233	35.16
222.451	137.56
222.669	-5.8
222.887	72.02
223.105	-9.9
223.323	12.63
223.541	-3.75
223.759	53.59
223.977	43.35
224.195	12.63
224.413	14.68
224.631	49.49
224.849	0.34
225.067	117.08
225.285	-20.14
225.503	-5.8
225.721	-1.71
225.939	-65.19
226.157	94.55
226.375	129.36
226.592	-50.86
226.81	35.16
227.028	2.39
227.246	26.96
227.464	35.16
227.682	-7.85
227.9	-30.38
228.117	26.96
228.335	43.35
228.553	-28.33
228.771	18.77
228.989	98.64
229.206	4.44
229.424	-3.75
229.642	6.49
229.86	8.53
230.077	37.2
230.295	51.54
230.513	24.92
230.731	35.16
230.948	55.64
231.166	86.36
231.384	-20.14
231.601	20.82
231.819	43.35
232.037	47.44
232.254	-44.71
232.472	39.25
232.689	-32.43
232.907	92.5
233.125	55.64
233.342	-36.52
233.56	-42.67
233.777	74.07
233.995	92.5
234.213	20.82
234.43	127.32
234.648	-18.09
234.865	-5.8
235.083	92.5
235.3	41.3
235.518	125.27
235.735	29.01
235.953	88.4
236.17	33.11
236.388	84.31
236.605	22.87
236.822	63.83
237.04	-48.81
237.257	67.92
237.475	24.92
237.692	20.82
237.909	22.87
238.127	26.96
238.344	47.44
238.562	4.44
238.779	0.34
238.996	4.44
239.214	74.07
239.431	65.88
239.648	-20.14
239.865	-3.75
240.083	-20.14
240.3	6.49
240.517	-38.57
240.735	49.49
240.952	61.78
241.169	-3.75
241.386	39.25
241.603	-34.47
241.821	47.44
242.038	78.16
242.255	82.26
242.472	108.88
242.689	61.78
242.907	29.01
243.124	14.68
243.341	43.35
243.558	39.25
243.775	61.78
243.992	0.34
244.209	45.4
244.426	69.97
244.643	47.44
244.86	22.87
245.078	37.2
245.295	45.4
245.512	20.82
245.729	45.4
245.946	59.73
246.163	90.45
246.38	-26.28
246.597	37.2
246.814	55.64
247.031	39.25
247.248	-13.99
247.464	-1.71
247.681	4.44
247.898	94.55
248.115	92.5
248.332	41.3
248.549	82.26
248.766	74.07
248.983	31.06
249.2	94.55
249.417	53.59
249.633	37.2
249.85	49.49
250.067	49.49
250.284	4.44
250.501	20.82
250.717	94.55
250.934	53.59
251.151	26.96
251.368	47.44
251.585	63.83
251.801	129.36
252.018	29.01
252.235	33.11
252.451	-1.71
252.668	37.2
252.885	102.74
253.102	45.4
253.318	-26.28
253.535	49.49
253.752	-11.95
253.968	53.59
254.185	-11.95
254.401	96.6
254.618	8.53
254.835	12.63
255.051	115.03
255.268	6.49
255.484	4.44
255.701	84.31
255.917	-3.75
256.134	-5.8
256.351	29.01
256.567	47.44
256.784	24.92
257	-34.47
257.217	20.82
257.433	96.6
257.65	55.64
257.866	6.49
258.082	12.63
258.299	14.68
258.515	69.97
258.732	39.25
258.948	-20.14
259.165	47.44
259.381	26.96
259.597	-32.43
259.814	59.73
260.03	-5.8
260.246	16.73
260.463	35.16
260.679	94.55
260.895	39.25
261.112	12.63
261.328	43.35
261.544	72.02
261.761	82.26
261.977	61.78
262.193	78.16
262.409	-7.85
262.626	-1.71
262.842	20.82
263.058	72.02
263.274	29.01
263.49	45.4
263.707	20.82
263.923	-30.38
264.139	100.69
264.355	8.53
264.571	131.41
264.787	22.87
265.004	51.54
265.22	35.16
265.436	-1.71
265.652	0.34
265.868	22.87
266.084	41.3
266.3	-9.9
266.516	-30.38
266.732	112.98
266.948	39.25
267.164	53.59
267.38	53.59
267.596	4.44
267.812	76.12
268.028	67.92
268.244	20.82
268.46	78.16
268.676	74.07
268.892	18.77
269.108	59.73
269.324	88.4
269.54	10.58
269.756	37.2
269.972	-42.67
270.188	20.82
270.403	29.01
270.619	20.82
270.835	43.35
271.051	47.44
271.267	49.49
271.483	-42.67
271.698	59.73
271.914	59.73
272.13	35.16
272.346	49.49
272.562	-1.71
272.777	76.12
272.993	-65.19
273.209	4.44
273.425	-1.71
273.64	29.01
273.856	141.65
274.072	74.07
274.287	51.54
274.503	53.59
274.719	67.92
274.934	74.07
275.15	10.58
275.366	59.73
275.581	-13.99
275.797	-26.28
276.012	29.01
276.228	35.16
276.444	-5.8
276.659	102.74
276.875	35.16
277.09	74.07
277.306	-48.81
277.521	59.73
277.737	51.54
277.952	78.16
278.168	20.82
278.383	-9.9
278.599	14.68
278.814	29.01
279.03	-28.33
279.245	141.65
279.461	-30.38
279.676	67.92
279.892	63.83
280.107	82.26
280.322	24.92
280.538	47.44
280.753	-46.76
280.969	63.83
281.184	29.01
281.399	125.27
281.615	55.64
281.83	69.97
282.045	65.88
282.26	29.01
282.476	10.58
282.691	49.49
282.906	100.69
283.122	72.02
283.337	22.87
283.552	67.92
283.767	31.06
283.983	33.11
284.198	72.02
284.413	-18.09
284.628	-13.99
284.843	43.35
285.058	22.87
285.274	35.16
285.489	37.2
285.704	26.96
285.919	-44.71
286.134	74.07
286.349	-7.85
286.564	4.44
286.779	22.87
286.995	-32.43
287.21	-22.19
287.425	22.87
287.64	16.73
287.855	59.73
288.07	74.07
288.285	-5.8
288.5	72.02
288.715	61.78
288.93	0.34
289.145	53.59
289.36	-26.28
289.575	65.88
289.79	61.78
290.004	-5.8
290.219	108.88
290.434	61.78
290.649	92.5
290.864	49.49
291.079	51.54
291.294	86.36
291.509	-30.38
291.724	45.4
291.938	20.82
292.153	18.77
292.368	24.92
292.583	31.06
292.798	0.34
293.012	67.92
293.227	106.84
293.442	39.25
293.657	6.49
293.871	123.22
294.086	67.92
294.301	78.16
294.516	35.16
294.73	143.7
294.945	-1.71
295.16	22.87
295.374	24.92
295.589	63.83
295.804	74.07
296.018	90.45
296.233	61.78
296.447	78.16
296.662	57.68
296.877	20.82
297.091	-1.71
297.306	92.5
297.52	43.35
297.735	110.93
297.949	2.39
298.164	55.64
298.378	69.97
298.593	47.44
298.807	29.01
299.022	-22.19
299.236	108.88
299.451	47.44
299.665	20.82
299.88	-7.85
300.094	53.59
300.309	78.16
300.523	53.59
300.737	57.68
300.952	-9.9
301.166	10.58
301.381	22.87
301.595	39.25
301.809	12.63
302.024	88.4
302.238	-26.28
302.452	45.4
302.667	57.68
302.881	57.68
303.095	108.88
303.309	96.6
303.524	69.97
303.738	-16.04
303.952	78.16
304.166	72.02
304.381	110.93
304.595	37.2
304.809	55.64
305.023	72.02
305.237	-22.19
305.452	41.3
305.666	53.59
305.88	72.02
306.094	108.88
306.308	8.53
306.522	-1.71
306.736	88.4
306.95	131.41
307.164	76.12
307.379	65.88
307.593	86.36
307.807	131.41
308.021	69.97
308.235	100.69
308.449	-24.23
308.663	-20.14
308.877	65.88
309.091	-16.04
309.305	67.92
309.519	4.44
309.733	-5.8
309.947	26.96
310.161	33.11
310.374	61.78
310.588	125.27
310.802	14.68
311.016	57.68
311.23	72.02
311.444	20.82
311.658	72.02
311.872	49.49
312.085	57.68
312.299	65.88
312.513	31.06
312.727	26.96
312.941	90.45
313.154	78.16
313.368	-7.85
313.582	57.68
313.796	86.36
314.009	119.12
314.223	147.8
314.437	24.92
314.651	39.25
314.864	6.49
315.078	84.31
315.292	43.35
315.505	59.73
315.719	80.21
315.933	35.16
316.146	92.5
316.36	14.68
316.573	92.5
316.787	96.6
317.001	102.74
317.214	8.53
317.428	121.17
317.641	-5.8
317.855	63.83
318.068	-11.95
318.282	117.08
318.495	86.36
318.709	31.06
318.922	106.84
319.136	43.35
319.349	14.68
319.563	84.31
319.776	92.5
319.99	-61.1
320.203	55.64
320.417	20.82
320.63	76.12
320.843	57.68
321.057	45.4
321.27	4.44
321.483	86.36
321.697	104.79
321.91	121.17
322.124	65.88
322.337	61.78
322.55	26.96
322.763	63.83
322.977	88.4
323.19	129.36
323.403	41.3
323.617	37.2
323.83	29.01
324.043	16.73
324.256	74.07
324.469	-13.99
324.683	35.16
324.896	43.35
325.109	59.73
325.322	18.77
325.535	112.98
325.748	10.58
325.962	22.87
326.175	51.54
326.388	0.34
326.601	180.56
326.814	14.68
327.027	18.77
327.24	149.84
327.453	-1.71
327.666	112.98
327.879	102.74
328.092	29.01
328.305	61.78
328.518	80.21
328.731	20.82
328.944	20.82
329.157	80.21
329.37	123.22
329.583	92.5
329.796	-3.75
330.009	29.01
330.222	76.12
330.435	78.16
330.648	53.59
330.861	22.87
331.073	31.06
331.286	80.21
331.499	69.97
331.712	53.59
331.925	4.44
332.138	47.44
332.35	2.39
332.563	41.3
332.776	43.35
332.989	-3.75
333.202	31.06
333.414	127.32
333.627	98.64
333.84	-1.71
334.053	51.54
334.265	-3.75
334.478	-28.33
334.691	57.68
334.903	14.68
335.116	57.68
335.329	55.64
335.541	47.44
335.754	51.54
335.966	82.26
336.179	53.59
336.392	78.16
336.604	24.92
336.817	39.25
337.029	-1.71
337.242	67.92
337.454	90.45
337.667	22.87
337.88	90.45
338.092	86.36
338.305	49.49
338.517	10.58
338.729	6.49
338.942	115.03
339.154	-38.57
339.367	94.55
339.579	18.77
339.792	2.39
340.004	90.45
340.217	88.4
340.429	59.73
340.641	6.49
340.854	-9.9
341.066	-7.85
341.278	37.2
341.491	84.31
341.703	12.63
341.915	33.11
342.128	43.35
342.34	61.78
342.552	-30.38
342.764	-20.14
342.977	94.55
343.189	86.36
343.401	94.55
343.613	51.54
343.826	78.16
344.038	-7.85
344.25	35.16
344.462	26.96
344.674	106.84
344.886	86.36
345.099	67.92
345.311	53.59
345.523	12.63
345.735	4.44
345.947	49.49
346.159	47.44
346.371	37.2
346.583	35.16
346.795	155.99
347.007	53.59
347.219	10.58
347.431	39.25
347.643	41.3
347.855	24.92
348.067	39.25
348.279	26.96
348.491	74.07
348.703	90.45
348.915	96.6
349.127	39.25
349.339	37.2
349.551	74.07
349.763	63.83
349.975	31.06
350.187	84.31
350.399	24.92
350.61	51.54
350.822	20.82
351.034	4.44
351.246	55.64
351.458	45.4
351.669	110.93
351.881	53.59
352.093	61.78
352.305	8.53
352.517	0.34
352.728	65.88
352.94	80.21
353.152	164.18
353.363	14.68
353.575	61.78
353.787	63.83
353.999	84.31
354.21	67.92
354.422	10.58
354.633	0.34
354.845	74.07
355.057	26.96
355.268	49.49
355.48	41.3
355.692	29.01
355.903	6.49
356.115	26.96
356.326	-3.75
356.538	112.98
356.749	76.12
356.961	82.26
357.172	37.2
357.384	88.4
357.595	102.74
357.807	-24.23
358.018	-11.95
358.23	61.78
358.441	43.35
358.653	39.25
358.864	57.68
359.075	6.49
359.287	88.4
359.498	33.11
359.709	72.02
359.921	100.69
360.132	10.58
360.344	131.41
360.555	59.73
360.766	78.16
360.977	51.54
361.189	53.59
361.4	43.35
361.611	45.4
361.823	117.08
362.034	43.35
362.245	31.06
362.456	20.82
362.667	41.3
362.879	43.35
363.09	69.97
363.301	31.06
363.512	45.4
363.723	41.3
363.935	37.2
364.146	63.83
364.357	49.49
364.568	33.11
364.779	41.3
364.99	102.74
365.201	57.68
365.412	-5.8
365.623	78.16
365.834	61.78
366.045	65.88
366.256	86.36
366.467	90.45
366.678	69.97
366.889	49.49
367.1	37.2
367.311	108.88
367.522	4.44
367.733	24.92
367.944	84.31
368.155	106.84
368.366	94.55
368.577	41.3
368.788	76.12
368.999	37.2
369.209	72.02
369.42	74.07
369.631	2.39
369.842	35.16
370.053	78.16
370.264	55.64
370.474	80.21
370.685	76.12
370.896	90.45
371.107	117.08
371.317	57.68
371.528	-11.95
371.739	86.36
371.95	90.45
372.16	8.53
372.371	65.88
372.582	20.82
372.792	94.55
373.003	59.73
373.214	-38.57
373.424	26.96
373.635	-5.8
373.846	108.88
374.056	74.07
374.267	20.82
374.477	53.59
374.688	61.78
374.898	20.82
375.109	92.5
375.319	80.21
375.53	67.92
375.74	22.87
375.951	-7.85
376.161	37.2
376.372	94.55
376.582	26.96
376.793	-3.75
377.003	-16.04
377.214	49.49
377.424	47.44
377.635	129.36
377.845	35.16
378.055	43.35
378.266	26.96
378.476	20.82
378.686	94.55
378.897	59.73
379.107	33.11
379.317	151.89
379.528	22.87
379.738	61.78
379.948	57.68
380.158	78.16
380.369	69.97
380.579	88.4
380.789	45.4
380.999	82.26
381.21	100.69
381.42	43.35
381.63	35.16
381.84	119.12
382.05	121.17
382.261	-11.95
382.471	69.97
382.681	43.35
382.891	115.03
383.101	47.44
383.311	-22.19
383.521	-13.99
383.731	43.35
383.941	61.78
384.151	86.36
384.361	125.27
384.571	115.03
384.781	82.26
384.991	117.08
385.201	55.64
385.411	22.87
385.621	106.84
385.831	43.35
386.041	100.69
386.251	67.92
386.461	51.54
386.671	12.63
386.881	45.4
387.091	-9.9
387.301	145.75
387.511	112.98
387.72	29.01
387.93	104.79
388.14	2.39
388.35	117.08
388.56	123.22
388.769	102.74
388.979	37.2
389.189	88.4
389.399	67.92
389.609	158.03
389.818	86.36
390.028	92.5
390.238	16.73
390.447	8.53
390.657	59.73
390.867	31.06
391.076	0.34
391.286	39.25
391.496	82.26
391.705	31.06
391.915	96.6
392.125	63.83
392.334	53.59
392.544	115.03
392.753	37.2
392.963	102.74
393.172	47.44
393.382	20.82
393.591	119.12
393.801	51.54
394.01	59.73
394.22	86.36
394.429	92.5
394.639	14.68
394.848	51.54
395.058	137.56
395.267	112.98
395.477	94.55
395.686	162.13
395.895	65.88
396.105	47.44
396.314	149.84
396.524	14.68
396.733	78.16
396.942	121.17
397.152	96.6
397.361	115.03
397.57	98.64
397.78	69.97
397.989	121.17
398.198	139.6
398.407	69.97
398.617	67.92
398.826	100.69
399.035	78.16
399.244	141.65
399.453	61.78
399.663	188.75
399.872	145.75
400.081	125.27
400.29	180.56
400.499	74.07
400.708	119.12
400.917	98.64
401.127	125.27
401.336	63.83
401.545	94.55
401.754	160.08
401.963	158.03
402.172	90.45
402.381	86.36
402.59	67.92
402.799	139.6
403.008	172.37
403.217	137.56
403.426	127.32
403.635	106.84
403.844	194.9
404.053	190.8
404.262	198.99
404.471	174.42
404.68	201.04
404.888	227.67
405.097	160.08
405.306	127.32
405.515	178.51
405.724	149.84
405.933	178.51
406.142	203.09
406.35	149.84
406.559	166.23
406.768	164.18
406.977	231.76
407.185	186.71
407.394	211.28
407.603	190.8
407.812	246.1
408.02	246.1
408.229	211.28
408.438	260.43
408.646	256.34
408.855	217.43
409.064	196.95
409.272	289.1
409.481	323.92
409.69	266.58
409.898	338.26
410.107	278.87
410.315	323.92
410.524	319.82
410.733	387.41
410.941	280.91
411.15	379.22
411.358	401.74
411.567	358.74
411.775	397.65
411.984	502.09
412.192	473.42
412.401	405.84
412.609	430.41
412.818	512.33
413.026	567.63
413.234	563.53
413.443	512.33
413.651	516.43
413.86	577.87
414.068	637.26
414.276	633.16
414.485	657.74
414.693	676.17
414.901	747.85
415.11	702.79
415.318	758.09
415.526	784.71
415.734	710.99
415.943	819.53
416.151	833.86
416.359	905.54
416.567	874.82
416.776	966.98
416.984	966.98
417.192	960.84
417.4	1001.8
417.608	907.59
417.817	1085.76
418.025	1134.92
418.233	1188.16
418.441	1157.44
418.649	1173.83
418.857	1292.61
419.065	1356.1
419.273	1284.42
419.481	1392.96
419.689	1407.3
419.897	1380.67
420.105	1554.75
420.313	1610.04
420.521	1597.76
420.729	1698.11
420.937	1655.1
421.145	1741.11
421.353	1960.25
421.561	1968.44
421.769	2003.25
421.977	2103.61
422.185	2076.98
422.393	2322.74
422.601	2306.35
422.809	2181.43
423.017	2326.83
423.224	2404.66
423.432	2478.38
423.64	2527.53
423.848	2736.43
424.056	2711.85
424.263	2834.73
424.471	2787.63
424.679	3017
424.887	3078.44
425.094	3041.57
425.302	3201.32
425.51	3326.24
425.718	3361.06
425.925	3537.18
426.133	3670.3
426.341	3780.89
426.548	4002.07
426.756	3916.06
426.964	4096.28
427.171	4210.97
427.379	4448.53
427.586	4413.71
427.794	4548.88
428.001	4618.51
428.209	5064.97
428.417	4897.03
428.624	5308.68
428.832	5251.33
429.039	5288.2
429.247	5157.13
429.454	5724.41
429.662	6058.23
429.869	5642.5
430.076	6125.82
430.284	6037.75
430.491	6387.96
430.699	6537.46
430.906	6605.04
431.114	6629.62
431.321	7241.96
431.528	7094.51
431.736	7508.19
431.943	7631.07
432.15	7563.49
432.358	7672.03
432.565	8085.72
432.772	8038.62
432.979	8442.07
433.187	8685.78
433.394	8634.58
433.601	9304.26
433.808	9480.39
434.016	9365.7
434.223	9631.94
434.43	10244.28
434.637	10004.67
434.844	10670.26
435.052	11042.99
435.259	10975.41
435.466	10942.64
435.673	10875.06
435.88	11579.56
436.087	12148.89
436.294	12196
436.501	11739.3
436.708	12378.26
436.915	12658.84
437.122	13146.25
437.329	13170.83
437.537	13447.3
437.743	13756.55
437.95	13795.46
438.157	14512.25
438.364	14620.79
438.571	14719.09
438.778	15032.43
438.985	16205.92
439.192	15464.55
439.399	15964.26
439.606	15640.68
439.813	16588.89
440.02	17713.22
440.227	17293.39
440.433	16980.05
440.64	17739.85
440.847	17637.45
441.054	18214.98
441.261	19068.98
441.467	19296.3
441.674	19572.78
441.881	20183.07
442.088	20156.45
442.294	19869.73
442.501	20402.21
442.708	20965.4
442.914	21835.78
443.121	22679.55
443.328	22290.43
443.534	23584.75
443.741	23001.08
443.948	22648.83
444.154	24250.34
444.361	24203.24
444.568	24184.8
444.774	24340.45
444.981	24821.72
445.187	25343.95
445.394	26474.43
445.6	26300.36
445.807	28237.73
446.013	27436.98
446.22	27967.4
446.426	29030.3
446.633	29314.97
446.839	30637.95
447.046	29151.13
447.252	30646.15
447.459	30689.15
447.665	30654.34
447.871	31709.04
448.078	33478.49
448.284	31643.51
448.491	32986.97
448.697	34072.4
448.903	34824
449.11	34289.48
449.316	33957.71
449.522	34815.81
449.728	35934
449.935	35999.54
450.141	35743.54
450.347	36900.64
450.553	35686.2
450.76	36120.37
450.966	37275.42
451.172	36796.2
451.378	37605.14
451.584	37265.18
451.791	38035.22
451.997	37736.21
452.203	38727.43
452.409	38737.67
452.615	38432.52
452.821	36919.07
453.027	36763.43
453.233	38563.59
453.44	36794.15
453.646	37326.62
453.852	37629.72
454.058	38248.21
454.264	36972.32
454.47	37654.29
454.676	36636.45
454.882	38100.75
455.088	34930.5
455.294	35473.21
455.5	35819.31
455.705	36589.35
455.911	34815.81
456.117	34551.62
456.323	33746.77
456.529	32120.68
456.735	33267.55
456.941	32431.97
457.147	31999.85
457.352	31397.75
457.558	30998.4
457.764	31037.31
457.97	30207.88
458.176	29579.15
458.381	29456.28
458.587	28016.55
458.793	28278.69
458.999	26607.55
459.204	28577.7
459.41	27838.38
459.616	25991.11
459.821	26204.1
460.027	25911.24
460.233	25450.45
460.438	24063.97
460.644	24268.77
460.85	23658.48
461.055	23076.85
461.261	22964.21
461.466	21381.14
461.672	20361.25
461.878	21989.38
462.083	20455.45
462.289	20211.74
462.494	20144.16
462.7	19044.4
462.905	18694.2
463.111	19175.47
463.316	19140.66
463.522	18880.57
463.727	18993.2
463.932	18698.3
464.138	18829.37
464.343	18710.58
464.549	18325.57
464.754	18819.13
464.959	18704.44
465.165	18376.76
465.37	17840.2
465.575	17186.9
465.781	17946.69
465.986	18094.15
466.191	17653.83
466.397	17121.36
466.602	16545.88
466.807	16879.7
467.012	16920.66
467.218	16748.63
467.423	16601.18
467.628	16803.92
467.833	17393.74
468.038	16738.39
468.244	16283.74
468.449	17029.2
468.654	16283.74
468.859	16470.11
469.064	16226.4
469.269	15616.1
469.474	15706.21
469.679	16031.84
469.885	15317.1
470.09	15716.45
470.295	15648.87
470.5	15153.26
470.705	15298.67
470.91	15097.97
471.115	14909.55
471.32	15224.94
471.525	15005.81
471.73	14786.68
471.935	14698.61
472.139	14039.17
472.344	14143.61
472.549	14278.78
472.754	14080.13
472.959	13742.21
473.164	13521.03
473.369	13262.99
473.574	13801.6
473.778	13582.47
473.983	13617.29
474.188	13342.86
474.393	13009.04
474.598	12951.7
474.802	12693.65
475.007	12738.71
475.212	12642.45
475.417	12128.41
475.621	12087.45
475.826	12222.62
476.031	11987.1
476.235	12116.12
476.44	12034.21
476.645	11829.41
476.849	11702.43
477.054	11864.22
477.259	11583.65
477.463	11651.24
477.668	11102.38
477.872	11348.14
478.077	11073.71
478.282	10854.58
478.486	10754.23
478.691	10946.73
478.895	10821.81
479.1	10608.82
479.304	10692.79
479.509	10416.31
479.713	10713.27
479.918	10354.87
480.122	10279.1
480.326	10361.02
480.531	10346.68
480.735	10356.92
480.94	10143.93
481.144	10434.74
481.348	9887.93
481.553	9924.8
481.757	9926.85
481.961	9900.22
482.166	9963.71
482.37	10025.15
482.574	9846.98
482.778	9867.45
482.983	9984.19
483.187	10082.49
483.391	9912.51
483.595	9803.97
483.8	9892.03
484.004	9992.38
484.208	10086.59
484.412	9707.71
484.616	9699.52
484.821	9765.06
485.025	9717.95
485.229	9904.32
485.433	9873.6
485.637	9777.34
485.841	9818.3
486.045	9740.48
486.249	9869.5
486.453	9720
486.657	9990.33
486.861	9836.74
487.065	9703.62
487.269	9904.32
487.473	9730.24
487.677	9867.45
487.881	9849.02
488.085	9908.41
488.289	10000.57
488.493	9834.69
488.697	9885.89
488.901	9986.24
489.105	9945.28
489.309	9752.77
489.512	9988.28
489.716	10051.77
489.92	9957.57
490.124	9969.85
490.328	10092.73
490.531	10041.53
490.735	10184.89
490.939	10102.97
491.143	10039.48
491.346	9898.17
491.55	10352.82
491.754	10287.29
491.958	10381.49
492.161	10299.58
492.365	10227.9
492.569	10404.02
492.772	10371.26
492.976	10469.56
493.18	10463.41
493.383	10735.79
493.587	10729.65
493.79	10967.21
493.994	10832.05
494.197	10754.23
494.401	10893.49
494.605	10774.7
494.808	11143.34
495.012	11247.79
495.215	11327.66
495.419	11485.35
495.622	11278.51
495.825	11430.05
496.029	11376.81
496.232	11806.88
496.436	11923.62
496.639	11872.42
496.843	11882.66
497.046	12015.77
497.249	12173.47
497.453	12427.42
497.656	12427.42
497.859	12382.36
498.063	12476.57
498.266	13029.52
498.469	12841.11
498.673	12781.71
498.876	12961.94
499.079	13342.86
499.282	13314.19
499.485	13392.01
499.689	13570.18
499.892	13883.52
500.095	13848.71
500.298	14209.15
500.501	13930.62
500.705	14184.57
500.908	14430.33
501.111	14766.2
501.314	14577.78
501.517	15042.67
501.72	14833.78
501.923	15065.2
502.126	15472.75
502.329	15825
502.532	15900.77
502.735	15841.38
502.938	16357.47
503.141	16318.56
503.344	16437.34
503.547	16382.04
503.75	16644.18
503.953	17111.12
504.156	17348.68
504.359	17229.9
504.562	17330.25
504.765	17647.69
504.968	17795.14
505.17	18085.95
505.373	18126.91
505.576	18501.69
505.779	18606.14
505.982	18620.47
506.185	19370.03
506.387	18978.87
506.59	19206.19
506.793	19839.01
506.996	19509.29
507.198	20226.08
507.401	19988.52
507.604	20418.59
507.807	20738.07
508.009	20899.86
508.212	21090.32
508.415	21280.78
508.617	21805.06
508.82	21506.06
509.022	21639.18
509.225	22161.41
509.428	22089.73
509.63	22302.72
509.833	22446.08
510.035	22896.63
510.238	22706.17
510.44	23482.35
510.643	23547.89
510.845	23644.14
511.048	23601.13
511.25	24119.27
511.453	24330.21
511.655	25157.59
511.858	24715.23
512.06	25003.99
512.262	25370.58
512.465	25253.84
512.667	25739.21
512.87	25819.08
513.072	25950.15
513.274	26214.34
513.477	26609.6
513.679	26828.73
513.881	27035.58
514.084	27363.25
514.286	27363.25
514.488	27740.08
514.69	28440.48
514.893	28520.35
515.095	28368.8
515.297	28862.36
515.499	29173.66
515.701	28815.26
515.904	29757.33
516.106	29880.21
516.308	29912.97
516.51	30320.52
516.712	30138.25
516.914	31000.44
517.116	31369.08
517.318	31205.24
517.52	31319.93
517.722	31287.16
517.925	31899.5
518.127	32249.71
518.329	32413.54
518.531	32477.03
518.733	33294.17
518.935	33273.69
519.136	33216.35
519.338	33996.62
519.54	33597.27
519.742	34033.49
519.944	34254.67
520.146	34733.89
520.348	35014.46
520.55	34957.12
520.752	35149.63
520.954	35616.57
521.155	35841.84
521.357	36327.21
521.559	36570.92
521.761	36990.75
521.963	36687.65
522.164	36974.37
522.366	37259.04
522.568	37723.93
522.77	37549.85
522.971	38016.79
523.173	38000.4
523.375	38266.64
523.576	38326.03
523.778	38399.76
523.98	39016.19
524.181	38752.01
524.383	38962.95
524.584	39368.44
524.786	39468.8
524.988	39569.15
525.189	39675.64
525.391	40208.11
525.592	40550.12
525.794	40470.25
525.995	40548.07
526.197	40701.67
526.398	40804.07
526.6	41031.4
526.801	41555.68
527.003	41328.35
527.204	41340.64
527.406	41826.01
527.607	41340.64
527.808	41893.59
528.01	41795.29
528.211	41750.23
528.412	42526.41
528.614	42784.46
528.815	42387.15
529.016	42856.14
529.218	42485.45
529.419	42763.98
529.62	42948.29
529.822	42608.33
530.023	42796.74
530.224	42802.89
530.425	43243.2
530.626	42735.31
530.828	43062.98
531.029	43546.3
531.23	43159.23
531.431	43022.02
531.632	43175.62
531.833	43290.3
532.035	43464.38
532.236	43513.53
532.437	43959.99
532.638	43183.81
532.839	43947.7
533.04	43624.12
533.241	43318.98
533.442	44132.02
533.643	43912.89
533.844	43652.8
534.045	43888.31
534.246	43413.18
534.447	43685.56
534.648	44158.64
534.849	44363.44
535.05	43921.08
535.251	43720.38
535.451	43792.06
535.652	44209.84
535.853	43951.8
536.054	44263.09
536.255	44238.51
536.456	44013.24
536.657	44320.43
536.857	43425.47
537.058	43716.28
537.259	43890.36
537.46	44379.82
537.66	43939.51
537.861	44242.61
538.062	43769.53
538.263	43972.28
538.463	43800.25
538.664	44322.48
538.865	44005.05
539.065	44222.13
539.266	43888.31
539.466	44431.02
539.667	43583.16
539.868	43959.99
540.068	43959.99
540.269	44066.48
540.469	44105.4
540.67	43402.94
540.87	43921.08
541.071	43894.46
541.271	44248.75
541.472	43773.63
541.672	43865.78
541.873	43431.61
542.073	43761.34
542.274	44041.91
542.474	43910.84
542.675	43751.1
542.875	44349.1
543.075	43884.22
543.276	43263.68
543.476	43751.1
543.676	43644.6
543.877	44134.07
544.077	43550.4
544.277	43560.64
544.478	43622.08
544.678	43898.55
544.878	43949.75
545.078	43585.21
545.279	43175.62
545.479	43962.04
545.679	43845.3
545.879	43738.81
546.079	43806.39
546.28	43988.66
546.48	43470.53
546.68	43792.06
546.88	43843.26
547.08	43730.62
547.28	43130.56
547.48	42833.61
547.68	43744.95
547.88	43796.15
548.081	43771.58
548.281	43695.8
548.481	43488.96
548.681	44046.01
548.881	43538.11
549.081	43706.04
549.28	43218.63
549.48	43912.89
549.68	43515.58
549.88	43923.13
550.08	43478.72
550.28	43744.95
550.48	43568.83
550.68	43617.98
550.88	43417.28
551.08	43474.62
551.279	43443.9
551.479	43054.79
551.679	43548.35
551.879	43448
552.079	43806.39
552.278	43480.77
552.478	43796.15
552.678	43452.09
552.878	43703.99
553.077	43095.75
553.277	43134.66
553.477	43685.56
553.676	43495.1
553.876	43308.74
554.076	43634.36
554.275	43411.13
554.475	42804.94
554.674	43118.28
554.874	43314.88
555.074	42911.43
555.273	43445.95
555.473	43628.22
555.672	43065.03
555.872	43425.47
556.071	42921.67
556.271	43384.51
556.47	42780.36
556.67	42958.53
556.869	43005.64
557.068	43089.6
557.268	42966.73
557.467	42786.5
557.667	42608.33
557.866	42794.7
558.065	42653.39
558.265	42612.43
558.464	42131.15
558.663	42968.77
558.863	42579.66
559.062	43050.69
559.261	42444.49
559.461	43097.8
559.66	42227.41
559.859	42059.48
560.058	42229.46
560.258	42577.61
560.457	41699.03
560.656	42565.32
560.855	42325.71
561.054	42464.97
561.253	42329.81
561.453	42247.89
561.652	41977.56
561.851	42303.18
562.05	41721.56
562.249	41572.06
562.448	42305.23
562.647	41748.18
562.846	41197.28
563.045	41803.48
563.244	41191.14
563.443	41957.08
563.642	41379.55
563.841	41516.76
564.04	40929
564.239	41502.43
564.438	41199.33
564.637	41553.63
564.836	41238.24
565.035	41049.83
565.234	40871.65
565.432	40679.14
565.631	40847.08
565.83	40855.27
566.029	40580.84
566.228	40437.48
566.427	40756.97
566.625	40232.69
566.824	40156.91
567.023	40341.23
567.222	39915.25
567.42	40972
567.619	40470.25
567.818	40171.25
568.016	40036.08
568.215	40533.74
568.414	40015.6
568.612	40314.61
568.811	39700.22
569.01	39978.74
569.208	39114.5
569.407	40146.67
569.605	39577.34
569.804	39911.16
570.002	39165.7
570.201	39819
570.4	39319.29
570.598	38909.7
570.797	38971.14
570.995	39161.6
571.193	39272.19
571.392	39159.55
571.59	38835.97
571.789	38833.92
571.987	38551.31
572.186	38668.04
572.384	38344.46
572.582	38575.88
572.781	38524.68
572.979	38076.18
573.177	38164.24
573.376	38471.43
573.574	37834.52
573.772	38096.66
573.971	37695.25
574.169	37900.05
574.367	37635.86
574.565	37791.51
574.763	37715.73
574.962	37283.61
575.16	37267.23
575.358	37756.69
575.556	36880.16
575.754	37424.92
575.952	37021.47
576.151	37537.56
576.349	36917.03
576.547	36742.95
576.745	37113.63
576.943	36976.42
577.141	36857.63
577.339	36587.3
577.537	36448.04
577.735	36538.15
577.933	36468.52
578.131	36556.58
578.329	36118.32
578.527	36306.73
578.725	36073.26
578.923	36163.37
579.121	35983.15
579.319	36159.28
579.516	35876.66
579.714	36290.35
579.912	35589.94
580.11	35796.79
580.308	35907.38
580.506	35487.54
580.704	34914.11
580.901	35209.02
581.099	35575.61
581.297	34830.15
581.495	35129.15
581.692	35372.86
581.89	34998.08
582.088	35108.67
582.285	34789.19
582.483	35131.2
582.681	34764.61
582.878	34834.24
583.076	34146.12
583.274	34867.01
583.471	34238.28
583.669	34348.87
583.866	34228.04
584.064	34373.45
584.262	33744.72
584.459	34162.51
584.657	33795.92
584.854	34246.47
585.052	33458.01
585.249	33961.81
585.447	33654.61
585.644	33343.32
585.841	33511.25
586.039	33804.11
586.236	33107.8
586.434	32974.69
586.631	33009.5
586.828	33304.41
587.026	32870.24
587.223	33083.23
587.42	32503.65
587.618	32714.59
587.815	32192.36
588.012	32548.71
588.21	32585.57
588.407	32993.12
588.604	32182.12
588.801	32094.06
588.999	32030.57
589.196	32141.16
589.393	32038.76
589.59	32094.06
589.787	31829.87
589.984	31852.4
590.182	31575.92
590.379	31575.92
590.576	31459.19
590.773	31571.83
590.97	31350.65
591.167	31721.33
591.364	30850.94
591.561	31348.6
591.758	30752.64
591.955	30603.14
592.152	31188.86
592.349	30562.18
592.546	30697.34
592.743	30642.05
592.94	30248.84
593.137	30857.09
593.334	30861.18
593.531	30103.43
593.727	30236.55
593.924	30173.06
594.121	30121.87
594.318	30343.05
594.515	29687.7
594.712	30011.28
594.908	29476.76
595.105	29939.6
595.302	29767.57
595.499	29742.99
595.696	29368.21
595.892	29155.22
596.089	29454.23
596.286	29282.2
596.482	29204.38
596.679	29087.64
596.876	29357.97
597.072	28948.38
597.269	28665.76
597.466	28733.34
597.662	28440.48
597.859	28772.25
598.055	28620.7
598.252	28368.8
598.448	28327.85
598.645	28227.49
598.841	28272.55
599.038	28288.93
599.234	28309.41
599.431	27989.93
599.627	27357.11
599.824	28333.99
600.02	27674.54
600.217	28135.34
600.413	27639.73
600.609	27455.41
600.806	27563.95
601.002	27606.96
601.198	27248.57
601.395	27140.02
601.591	27160.5
601.787	26939.32
601.984	26939.32
602.18	26996.67
602.376	26961.85
602.572	26955.71
602.769	26548.16
602.965	26558.4
603.161	26738.62
603.357	26472.39
603.553	26517.44
603.75	26660.8
603.946	26003.4
604.142	26611.65
604.338	25941.96
604.534	26122.18
604.73	25731.02
604.926	26042.31
605.122	25952.2
605.318	25671.63
605.514	25890.76
605.71	25685.97
605.906	25565.14
606.102	25579.47
606.298	25681.87
606.494	25429.97
606.69	25513.94
606.886	25511.89
607.082	24917.98
607.278	25382.87
607.474	24997.85
607.67	25069.53
607.866	24442.85
608.062	25151.45
608.257	25001.94
608.453	24852.44
608.649	24920.03
608.845	25003.99
609.041	24778.72
609.236	24737.76
609.432	24764.38
609.628	24723.42
609.824	24823.77
610.019	24537.05
610.215	24186.85
610.411	24436.7
610.606	24305.63
610.802	24563.68
610.998	24326.11
611.193	24584.16
611.389	24188.9
611.584	24205.28
611.78	23826.41
611.976	24047.59
612.171	24127.46
612.367	23949.29
612.562	23939.05
612.758	23873.51
612.953	23760.87
613.149	24063.97
613.344	23713.77
613.539	24369.12
613.735	23885.8
613.93	23881.7
614.126	23470.06
614.321	23773.16
614.517	23775.21
614.712	23717.87
614.907	23459.82
615.103	23369.71
615.298	23386.1
615.493	23592.94
615.688	23439.34
615.884	23914.47
616.079	22781.95
616.274	23332.85
616.47	23001.08
616.665	23066.61
616.86	22968.31
617.055	22964.21
617.25	23076.85
617.445	23134.2
617.641	22749.18
617.836	23029.75
618.031	22499.33
618.226	22988.79
618.421	22497.28
618.616	22816.76
618.811	22468.61
619.006	22577.15
619.201	22345.73
619.396	22450.17
619.591	22130.69
619.786	22200.32
619.981	22026.25
620.176	22200.32
620.371	21823.5
620.566	21653.51
620.761	22007.81
620.956	21954.57
621.151	21413.9
621.346	21487.63
621.541	21129.23
621.735	21639.18
621.93	21022.74
622.125	21139.47
622.32	20877.33
622.515	21098.52
622.709	20856.86
622.904	20635.67
623.099	20582.43
623.294	20451.36
623.488	20275.23
623.683	20623.39
623.878	20023.33
624.072	19855.4
624.267	19974.18
624.462	19918.89
624.656	19900.45
624.851	20013.09
625.046	19613.74
625.24	19908.65
625.435	19161.14
625.629	19200.05
625.824	19226.67
626.018	19159.09
626.213	18473.02
626.407	19013.68
626.602	18667.58
626.796	18696.25
626.991	18729.02
627.185	18665.53
627.38	18604.09
627.574	18405.44
627.768	18202.69
627.963	18274.37
628.157	18040.9
628.352	18049.09
628.546	17903.68
628.74	17907.78
628.935	17700.94
629.129	17772.61
629.323	17268.81
629.517	17485.9
629.712	17391.69
629.906	17399.88
630.1	16920.66
630.294	16871.51
630.489	17018.96
630.683	16967.76
630.877	16521.31
631.071	16562.26
631.265	16552.02
631.459	16218.21
631.653	16447.58
631.848	16461.91
632.042	16253.02
632.236	16271.45
632.43	16158.81
632.624	16357.47
632.818	15921.25
633.012	15822.95
633.206	15921.25
633.4	15575.14
633.594	15642.73
633.788	15626.34
633.982	15417.45
634.176	15495.27
634.369	15427.69
634.563	15224.94
634.757	15153.26
634.951	15069.3
635.145	15298.67
635.339	15124.59
635.533	14692.47
635.726	14778.48
635.92	14577.78
636.114	14798.96
636.308	14743.67
636.501	14567.54
636.695	14569.59
636.889	14325.88
637.083	14176.38
637.276	14209.15
637.47	14125.18
637.664	13928.58
637.857	14065.79
638.051	13947.01
638.244	14020.74
638.438	13670.53
638.632	13613.19
638.825	13613.19
639.019	13631.62
639.212	13711.49
639.406	13580.42
639.599	13641.86
639.793	13461.64
639.986	13082.77
640.18	13164.68
640.373	13074.57
640.567	12939.41
640.76	13070.48
640.954	12755.09
641.147	12923.02
641.34	12742.8
641.534	12767.38
641.727	12759.19
641.92	12632.21
642.114	12570.77
642.307	12544.15
642.5	12464.28
642.694	12243.1
642.887	12288.15
643.08	12433.56
643.273	12177.56
643.467	12120.22
643.66	12187.8
643.853	11866.27
644.046	11972.77
644.239	11978.91
644.432	11729.06
644.626	11579.56
644.819	11948.19
645.012	11696.29
645.205	11475.11
645.398	11468.97
645.591	11333.8
645.784	11554.98
645.977	11370.66
646.17	11241.64
646.363	11143.34
646.556	11153.58
646.749	11188.39
646.942	11149.48
647.135	11157.68
647.328	11004.08
647.521	10950.83
647.714	10825.9
647.907	10891.44
648.099	10844.34
648.292	10877.1
648.485	10733.75
648.678	10743.99
648.871	10713.27
649.064	10494.13
649.256	10387.64
649.449	10424.5
649.642	10254.52
649.835	10049.72
650.027	9955.52
650.22	10295.48
650.413	10080.44
650.605	10086.59
650.798	9787.58
650.991	9892.03
651.183	10033.34
651.376	9875.65
651.568	9853.12
651.761	9828.54
651.954	9760.96
652.146	9808.06
652.339	9728.19
652.531	9722.05
652.724	9687.23
652.916	9304.26
653.109	9627.84
653.301	9357.51
653.494	9461.96
653.686	9216.2
653.879	9556.16
654.071	9312.46
654.263	9224.39
654.456	9148.62
654.648	9208.01
654.84	9023.69
655.033	8911.05
655.225	8685.78
655.417	8958.16
655.61	8757.46
655.802	8851.66
655.994	8669.39
656.186	8726.74
656.379	8585.43
656.571	8739.02
656.763	8542.42
656.955	8673.49
657.148	8577.23
657.34	8491.22
657.532	8382.68
657.724	8495.32
657.916	8388.82
658.108	8384.73
658.3	8224.98
658.492	8206.55
658.684	8145.11
658.876	8122.59
659.068	8257.75
659.26	7985.37
659.452	8055
659.644	7844.06
659.836	7952.6
660.028	8081.63
660.22	7776.48
660.412	7848.16
660.604	7874.78
660.796	7768.29
660.988	7792.86
661.18	7612.64
661.372	7586.02
661.563	7557.35
661.755	7461.09
661.947	7563.49
662.139	7536.87
662.331	7448.8
662.522	7366.88
662.714	7350.5
662.906	7413.99
663.097	7155.94
663.289	7289.06
663.481	7264.49
663.673	7303.4
663.864	7237.86
664.056	7149.8
664.247	7172.33
664.439	6983.91
664.631	7014.63
664.822	7039.21
665.014	6965.48
665.205	6938.86
665.397	6924.52
665.588	6770.93
665.78	6807.79
665.971	6828.27
666.163	6893.8
666.354	6760.69
666.546	6635.76
666.737	6600.94
666.929	6768.88
667.12	6779.12
667.311	6772.97
667.503	6484.21
667.694	6582.51
667.885	6443.25
668.077	6504.69
668.268	6527.22
668.459	6347
668.651	6455.54
668.842	6244.6
669.033	6287.61
669.224	6299.89
669.416	6451.44
669.607	6297.85
669.798	6189.3
669.989	6170.87
670.18	6170.87
670.371	6164.73
670.563	6129.91
670.754	6162.68
670.945	6109.43
671.136	6052.09
671.327	5992.7
671.518	5957.88
671.709	5976.31
671.9	6101.24
672.091	5933.31
672.282	5871.87
672.473	5937.4
672.664	5976.31
672.855	5886.2
673.046	5900.54
673.237	5998.84
673.428	5730.56
673.619	5660.93
673.809	5687.55
674	5703.93
674.191	5767.42
674.382	5609.73
674.573	5603.58
674.764	5427.46
674.954	5576.96
675.145	5417.22
675.336	5576.96
675.527	5554.43
675.717	5572.86
675.908	5605.63
676.099	5601.54
676.289	5409.03
676.48	5558.53
676.671	5329.16
676.861	5294.34
677.052	5345.54
677.243	5273.86
677.433	5308.68
677.624	5392.64
677.814	5161.22
678.005	5306.63
678.195	5196.04
678.386	5183.75
678.576	5247.24
678.767	5212.42
678.957	5226.76
679.148	5312.77
679.338	5153.03
679.529	5124.36
679.719	5005.58
679.909	5175.56
680.1	5134.6
680.29	5159.17
680.481	5015.82
680.671	4987.15
680.861	5038.34
681.052	5191.94
681.242	5130.5
681.432	5091.59
681.622	4978.95
681.813	5005.58
682.003	5013.77
682.193	4921.61
682.383	5124.36
682.573	5171.46
682.764	4796.68
682.954	4839.69
683.144	4948.23
683.334	4925.71
683.524	4970.76
683.714	5003.53
683.904	4698.38
684.094	5036.3
684.284	4892.94
684.474	4981
684.664	4831.5
684.854	4720.91
685.044	4806.92
685.234	4598.03
685.424	4688.14
685.614	4688.14
685.804	4833.55
685.994	4516.11
686.184	4710.67
686.374	4667.66
686.564	4573.46
686.753	4827.4
686.943	4632.85
687.133	4598.03
687.323	4577.55
687.513	4530.45
687.702	4305.17
687.892	4448.53
688.082	4462.87
688.272	4503.82
688.461	4462.87
688.651	4591.89
688.841	4239.64
689.03	4292.88
689.22	4434.19
689.41	4323.6
689.599	4303.12
689.789	4284.69
689.979	4241.68
690.168	4200.73
690.358	4231.44
690.547	4120.85
690.737	4153.62
690.926	4172.05
691.116	4108.57
691.305	4088.09
691.495	4157.72
691.684	4083.99
691.874	4010.26
692.063	4030.74
692.252	3881.24
692.442	4151.57
692.631	4026.65
692.82	4098.33
693.01	3936.54
693.199	4069.66
693.388	3868.95
693.578	3969.3
693.767	3866.91
693.956	3840.28
694.146	3784.99
694.335	3678.49
694.524	3625.25
694.713	3809.56
694.902	3756.32
695.092	3832.09
695.281	3686.69
695.47	3764.51
695.659	3592.48
695.848	3674.4
696.037	3762.46
696.226	3709.21
696.415	3592.48
696.604	3735.84
696.793	3621.15
696.982	3483.94
697.171	3674.4
697.36	3774.75
697.549	3649.82
697.738	3670.3
697.927	3596.57
698.116	3531.04
698.305	3541.28
698.494	3580.19
698.683	3531.04
698.872	3488.03
699.061	3598.62
699.25	3643.68
699.438	3553.57
699.627	3498.27
699.816	3535.14
700.005	3438.88
700.193	3543.33
700.382	3442.98
700.571	3543.33
700.76	3510.56
700.948	3526.94
701.137	3442.98
701.326	3445.02
701.514	3379.49
701.703	3537.18
701.892	3371.3
702.08	3498.27
702.269	3397.92
702.457	3397.92
702.646	3479.84
702.834	3385.63
703.023	3471.65
703.212	3469.6
703.4	3330.34
703.589	3238.18
703.777	3535.14
703.965	3389.73
704.154	3326.24
704.342	3330.34
704.531	3338.53
704.719	3350.82
704.907	3354.91
705.096	3485.98
705.284	3369.25
705.472	3449.12
705.661	3514.66
705.849	3389.73
706.037	3318.05
706.226	3328.29
706.414	3383.59
706.602	3295.52
706.79	3352.87
706.979	3270.95
707.167	3234.08
707.355	3285.28
707.543	3238.18
707.731	3322.15
707.919	3289.38
708.107	3252.52
708.296	3359.01
708.484	3295.52
708.672	3311.91
708.86	3207.46
709.048	3336.48
709.236	3264.8
709.424	3354.91
709.612	3309.86
709.8	3168.55
709.988	3238.18
710.176	3356.96
710.364	3287.33
710.551	3289.38
710.739	3279.14
710.927	3121.45
711.115	3158.31
711.303	3162.41
711.491	3297.57
711.679	3111.21
711.866	3189.03
712.054	3195.17
712.242	3242.28
712.43	3221.8
712.617	3162.41
712.805	3326.24
712.993	3117.35
713.181	3258.66
713.368	3260.71
713.556	3291.43
713.744	3096.87
713.931	3270.95
714.119	3244.32
714.306	3162.41
714.494	3107.11
714.682	3197.22
714.869	3170.6
715.057	3260.71
715.244	3158.31
715.432	3270.95
715.619	3111.21
715.807	3234.08
715.994	3076.39
716.182	3150.12
716.369	3178.79
716.556	3293.48
716.744	3191.08
716.931	3121.45
717.119	3248.42
717.306	3105.06
717.493	3035.43
717.681	3092.77
717.868	3240.23
718.055	3232.04
718.242	3090.73
718.43	3117.35
718.617	3234.08
718.804	3250.47
718.991	3045.67
719.179	3221.8
719.366	3025.19
719.553	3127.59
719.74	3195.17
719.927	3115.3
720.114	3006.76
720.301	3096.87
720.488	2959.66
720.676	3092.77
720.863	3154.21
721.05	3027.24
721.237	3164.45
721.424	3143.97
721.611	3162.41
721.798	3014.95
721.985	3146.02
722.172	3072.29
722.358	3105.06
722.545	3143.97
722.732	3019.05
722.919	3074.34
723.106	3156.26
723.293	3025.19
723.48	3039.53
723.667	3107.11
723.853	2949.42
724.04	3103.01
724.227	3000.62
724.414	3109.16
724.6	3107.11
724.787	2988.33
724.974	2935.08
725.161	2947.37
725.347	2990.38
725.534	3045.67
725.72	3051.81
725.907	3039.53
726.094	3066.15
726.28	3125.54
726.467	3021.1
726.653	3164.45
726.84	3154.21
727.027	3186.98
727.213	3017
727.4	3078.44
727.586	2996.52
727.773	3074.34
727.959	3148.07
728.145	2992.42
728.332	2918.7
728.518	3111.21
728.705	2976.04
728.891	3035.43
729.077	3066.15
729.264	3029.29
729.45	3033.38
729.636	3117.35
729.823	3080.49
730.009	3027.24
730.195	3039.53
730.382	3012.9
730.568	2930.98
730.754	3037.48
730.94	3014.95
731.126	3084.58
731.313	3123.49
731.499	2939.18
731.685	3062.05
731.871	3072.29
732.057	3060.01
732.243	3082.53
732.429	2871.59
732.615	3010.86
732.801	3029.29
732.987	3037.48
733.173	2961.7
733.359	2969.9
733.545	2933.03
733.731	3068.2
733.917	3051.81
734.103	3037.48
734.289	3094.82
734.475	3004.71
734.661	2918.7
734.847	2996.52
735.033	2959.66
735.219	2879.79
735.404	3080.49
735.59	2892.07
735.776	3060.01
735.962	3080.49
736.148	2953.51
736.333	3027.24
736.519	2973.99
736.705	2998.57
736.89	3000.62
737.076	2828.59
737.262	2855.21
737.447	2914.6
737.633	2908.46
737.819	2904.36
738.004	2963.75
738.19	2881.83
738.375	2855.21
738.561	2926.89
738.747	2703.66
738.932	2752.81
739.118	2828.59
739.303	2828.59
739.489	2812.2
739.674	2734.38
739.859	2771.24
740.045	2754.86
740.23	2779.43
740.416	2894.12
740.601	2828.59
740.786	2687.28
740.972	2672.94
741.157	2765.1
741.342	2826.54
741.528	2756.91
741.713	2806.06
741.898	2724.14
742.084	2597.17
742.269	2795.82
742.454	2625.84
742.639	2687.28
742.824	2695.47
743.01	2789.67
743.195	2652.46
743.38	2687.28
743.565	2494.77
743.75	2674.99
743.935	2646.32
744.12	2681.13
744.305	2543.92
744.49	2582.83
744.675	2658.6
744.86	2574.64
745.045	2576.69
745.23	2494.77
745.415	2494.77
745.6	2500.91
745.785	2548.01
745.97	2511.15
746.155	2394.42
746.34	2410.8
746.525	2457.9
746.71	2500.91
746.895	2421.04
747.079	2498.86
747.264	2396.46
747.449	2494.77
747.634	2392.37
747.819	2388.27
748.003	2306.35
748.188	2394.42
748.373	2158.9
748.557	2339.12
748.742	2283.83
748.927	2353.46
749.111	2220.34
749.296	2341.17
749.481	2285.87
749.665	2181.43
749.85	2181.43
750.034	2232.63
750.219	2109.75
750.404	2150.71
750.588	2244.92
750.773	2011.45
750.957	2091.32
751.141	2115.89
751.326	2134.32
751.51	2023.73
751.695	2048.31
751.879	2103.61
752.064	2119.99
752.248	2031.93
752.432	2019.64
752.617	2005.3
752.801	2017.59
752.985	1900.86
753.17	1937.72
753.354	1970.49
753.538	1978.68
753.722	1970.49
753.907	1790.27
754.091	1845.56
754.275	1894.71
754.459	1831.23
754.643	1872.18
754.828	1843.51
755.012	1771.83
755.196	1780.03
755.38	1866.04
755.564	1788.22
755.748	1820.99
755.932	1704.25
756.116	1745.21
756.3	1638.72
756.484	1691.96
756.668	1634.62
756.852	1745.21
757.036	1675.58
757.22	1591.61
757.404	1710.4
757.588	1612.09
757.772	1605.95
757.956	1640.76
758.14	1599.8
758.323	1569.09
758.507	1618.24
758.691	1552.7
758.875	1636.67
759.059	1591.61
759.242	1560.89
759.426	1612.09
759.61	1487.17
759.794	1564.99
759.977	1495.36
760.161	1548.61
760.345	1526.08
760.528	1411.39
760.712	1450.3
760.895	1438.02
761.079	1487.17
761.263	1532.22
761.446	1448.26
761.63	1411.39
761.813	1478.97
761.997	1491.26
762.18	1352
762.364	1386.82
762.547	1372.48
762.731	1362.24
762.914	1442.11
763.098	1403.2
763.281	1395.01
763.464	1450.3
763.648	1409.34
763.831	1333.57
764.015	1425.73
764.198	1372.48
764.381	1341.76
764.564	1321.28
764.748	1323.33
764.931	1311.04
765.114	1352
765.297	1274.18
765.481	1290.56
765.664	1337.66
765.847	1184.07
766.03	1296.71
766.213	1284.42
766.397	1288.51
766.58	1208.64
766.763	1227.07
766.946	1257.79
767.129	1208.64
767.312	1259.84
767.495	1288.51
767.678	1159.49
767.861	1308.99
768.044	1233.22
768.227	1229.12
768.41	1169.73
768.593	1157.44
768.776	1218.88
768.959	1108.29
769.142	1120.58
769.324	1196.36
769.507	1153.35
769.69	1106.24
769.873	1069.38
770.056	1184.07
770.239	1055.05
770.421	1210.69
770.604	1124.68
770.787	1124.68
770.97	1065.29
771.152	1053
771.335	1091.91
771.518	1089.86
771.7	1167.68
771.883	1136.96
772.066	1005.89
772.248	1075.52
772.431	1110.34
772.613	1083.72
772.796	964.93
772.978	1067.33
773.161	948.55
773.343	1055.05
773.526	1048.9
773.708	948.55
773.891	964.93
774.073	1112.39
774.256	1003.85
774.438	1012.04
774.621	979.27
774.803	964.93
774.985	856.39
775.168	1018.18
775.35	942.41
775.532	872.78
775.715	942.41
775.897	860.49
776.079	954.69
776.261	885.06
776.444	917.83
776.626	856.39
776.808	872.78
776.99	919.88
777.173	753.99
777.355	919.88
777.537	817.48
777.719	901.45
777.901	848.2
778.083	852.3
778.265	840.01
778.447	872.78
778.629	790.86
778.811	821.58
778.993	897.35
779.175	760.14
779.357	829.77
779.539	723.27
779.721	803.15
779.903	756.04
780.085	801.1
780.267	743.75
780.449	850.25
780.631	733.51
780.812	794.95
780.994	682.31
781.176	735.56
781.358	676.17
781.54	717.13
781.721	753.99
781.903	672.08
782.085	631.12
782.267	751.95
782.448	678.22
782.63	727.37
782.812	717.13
782.993	672.08
783.175	674.12
783.357	643.4
783.538	686.41
783.72	663.88
783.901	600.4
784.083	672.08
784.264	665.93
784.446	608.59
784.627	649.55
784.809	645.45
784.99	594.25
785.172	659.79
785.353	581.96
785.535	620.88
785.716	604.49
785.897	563.53
786.079	553.29
786.26	577.87
786.441	651.6
786.623	477.52
786.804	541.01
786.985	534.86
787.167	559.44
787.348	489.81
787.529	520.53
787.71	674.12
787.891	549.2
788.073	573.77
788.254	510.29
788.435	559.44
788.616	508.24
788.797	457.04
788.978	508.24
789.159	487.76
789.34	551.24
789.522	508.24
789.703	502.09
789.884	459.09
790.065	465.23
790.246	532.81
790.427	428.37
790.607	522.57
790.788	569.68
790.969	381.26
791.15	465.23
791.331	426.32
791.512	422.22
791.693	454.99
791.874	391.5
792.054	500.05
792.235	432.46
792.416	416.08
792.597	405.84
792.778	434.51
792.958	473.42
793.139	344.4
793.32	403.79
793.5	391.5
793.681	424.27
793.862	448.85
794.042	442.7
794.223	387.41
794.404	373.07
794.584	373.07
794.765	407.89
794.945	387.41
795.126	450.89
795.306	385.36
795.487	420.17
795.667	321.87
795.848	373.07
796.028	422.22
796.209	368.98
796.389	379.22
796.57	342.35
796.75	276.82
796.93	383.31
797.111	317.78
797.291	313.68
797.471	371.02
797.652	360.78
797.832	358.74
798.012	356.69
798.192	303.44
798.373	264.53
798.553	317.78
798.733	280.91
798.913	311.63
799.093	381.26
799.274	332.11
799.454	280.91
799.634	268.63
799.814	405.84
799.994	276.82
800.174	391.5
800.354	227.67
800.534	278.87
800.714	377.17
800.894	368.98
801.074	319.82
801.254	244.05
801.434	356.69
801.614	272.72
801.794	274.77
801.974	692.55
802.154	291.15
802.334	278.87
802.514	307.54
802.693	287.06
802.873	387.41
803.053	270.67
803.233	272.72
803.413	244.05
803.592	325.97
803.772	338.26
803.952	276.82
804.131	276.82
804.311	301.39
804.491	405.84
804.67	297.3
804.85	315.73
805.03	260.43
805.209	330.06
805.389	248.15
805.568	256.34
805.748	293.2
805.928	358.74
806.107	237.91
806.287	346.45
806.466	223.57
806.646	246.1
806.825	242
807.004	297.3
807.184	307.54
807.363	274.77
807.543	221.52
807.722	282.96
807.901	258.39
808.081	309.58
808.26	151.89
808.439	295.25
808.619	209.23
808.798	272.72
808.977	233.81
809.156	225.62
809.336	268.63
809.515	250.19
809.694	194.9
809.873	229.71
810.052	242
810.231	264.53
810.411	213.33
810.59	289.1
810.769	196.95
810.948	250.19
811.127	211.28
811.306	143.7
811.485	155.99
811.664	274.77
811.843	242
812.022	239.95
812.201	147.8
812.38	201.04
812.559	180.56
812.737	219.47
812.916	186.71
813.095	151.89
813.274	221.52
813.453	162.13
813.632	258.39
813.811	213.33
813.989	176.47
814.168	205.14
814.347	133.46
814.526	186.71
814.704	229.71
814.883	207.19
815.062	143.7
815.24	217.43
815.419	143.7
815.598	223.57
815.776	182.61
815.955	190.8
816.133	201.04
816.312	203.09
816.49	223.57
816.669	225.62
816.847	137.56
817.026	229.71
817.204	174.42
817.383	237.91
817.561	258.39
817.74	188.75
817.918	162.13
818.097	117.08
818.275	205.14
818.453	166.23
818.632	223.57
818.81	139.6
818.988	166.23
819.167	65.88
819.345	133.46
819.523	158.03
819.701	203.09
819.879	186.71
820.058	196.95
820.236	155.99
820.414	115.03
820.592	221.52
820.77	184.66
820.948	174.42
821.127	178.51
821.305	119.12
821.483	102.74
821.661	162.13
821.839	166.23
822.017	76.12
822.195	151.89
822.373	176.47
822.551	139.6
822.729	149.84
822.907	143.7
823.085	96.6
823.262	209.23
823.44	145.75
823.618	158.03
823.796	198.99
823.974	166.23
824.152	143.7
824.329	131.41
824.507	160.08
824.685	80.21
824.863	119.12
825.04	90.45
825.218	139.6
825.396	139.6
825.574	127.32
825.751	131.41
825.929	133.46
826.107	133.46
826.284	164.18
826.462	151.89
826.639	115.03
826.817	106.84
826.994	121.17
827.172	88.4
827.349	151.89
827.527	135.51
827.704	151.89
827.882	127.32
828.059	139.6
828.237	182.61
828.414	94.55
828.591	43.35
828.769	121.17
828.946	131.41
829.124	135.51
829.301	149.84
829.478	108.88
829.655	74.07
829.833	131.41
830.01	127.32
830.187	141.65
830.364	164.18
830.542	125.27
830.719	137.56
830.896	110.93
831.073	57.68
831.25	115.03
831.427	164.18
831.604	69.97
831.782	98.64
831.959	84.31
832.136	119.12
832.313	117.08
832.49	82.26
832.667	141.65
832.844	80.21
833.021	88.4
833.198	127.32
833.374	82.26
833.551	117.08
833.728	112.98
833.905	129.36
834.082	135.51
834.259	127.32
834.436	112.98
834.612	45.4
834.789	84.31
834.966	90.45
835.143	72.02
835.319	104.79
835.496	67.92
835.673	151.89
835.85	155.99
836.026	155.99
836.203	100.69
836.38	104.79
836.556	35.16
836.733	45.4
836.909	141.65
837.086	43.35
837.262	37.2
837.439	82.26
837.616	84.31
837.792	74.07
837.968	133.46
838.145	12.63
838.321	125.27
838.498	121.17
838.674	76.12
838.851	80.21
839.027	43.35
839.203	78.16
839.38	125.27
839.556	76.12
839.732	149.84
839.909	53.59
840.085	88.4
840.261	10.58
840.437	92.5
840.614	2.39
840.79	119.12
840.966	90.45
841.142	90.45
841.318	63.83
841.494	39.25
841.671	26.96
841.847	100.69
842.023	45.4
842.199	41.3
842.375	47.44
842.551	47.44
842.727	33.11
842.903	84.31
843.079	33.11
843.255	88.4
843.431	96.6
843.607	80.21
843.783	33.11
843.959	92.5
844.134	63.83
844.31	84.31
844.486	63.83
844.662	51.54
844.838	82.26
845.013	92.5
845.189	88.4
845.365	43.35
845.541	108.88
845.716	51.54
845.892	112.98
846.068	61.78
846.244	115.03
846.419	65.88
846.595	26.96
846.77	26.96
846.946	37.2
847.122	26.96
847.297	24.92
847.473	90.45
847.648	78.16
847.824	74.07
847.999	-3.75
848.175	29.01
848.35	61.78
848.526	24.92
848.701	90.45
848.876	123.22
849.052	115.03
849.227	51.54
849.403	-18.09
849.578	37.2
849.753	49.49
849.929	43.35
850.104	14.68
850.279	49.49
850.454	94.55
850.63	57.68
850.805	86.36
850.98	22.87
851.155	100.69
851.33	22.87
851.505	82.26
851.681	112.98
851.856	39.25
852.031	47.44
852.206	53.59
852.381	-1.71
852.556	-20.14
852.731	78.16
852.906	92.5
853.081	20.82
853.256	100.69
853.431	39.25
853.606	-11.95
853.781	78.16
853.956	39.25
854.131	-5.8
854.305	76.12
854.48	67.92
854.655	53.59
854.83	39.25
855.005	4.44
855.18	129.36
855.354	53.59
855.529	45.4
855.704	63.83
855.879	121.17
856.053	29.01
856.228	86.36
856.403	16.73
856.577	2.39
856.752	49.49
856.926	37.2
857.101	84.31
857.276	37.2
857.45	4.44
857.625	14.68
857.799	29.01
857.974	86.36
858.148	-26.28
858.323	67.92
858.497	37.2
858.672	6.49
858.846	31.06
859.02	82.26
859.195	72.02
859.369	115.03
859.543	33.11
859.718	65.88
859.892	67.92
860.066	20.82
860.241	33.11
860.415	-24.23
860.589	31.06
860.763	72.02
860.938	35.16
861.112	145.75
861.286	12.63
861.46	-13.99
861.634	82.26
861.808	72.02
861.982	84.31
862.157	29.01
862.331	72.02
862.505	4.44
862.679	-20.14
862.853	102.74
863.027	63.83
863.201	92.5
863.375	-32.43
863.549	26.96
863.722	76.12
863.896	139.6
864.07	-13.99
864.244	63.83
864.418	117.08
864.592	65.88
864.766	33.11
864.939	-5.8
865.113	-3.75
865.287	69.97
865.461	14.68
865.634	22.87
865.808	127.32
865.982	22.87
866.156	37.2
866.329	12.63
866.503	-20.14
866.676	24.92
866.85	22.87
867.024	33.11
867.197	41.3
867.371	35.16
867.544	80.21
867.718	-18.09
867.891	12.63
868.065	-28.33
868.238	67.92
868.412	26.96
868.585	98.64
868.759	26.96
868.932	26.96
869.105	29.01
869.279	55.64
869.452	-36.52
869.625	-3.75
869.799	125.27
869.972	26.96
870.145	74.07
870.319	57.68
870.492	-28.33
870.665	61.78
870.838	-13.99
871.011	-11.95
871.185	-18.09
871.358	24.92
871.531	-11.95
871.704	20.82
871.877	69.97
872.05	33.11
872.223	37.2
872.396	63.83
872.569	29.01
872.742	-34.47
872.915	37.2
873.088	-16.04
873.261	88.4
873.434	-40.62
873.607	22.87
873.78	41.3
873.953	-5.8
874.126	-11.95
874.299	-9.9
874.471	4.44
874.644	-7.85
874.817	51.54
874.99	117.08
875.163	26.96
875.335	6.49
875.508	16.73
875.681	53.59
875.853	-57
876.026	-61.1
876.199	84.31
876.371	-11.95
876.544	-40.62
876.717	41.3
876.889	33.11
877.062	33.11
877.234	-3.75
877.407	33.11
877.579	-1.71
877.752	39.25
877.924	24.92
878.097	22.87
878.269	-1.71
878.442	31.06
878.614	8.53
878.786	63.83
878.959	86.36
879.131	57.68
879.303	37.2
879.476	59.73
879.648	72.02
879.82	4.44
879.993	6.49
880.165	43.35
880.337	45.4
880.509	35.16
880.681	-22.19
880.854	10.58
881.026	4.44
881.198	123.22
881.37	51.54
881.542	-91.82
881.714	24.92
881.886	20.82
882.058	10.58
882.23	69.97
882.402	-48.81
882.574	-9.9
882.746	26.96
882.918	20.82
883.09	-20.14
883.262	4.44
883.434	-30.38
883.606	-36.52
883.778	2.39
883.95	45.4
884.122	31.06
884.293	41.3
884.465	31.06
884.637	14.68
884.809	41.3
884.98	-13.99
885.152	8.53
885.324	20.82
885.496	57.68
885.667	26.96
885.839	-18.09
886.011	72.02
886.182	92.5
886.354	-11.95
886.525	8.53
886.697	-3.75
886.869	41.3
887.04	49.49
887.212	76.12
887.383	74.07
887.555	6.49
887.726	33.11
887.897	8.53
888.069	78.16
888.24	29.01
888.412	12.63
888.583	45.4
888.754	72.02
888.926	-54.95
889.097	-16.04
889.268	-24.23
889.44	-7.85
889.611	-48.81
889.782	-32.43
889.953	-5.8
890.125	110.93
890.296	-1.71
890.467	-36.52
890.638	0.34
890.809	61.78
890.98	39.25
891.151	49.49
891.323	80.21
891.494	-22.19
891.665	86.36
891.836	-32.43
892.007	45.4
892.178	16.73
892.349	16.73
892.52	41.3
892.691	-26.28
892.862	26.96
893.032	10.58
893.203	37.2
893.374	10.58
893.545	59.73
893.716	2.39
893.887	-18.09
894.057	22.87
894.228	53.59
894.399	-3.75
894.57	51.54
894.74	-20.14
894.911	35.16
895.082	-57
895.253	-71.34
895.423	14.68
895.594	41.3
895.764	65.88
895.935	10.58
896.106	78.16
896.276	57.68
896.447	8.53
896.617	-40.62
896.788	-32.43
896.958	49.49
897.129	39.25
897.299	33.11
897.47	51.54
897.64	-26.28
897.81	-9.9
897.981	10.58
898.151	-5.8
898.322	125.27
898.492	80.21
898.662	26.96
898.832	55.64
899.003	31.06
899.173	4.44
899.343	6.49
899.513	-54.95
