Data from USB4F104151__5__12-26-54-478.txt Node

Date: Fri Mar 14 12:26:54 EDT 2025
User: louis
Spectrometer: USB4F10415
Trigger mode: 4
Integration Time (sec): 2.000000E-2
Scans to average: 1
Electric dark correction enabled: true
Nonlinearity correction enabled: false
Boxcar width: 0
XAxis mode: Wavelengths
Number of Pixels in Spectrum: 3648
>>>>>Begin Spectral Data<<<<<
178.204	-34.47
178.424	-34.47
178.644	-34.47
178.864	-100.01
179.084	-75.43
179.304	20.82
179.524	-24.23
179.744	12.63
179.964	41.3
180.184	-52.91
180.404	10.58
180.624	8.53
180.844	4.44
181.064	-71.34
181.283	-7.85
181.503	31.06
181.723	26.96
181.943	-59.05
182.163	45.4
182.383	26.96
182.602	35.16
182.822	31.06
183.042	33.11
183.262	33.11
183.482	8.53
183.701	-26.28
183.921	57.68
184.141	61.78
184.361	76.12
184.58	-3.75
184.8	72.02
185.02	29.01
185.239	14.68
185.459	35.16
185.679	-3.75
185.898	-34.47
186.118	82.26
186.338	-18.09
186.557	41.3
186.777	-44.71
186.997	10.58
187.216	-46.76
187.436	69.97
187.655	0.34
187.875	18.77
188.095	6.49
188.314	67.92
188.534	26.96
188.753	6.49
188.973	-1.71
189.192	35.16
189.412	51.54
189.631	33.11
189.851	108.88
190.07	22.87
190.29	-3.75
190.509	51.54
190.729	63.83
190.948	-16.04
191.168	207.19
191.387	59.73
191.607	4.44
191.826	90.45
192.045	53.59
192.265	-11.95
192.484	2.39
192.704	108.88
192.923	4.44
193.142	65.88
193.362	78.16
193.581	108.88
193.8	121.17
194.02	8.53
194.239	-28.33
194.458	29.01
194.678	-1.71
194.897	-3.75
195.116	0.34
195.335	-28.33
195.555	-32.43
195.774	-54.95
195.993	63.83
196.212	8.53
196.432	2.39
196.651	86.36
196.87	-9.9
197.089	119.12
197.308	76.12
197.528	-11.95
197.747	37.2
197.966	2.39
198.185	35.16
198.404	39.25
198.623	4.44
198.842	57.68
199.062	84.31
199.281	33.11
199.5	39.25
199.719	53.59
199.938	41.3
200.157	63.83
200.376	43.35
200.595	63.83
200.814	-18.09
201.033	74.07
201.252	76.12
201.471	45.4
201.69	67.92
201.909	-16.04
202.128	53.59
202.347	74.07
202.566	33.11
202.785	0.34
203.004	-44.71
203.223	106.84
203.442	-1.71
203.661	59.73
203.879	12.63
204.098	35.16
204.317	55.64
204.536	57.68
204.755	-22.19
204.974	33.11
205.193	4.44
205.411	182.61
205.63	14.68
205.849	16.73
206.068	29.01
206.287	108.88
206.505	26.96
206.724	29.01
206.943	-22.19
207.162	104.79
207.381	69.97
207.599	-5.8
207.818	31.06
208.037	16.73
208.255	8.53
208.474	0.34
208.693	49.49
208.911	-48.81
209.13	18.77
209.349	-18.09
209.567	12.63
209.786	35.16
210.005	39.25
210.223	29.01
210.442	57.68
210.661	41.3
210.879	14.68
211.098	-16.04
211.316	51.54
211.535	29.01
211.753	24.92
211.972	-20.14
212.191	-1.71
212.409	20.82
212.628	14.68
212.846	106.84
213.065	82.26
213.283	61.78
213.502	8.53
213.72	69.97
213.938	49.49
214.157	35.16
214.375	80.21
214.594	94.55
214.812	26.96
215.031	-30.38
215.249	-7.85
215.467	43.35
215.686	35.16
215.904	45.4
216.122	31.06
216.341	78.16
216.559	41.3
216.778	63.83
216.996	86.36
217.214	47.44
217.432	-75.43
217.651	16.73
217.869	-34.47
218.087	8.53
218.306	65.88
218.524	92.5
218.742	69.97
218.96	16.73
219.179	26.96
219.397	10.58
219.615	61.78
219.833	39.25
220.051	37.2
220.27	78.16
220.488	-5.8
220.706	-3.75
220.924	-5.8
221.142	-5.8
221.36	6.49
221.578	45.4
221.796	-40.62
222.015	49.49
222.233	-30.38
222.451	16.73
222.669	69.97
222.887	14.68
223.105	-1.71
223.323	67.92
223.541	0.34
223.759	37.2
223.977	67.92
224.195	63.83
224.413	2.39
224.631	65.88
224.849	57.68
225.067	76.12
225.285	35.16
225.503	16.73
225.721	63.83
225.939	-11.95
226.157	29.01
226.375	86.36
226.592	8.53
226.81	16.73
227.028	53.59
227.246	61.78
227.464	12.63
227.682	12.63
227.9	6.49
228.117	86.36
228.335	49.49
228.553	69.97
228.771	31.06
228.989	8.53
229.206	92.5
229.424	39.25
229.642	-48.81
229.86	22.87
230.077	86.36
230.295	59.73
230.513	20.82
230.731	69.97
230.948	18.77
231.166	55.64
231.384	57.68
231.601	43.35
231.819	61.78
232.037	29.01
232.254	33.11
232.472	-16.04
232.689	10.58
232.907	-9.9
233.125	-20.14
233.342	10.58
233.56	26.96
233.777	-38.57
233.995	-5.8
234.213	24.92
234.43	74.07
234.648	29.01
234.865	67.92
235.083	31.06
235.3	4.44
235.518	-7.85
235.735	16.73
235.953	6.49
236.17	82.26
236.388	55.64
236.605	29.01
236.822	6.49
237.04	47.44
237.257	65.88
237.475	-57
237.692	115.03
237.909	24.92
238.127	10.58
238.344	22.87
238.562	18.77
238.779	102.74
238.996	59.73
239.214	51.54
239.431	29.01
239.648	84.31
239.865	-9.9
240.083	84.31
240.3	-38.57
240.517	59.73
240.735	84.31
240.952	98.64
241.169	-1.71
241.386	-7.85
241.603	61.78
241.821	22.87
242.038	49.49
242.255	78.16
242.472	-28.33
242.689	16.73
242.907	84.31
243.124	41.3
243.341	45.4
243.558	10.58
243.775	43.35
243.992	24.92
244.209	41.3
244.426	37.2
244.643	92.5
244.86	41.3
245.078	-3.75
245.295	72.02
245.512	-18.09
245.729	31.06
245.946	-1.71
246.163	31.06
246.38	10.58
246.597	26.96
246.814	-11.95
247.031	57.68
247.248	43.35
247.464	-54.95
247.681	65.88
247.898	31.06
248.115	65.88
248.332	12.63
248.549	94.55
248.766	47.44
248.983	65.88
249.2	24.92
249.417	67.92
249.633	22.87
249.85	-20.14
250.067	49.49
250.284	43.35
250.501	74.07
250.717	106.84
250.934	51.54
251.151	67.92
251.368	-28.33
251.585	24.92
251.801	86.36
252.018	-36.52
252.235	49.49
252.451	100.69
252.668	24.92
252.885	86.36
253.102	8.53
253.318	12.63
253.535	49.49
253.752	-16.04
253.968	41.3
254.185	-18.09
254.401	24.92
254.618	39.25
254.835	106.84
255.051	33.11
255.268	86.36
255.484	-3.75
255.701	16.73
255.917	119.12
256.134	-18.09
256.351	-5.8
256.567	49.49
256.784	69.97
257	-22.19
257.217	20.82
257.433	-3.75
257.65	88.4
257.866	86.36
258.082	26.96
258.299	2.39
258.515	0.34
258.732	-26.28
258.948	78.16
259.165	16.73
259.381	-40.62
259.597	84.31
259.814	76.12
260.03	14.68
260.246	43.35
260.463	-18.09
260.679	43.35
260.895	2.39
261.112	61.78
261.328	33.11
261.544	63.83
261.761	78.16
261.977	0.34
262.193	-13.99
262.409	20.82
262.626	57.68
262.842	78.16
263.058	104.79
263.274	149.84
263.49	49.49
263.707	86.36
263.923	37.2
264.139	51.54
264.355	65.88
264.571	94.55
264.787	78.16
265.004	43.35
265.22	29.01
265.436	49.49
265.652	51.54
265.868	45.4
266.084	-11.95
266.3	88.4
266.516	14.68
266.732	22.87
266.948	-3.75
267.164	41.3
267.38	102.74
267.596	104.79
267.812	53.59
268.028	80.21
268.244	53.59
268.46	45.4
268.676	4.44
268.892	86.36
269.108	18.77
269.324	61.78
269.54	4.44
269.756	61.78
269.972	72.02
270.188	112.98
270.403	37.2
270.619	31.06
270.835	6.49
271.051	100.69
271.267	4.44
271.483	24.92
271.698	84.31
271.914	98.64
272.13	-24.23
272.346	33.11
272.562	129.36
272.777	104.79
272.993	16.73
273.209	-48.81
273.425	16.73
273.64	2.39
273.856	-22.19
274.072	14.68
274.287	39.25
274.503	67.92
274.719	67.92
274.934	78.16
275.15	33.11
275.366	69.97
275.581	14.68
275.797	14.68
276.012	35.16
276.228	14.68
276.444	-16.04
276.659	102.74
276.875	31.06
277.09	33.11
277.306	22.87
277.521	33.11
277.737	-40.62
277.952	59.73
278.168	69.97
278.383	20.82
278.599	80.21
278.814	4.44
279.03	33.11
279.245	-7.85
279.461	55.64
279.676	84.31
279.892	-11.95
280.107	20.82
280.322	12.63
280.538	84.31
280.753	16.73
280.969	55.64
281.184	29.01
281.399	78.16
281.615	16.73
281.83	26.96
282.045	-1.71
282.26	31.06
282.476	-13.99
282.691	92.5
282.906	-28.33
283.122	31.06
283.337	6.49
283.552	37.2
283.767	10.58
283.983	51.54
284.198	37.2
284.413	8.53
284.628	-5.8
284.843	8.53
285.058	45.4
285.274	106.84
285.489	-1.71
285.704	72.02
285.919	59.73
286.134	12.63
286.349	-5.8
286.564	-40.62
286.779	37.2
286.995	100.69
287.21	43.35
287.425	65.88
287.64	8.53
287.855	18.77
288.07	61.78
288.285	29.01
288.5	4.44
288.715	41.3
288.93	26.96
289.145	49.49
289.36	45.4
289.575	53.59
289.79	43.35
290.004	47.44
290.219	65.88
290.434	39.25
290.649	43.35
290.864	8.53
291.079	53.59
291.294	0.34
291.509	84.31
291.724	2.39
291.938	65.88
292.153	16.73
292.368	14.68
292.583	-24.23
292.798	84.31
293.012	53.59
293.227	41.3
293.442	90.45
293.657	6.49
293.871	127.32
294.086	45.4
294.301	43.35
294.516	61.78
294.73	16.73
294.945	6.49
295.16	29.01
295.374	69.97
295.589	-7.85
295.804	49.49
296.018	12.63
296.233	61.78
296.447	63.83
296.662	-32.43
296.877	92.5
297.091	14.68
297.306	4.44
297.52	78.16
297.735	84.31
297.949	18.77
298.164	20.82
298.378	59.73
298.593	-26.28
298.807	67.92
299.022	82.26
299.236	72.02
299.451	63.83
299.665	47.44
299.88	6.49
300.094	14.68
300.309	-5.8
300.523	65.88
300.737	22.87
300.952	67.92
301.166	69.97
301.381	18.77
301.595	76.12
301.809	88.4
302.024	59.73
302.238	39.25
302.452	94.55
302.667	61.78
302.881	33.11
303.095	26.96
303.309	37.2
303.524	2.39
303.738	14.68
303.952	61.78
304.166	53.59
304.381	-9.9
304.595	94.55
304.809	18.77
305.023	31.06
305.237	6.49
305.452	31.06
305.666	43.35
305.88	47.44
306.094	86.36
306.308	43.35
306.522	80.21
306.736	-9.9
306.95	86.36
307.164	26.96
307.379	59.73
307.593	102.74
307.807	45.4
308.021	127.32
308.235	49.49
308.449	-13.99
308.663	4.44
308.877	108.88
309.091	26.96
309.305	78.16
309.519	-5.8
309.733	94.55
309.947	47.44
310.161	14.68
310.374	90.45
310.588	84.31
310.802	80.21
311.016	80.21
311.23	78.16
311.444	51.54
311.658	18.77
311.872	35.16
312.085	78.16
312.299	82.26
312.513	80.21
312.727	57.68
312.941	33.11
313.154	123.22
313.368	37.2
313.582	4.44
313.796	12.63
314.009	26.96
314.223	-1.71
314.437	86.36
314.651	35.16
314.864	59.73
315.078	43.35
315.292	2.39
315.505	59.73
315.719	80.21
315.933	41.3
316.146	18.77
316.36	55.64
316.573	57.68
316.787	86.36
317.001	55.64
317.214	-13.99
317.428	49.49
317.641	35.16
317.855	-5.8
318.068	29.01
318.282	24.92
318.495	82.26
318.709	88.4
318.922	6.49
319.136	88.4
319.349	90.45
319.563	-24.23
319.776	100.69
319.99	24.92
320.203	90.45
320.417	-1.71
320.63	29.01
320.843	76.12
321.057	49.49
321.27	49.49
321.483	33.11
321.697	94.55
321.91	41.3
322.124	59.73
322.337	61.78
322.55	65.88
322.763	78.16
322.977	76.12
323.19	20.82
323.403	61.78
323.617	82.26
323.83	45.4
324.043	8.53
324.256	-9.9
324.469	102.74
324.683	53.59
324.896	61.78
325.109	137.56
325.322	14.68
325.535	33.11
325.748	51.54
325.962	94.55
326.175	-11.95
326.388	12.63
326.601	92.5
326.814	96.6
327.027	102.74
327.24	117.08
327.453	4.44
327.666	2.39
327.879	43.35
328.092	43.35
328.305	-9.9
328.518	41.3
328.731	59.73
328.944	16.73
329.157	31.06
329.37	35.16
329.583	108.88
329.796	31.06
330.009	35.16
330.222	49.49
330.435	88.4
330.648	43.35
330.861	47.44
331.073	35.16
331.286	55.64
331.499	26.96
331.712	24.92
331.925	35.16
332.138	4.44
332.35	16.73
332.563	82.26
332.776	98.64
332.989	72.02
333.202	12.63
333.414	26.96
333.627	0.34
333.84	4.44
334.053	6.49
334.265	59.73
334.478	-18.09
334.691	76.12
334.903	69.97
335.116	35.16
335.329	86.36
335.541	65.88
335.754	98.64
335.966	0.34
336.179	18.77
336.392	51.54
336.604	8.53
336.817	24.92
337.029	108.88
337.242	59.73
337.454	53.59
337.667	0.34
337.88	133.46
338.092	20.82
338.305	55.64
338.517	22.87
338.729	53.59
338.942	31.06
339.154	29.01
339.367	78.16
339.579	55.64
339.792	33.11
340.004	41.3
340.217	-5.8
340.429	80.21
340.641	-54.95
340.854	80.21
341.066	53.59
341.278	115.03
341.491	35.16
341.703	55.64
341.915	-32.43
342.128	43.35
342.34	59.73
342.552	43.35
342.764	6.49
342.977	51.54
343.189	74.07
343.401	-11.95
343.613	-7.85
343.826	125.27
344.038	14.68
344.25	102.74
344.462	35.16
344.674	12.63
344.886	20.82
345.099	49.49
345.311	86.36
345.523	4.44
345.735	35.16
345.947	61.78
346.159	20.82
346.371	100.69
346.583	24.92
346.795	67.92
347.007	33.11
347.219	6.49
347.431	24.92
347.643	104.79
347.855	2.39
348.067	33.11
348.279	57.68
348.491	108.88
348.703	143.7
348.915	45.4
349.127	57.68
349.339	-9.9
349.551	-7.85
349.763	86.36
349.975	22.87
350.187	125.27
350.399	104.79
350.61	69.97
350.822	26.96
351.034	29.01
351.246	49.49
351.458	90.45
351.669	26.96
351.881	43.35
352.093	78.16
352.305	69.97
352.517	14.68
352.728	82.26
352.94	26.96
353.152	129.36
353.363	-32.43
353.575	35.16
353.787	92.5
353.999	86.36
354.21	112.98
354.422	22.87
354.633	22.87
354.845	26.96
355.057	125.27
355.268	41.3
355.48	141.65
355.692	0.34
355.903	16.73
356.115	35.16
356.326	74.07
356.538	67.92
356.749	43.35
356.961	63.83
357.172	-3.75
357.384	20.82
357.595	43.35
357.807	98.64
358.018	41.3
358.23	78.16
358.441	86.36
358.653	49.49
358.864	4.44
359.075	47.44
359.287	-5.8
359.498	61.78
359.709	61.78
359.921	37.2
360.132	14.68
360.344	35.16
360.555	65.88
360.766	112.98
360.977	41.3
361.189	94.55
361.4	78.16
361.611	96.6
361.823	100.69
362.034	69.97
362.245	96.6
362.456	-1.71
362.667	100.69
362.879	78.16
363.09	-5.8
363.301	41.3
363.512	43.35
363.723	67.92
363.935	22.87
364.146	80.21
364.357	-5.8
364.568	43.35
364.779	72.02
364.99	82.26
365.201	14.68
365.412	151.89
365.623	26.96
365.834	-7.85
366.045	59.73
366.256	47.44
366.467	76.12
366.678	59.73
366.889	45.4
367.1	-1.71
367.311	86.36
367.522	88.4
367.733	14.68
367.944	47.44
368.155	155.99
368.366	47.44
368.577	115.03
368.788	55.64
368.999	65.88
369.209	47.44
369.42	-20.14
369.631	76.12
369.842	35.16
370.053	-13.99
370.264	67.92
370.474	31.06
370.685	59.73
370.896	149.84
371.107	61.78
371.317	4.44
371.528	20.82
371.739	112.98
371.95	51.54
372.16	131.41
372.371	84.31
372.582	72.02
372.792	14.68
373.003	129.36
373.214	90.45
373.424	119.12
373.635	72.02
373.846	102.74
374.056	33.11
374.267	4.44
374.477	88.4
374.688	127.32
374.898	69.97
375.109	-9.9
375.319	43.35
375.53	65.88
375.74	84.31
375.951	110.93
376.161	35.16
376.372	98.64
376.582	33.11
376.793	74.07
377.003	43.35
377.214	6.49
377.424	98.64
377.635	80.21
377.845	41.3
378.055	86.36
378.266	49.49
378.476	92.5
378.686	-9.9
378.897	84.31
379.107	106.84
379.317	20.82
379.528	18.77
379.738	112.98
379.948	-65.19
380.158	115.03
380.369	26.96
380.579	57.68
380.789	39.25
380.999	92.5
381.21	121.17
381.42	112.98
381.63	55.64
381.84	84.31
382.05	76.12
382.261	96.6
382.471	96.6
382.681	41.3
382.891	106.84
383.101	59.73
383.311	31.06
383.521	80.21
383.731	139.6
383.941	45.4
384.151	57.68
384.361	88.4
384.571	35.16
384.781	96.6
384.991	92.5
385.201	121.17
385.411	72.02
385.621	125.27
385.831	96.6
386.041	61.78
386.251	31.06
386.461	117.08
386.671	88.4
386.881	145.75
387.091	43.35
387.301	8.53
387.511	57.68
387.72	51.54
387.93	78.16
388.14	69.97
388.35	106.84
388.56	35.16
388.769	78.16
388.979	63.83
389.189	8.53
389.399	72.02
389.609	61.78
389.818	63.83
390.028	16.73
390.238	55.64
390.447	76.12
390.657	110.93
390.867	37.2
391.076	61.78
391.286	78.16
391.496	94.55
391.705	45.4
391.915	86.36
392.125	31.06
392.334	104.79
392.544	139.6
392.753	82.26
392.963	127.32
393.172	51.54
393.382	133.46
393.591	117.08
393.801	67.92
394.01	143.7
394.22	98.64
394.429	6.49
394.639	135.51
394.848	94.55
395.058	188.75
395.267	94.55
395.477	84.31
395.686	57.68
395.895	151.89
396.105	127.32
396.314	47.44
396.524	55.64
396.733	65.88
396.942	125.27
397.152	162.13
397.361	98.64
397.57	133.46
397.78	84.31
397.989	121.17
398.198	149.84
398.407	108.88
398.617	112.98
398.826	37.2
399.035	106.84
399.244	92.5
399.453	90.45
399.663	74.07
399.872	123.22
400.081	123.22
400.29	112.98
400.499	149.84
400.708	203.09
400.917	129.36
401.127	67.92
401.336	92.5
401.545	166.23
401.754	121.17
401.963	125.27
402.172	69.97
402.381	76.12
402.59	102.74
402.799	121.17
403.008	131.41
403.217	190.8
403.426	108.88
403.635	67.92
403.844	121.17
404.053	180.56
404.262	82.26
404.471	141.65
404.68	149.84
404.888	190.8
405.097	121.17
405.306	164.18
405.515	207.19
405.724	164.18
405.933	192.85
406.142	194.9
406.35	213.33
406.559	158.03
406.768	180.56
406.977	217.43
407.185	184.66
407.394	215.38
407.603	203.09
407.812	264.53
408.02	227.67
408.229	297.3
408.438	254.29
408.646	176.47
408.855	244.05
409.064	280.91
409.272	262.48
409.481	340.3
409.69	256.34
409.898	262.48
410.107	301.39
410.315	278.87
410.524	332.11
410.733	307.54
410.941	330.06
411.15	381.26
411.358	360.78
411.567	391.5
411.775	459.09
411.984	377.17
412.192	360.78
412.401	493.9
412.609	432.46
412.818	473.42
413.026	465.23
413.234	555.34
413.443	512.33
413.651	545.1
413.86	651.6
414.068	610.64
414.276	600.4
414.485	624.97
414.693	579.92
414.901	680.27
415.11	717.13
415.318	667.98
415.526	741.71
415.734	799.05
415.943	772.43
416.151	829.77
416.359	778.57
416.567	856.39
416.776	797
416.984	950.6
417.192	991.56
417.4	977.22
417.608	1003.85
417.817	1096
418.025	1145.16
418.233	1225.03
418.441	1145.16
418.649	1102.15
418.857	1304.9
419.065	1308.99
419.273	1276.23
419.481	1370.43
419.689	1384.77
419.897	1534.27
420.105	1546.56
420.313	1562.94
420.521	1655.1
420.729	1691.96
420.937	1732.92
421.145	1734.97
421.353	1919.29
421.561	1909.05
421.769	1888.57
421.977	2074.93
422.185	1954.1
422.393	2185.52
422.601	2220.34
422.809	2396.46
423.017	2388.27
423.224	2341.17
423.432	2447.66
423.64	2533.68
423.848	2742.57
424.056	2447.66
424.263	2824.49
424.471	2812.2
424.679	2943.27
424.887	3025.19
425.094	3250.47
425.302	3119.4
425.51	3297.57
425.718	3313.95
425.925	3402.02
426.133	3549.47
426.341	3750.17
426.548	3948.83
426.756	3961.11
426.964	3862.81
427.171	4176.15
427.379	4303.12
427.586	4454.67
427.794	4598.03
428.001	4735.25
428.209	5054.73
428.417	4796.68
428.624	5329.16
428.832	5105.93
429.039	5296.39
429.247	5288.2
429.454	5650.69
429.662	5947.64
429.869	5579.01
430.076	6013.18
430.284	5816.57
430.491	6099.19
430.699	6557.94
430.906	6656.24
431.114	6529.27
431.321	6865.13
431.528	7047.4
431.736	7434.47
431.943	7821.53
432.15	7661.79
432.358	7760.09
432.565	8071.39
432.772	8114.39
432.979	8601.81
433.187	8566.99
433.394	8554.71
433.601	9197.77
433.808	9558.21
434.016	9097.42
434.223	9681.09
434.43	10275
434.637	9976
434.844	10768.56
435.052	10793.14
435.259	10825.9
435.466	11006.13
435.673	10938.54
435.88	11368.62
436.087	12124.32
436.294	12011.68
436.501	11792.55
436.708	12093.6
436.915	12640.4
437.122	13090.96
437.329	13037.71
437.537	13463.69
437.743	13449.35
437.95	13525.13
438.157	14372.99
438.364	14827.64
438.571	14600.31
438.778	14960.75
438.985	15980.64
439.192	15442.03
439.399	15976.55
439.606	15583.34
439.813	16674.9
440.02	17907.78
440.227	17702.98
440.433	17053.78
440.64	17643.59
440.847	17623.11
441.054	18032.71
441.261	19302.45
441.467	19013.68
441.674	19394.61
441.881	20224.03
442.088	20178.98
442.294	20105.25
442.501	20449.31
442.708	20566.04
442.914	21833.74
443.121	22620.16
443.328	22243.33
443.534	23445.49
443.741	22919.16
443.948	22800.38
444.154	24457.18
444.361	24283.11
444.568	24393.7
444.774	24494.05
444.981	24559.58
445.187	25528.27
445.394	26687.42
445.6	26083.27
445.807	28727.2
446.013	27598.77
446.22	28088.23
446.426	29106.07
446.633	28995.48
446.839	30220.17
447.046	29235.1
447.252	30592.9
447.459	30859.13
447.665	30599.04
447.871	32386.92
448.078	33451.86
448.284	31989.61
448.491	32814.94
448.697	34211.66
448.903	34408.26
449.11	34574.15
449.316	34144.08
449.522	34688.84
449.728	35796.79
449.935	36312.88
450.141	36159.28
450.347	36853.54
450.553	35870.51
450.76	36327.21
450.966	37287.71
451.172	36812.58
451.378	37844.76
451.584	37087.01
451.791	38541.07
451.997	38248.21
452.203	38848.26
452.409	38713.09
452.615	38432.52
452.821	37080.86
453.027	36738.85
453.233	38450.95
453.44	36994.85
453.646	37386.01
453.852	37535.51
454.058	38311.69
454.264	37037.86
454.47	38158.1
454.676	36925.22
454.882	38328.08
455.088	35452.73
455.294	35489.59
455.5	36060.98
455.705	36478.76
455.911	34879.3
456.117	34760.51
456.323	33879.89
456.529	32032.62
456.735	33595.22
456.941	32827.23
457.147	32257.9
457.352	31487.86
457.558	30967.68
457.764	30832.51
457.97	30189.45
458.176	29736.85
458.381	29640.59
458.587	28057.51
458.793	28137.38
458.999	26767.29
459.204	28710.82
459.41	28108.71
459.616	26124.23
459.821	25952.2
460.027	26249.16
460.233	25374.67
460.438	24104.93
460.644	24541.15
460.85	23504.88
461.055	22992.89
461.261	22820.86
461.466	21288.98
461.672	20504.6
461.878	22016.01
462.083	20697.11
462.289	20424.73
462.494	20076.58
462.7	19216.43
462.905	18812.98
463.111	19228.72
463.316	19658.79
463.522	18849.85
463.727	19140.66
463.932	18919.48
464.138	18954.29
464.343	18950.2
464.549	18219.07
464.754	18843.7
464.959	18896.95
465.165	18632.76
465.37	17791.05
465.575	17397.84
465.781	18188.35
465.986	18268.22
466.191	17475.66
466.397	17147.98
466.602	16320.6
466.807	16996.43
467.012	16867.41
467.218	17102.93
467.423	16912.47
467.628	16861.27
467.833	17596.49
468.038	16904.28
468.244	16435.29
468.449	17045.59
468.654	16472.15
468.859	16197.73
469.064	16457.82
469.269	15720.55
469.474	15738.98
469.679	16152.67
469.885	15657.06
470.09	15804.52
470.295	15675.49
470.5	15429.74
470.705	15577.19
470.91	15198.32
471.115	15128.69
471.32	15226.99
471.525	15214.7
471.73	14948.47
471.935	14620.79
472.139	14264.44
472.344	14379.13
472.549	14444.66
472.754	14200.96
472.959	13691.01
473.164	13486.22
473.369	13705.35
473.574	13846.66
473.778	13742.21
473.983	13742.21
474.188	13658.24
474.393	13027.47
474.598	13125.77
474.802	13052.05
475.007	12855.44
475.212	12880.02
475.417	12454.04
475.621	12437.66
475.826	12462.23
476.031	12177.56
476.235	12101.79
476.44	12173.47
476.645	12036.25
476.849	12079.26
477.054	11780.26
477.259	11501.73
477.463	11675.81
477.668	11466.92
477.872	11362.47
478.077	11323.56
478.282	10916.01
478.486	10897.58
478.691	10789.04
478.895	10815.66
479.1	10703.03
479.304	10627.25
479.509	10356.92
479.713	10504.37
479.918	10434.74
480.122	10348.73
480.326	10309.82
480.531	10553.52
480.735	10242.23
480.94	10176.7
481.144	10463.41
481.348	10236.09
481.553	10381.49
481.757	10031.29
481.961	10096.83
482.166	10068.16
482.37	10053.82
482.574	10049.72
482.778	9887.93
482.983	10172.6
483.187	10137.79
483.391	10131.64
483.595	9697.47
483.8	9873.6
484.004	9877.69
484.208	10021.05
484.412	9832.64
484.616	10328.25
484.821	9978.05
485.025	9920.7
485.229	9943.23
485.433	9801.92
485.637	9892.03
485.841	9914.56
486.045	10021.05
486.249	10027.2
486.453	9803.97
486.657	9932.99
486.861	10059.96
487.065	9810.11
487.269	10000.57
487.473	9930.94
487.677	9926.85
487.881	10244.28
488.085	10084.54
488.289	9949.37
488.493	9914.56
488.697	10150.07
488.901	10121.4
489.105	9892.03
489.309	10211.51
489.512	10066.11
489.716	10207.42
489.92	10039.48
490.124	10107.07
490.328	10485.94
490.531	10262.71
490.735	10260.66
490.939	10201.27
491.143	10279.1
491.346	10287.29
491.55	10627.25
491.754	10451.13
491.958	10522.8
492.161	10582.2
492.365	10531
492.569	10647.73
492.772	10469.56
492.976	10768.56
493.18	10858.67
493.383	10832.05
493.587	10832.05
493.79	11100.33
493.994	10959.02
494.197	10860.72
494.401	11151.53
494.605	10928.3
494.808	11411.62
495.012	11229.35
495.215	11380.9
495.419	11374.76
495.622	11471.01
495.825	11618.47
496.029	11542.69
496.232	11899.04
496.436	11905.18
496.639	12204.19
496.843	11985.05
497.046	12208.28
497.249	12529.81
497.453	12271.77
497.656	12675.22
497.859	12527.77
498.063	12699.8
498.266	13183.12
498.469	12759.19
498.673	13041.81
498.876	13072.53
499.079	13400.2
499.282	13367.43
499.485	13881.47
499.689	13914.24
499.892	14073.98
500.095	13920.38
500.298	14487.67
500.501	14157.95
500.705	14872.69
500.908	14884.98
501.111	15071.34
501.314	14915.7
501.517	15255.66
501.72	15292.52
501.923	15390.83
502.126	15677.54
502.329	15769.7
502.532	16138.34
502.735	16021.6
502.938	16494.68
503.141	16629.85
503.344	16738.39
503.547	16754.77
503.75	17049.68
503.953	17446.99
504.156	17391.69
504.359	17393.74
504.562	17692.74
504.765	17786.95
504.968	18227.26
505.17	18505.79
505.373	18460.73
505.576	18851.89
505.779	18849.85
505.982	19066.93
506.185	19329.07
506.387	19728.42
506.59	19632.17
506.793	20133.92
506.996	20062.24
507.198	20451.36
507.401	20662.3
507.604	20609.05
507.807	21272.59
508.009	21133.33
508.212	21501.97
508.415	21594.12
508.617	21682.19
508.82	21874.7
509.022	21921.8
509.225	22431.74
509.428	22642.68
509.63	22816.76
509.833	23111.67
510.035	23468.02
510.238	23439.34
510.44	23730.16
510.643	23932.9
510.845	24168.42
511.048	24266.72
511.25	24461.28
511.453	24504.29
511.655	25597.9
511.858	25153.49
512.06	25016.28
512.262	25753.55
512.465	25634.77
512.667	26187.72
512.87	26691.52
513.072	26386.37
513.274	27097.02
513.477	27150.26
513.679	27166.65
513.881	27727.79
514.084	27645.87
514.286	27881.39
514.488	28118.95
514.69	28667.81
514.893	28759.97
515.095	28995.48
515.297	29286.29
515.499	29468.56
515.701	29919.12
515.904	29884.3
516.106	30009.23
516.308	30551.94
516.51	30838.65
516.712	30771.07
516.914	30971.77
517.116	31420.28
517.318	31373.17
517.52	31854.45
517.722	32278.38
517.925	32579.43
518.127	32636.77
518.329	32917.34
518.531	32900.96
518.733	33632.08
518.935	33724.24
519.136	33488.73
519.338	34150.22
519.54	34049.87
519.742	34811.71
519.944	34389.83
520.146	35469.11
520.348	35428.15
520.55	35637.05
520.752	35723.06
520.954	36288.3
521.155	36114.22
521.357	36443.95
521.559	37164.83
521.761	37457.69
521.963	37095.2
522.164	37492.51
522.366	37510.94
522.568	38067.98
522.77	38213.39
522.971	38784.77
523.173	38233.87
523.375	38571.78
523.576	38780.68
523.778	38854.4
523.98	39704.31
524.181	39421.69
524.383	39722.74
524.584	39642.87
524.786	40314.61
524.988	39743.22
525.189	40572.65
525.391	40529.64
525.592	40488.68
525.794	41135.84
525.995	40879.85
526.197	40836.84
526.398	41002.72
526.6	41641.69
526.801	41803.48
527.003	41936.6
527.204	41713.37
527.406	42026.71
527.607	42290.9
527.808	42200.79
528.01	42161.87
528.211	42335.95
528.412	42938.05
528.614	42604.24
528.815	42868.42
529.016	43280.06
529.218	42757.83
529.419	42893
529.62	43101.89
529.822	43151.04
530.023	43333.31
530.224	43241.15
530.425	43531.97
530.626	43388.61
530.828	43116.23
531.029	43921.08
531.23	43325.12
531.431	43617.98
531.632	43321.02
531.833	43814.58
532.035	43820.73
532.236	43628.22
532.437	44009.14
532.638	43660.99
532.839	43884.22
533.04	44193.46
533.241	43867.83
533.442	44752.55
533.643	44238.51
533.844	44060.34
534.045	44193.46
534.246	43595.45
534.447	44504.75
534.648	44213.94
534.849	44191.41
535.05	44320.43
535.251	43650.75
535.451	44093.11
535.652	44201.65
535.853	44269.23
536.054	44209.84
536.255	44445.36
536.456	43828.92
536.657	44949.16
536.857	43824.82
537.058	44046.01
537.259	44785.32
537.46	44285.62
537.66	44355.25
537.861	44275.38
538.062	44062.39
538.263	44687.02
538.463	44310.19
538.664	43988.66
538.865	44175.03
539.065	44412.59
539.266	43847.35
539.466	44633.77
539.667	43695.8
539.868	44848.81
540.068	43632.32
540.269	44082.87
540.469	44465.84
540.67	44211.89
540.87	43867.83
541.071	44197.55
541.271	44187.32
541.472	44146.36
541.672	44076.72
541.873	44033.72
542.073	43808.44
542.274	44447.41
542.474	44021.43
542.675	43620.03
542.875	44478.13
543.075	44299.95
543.276	43736.76
543.476	44508.85
543.676	43943.61
543.877	44099.25
544.077	44283.57
544.277	43812.54
544.478	44095.16
544.678	44271.28
544.878	43970.23
545.078	43935.41
545.279	43890.36
545.479	43751.1
545.679	43892.41
545.879	44089.01
546.079	44258.99
546.28	43925.18
546.48	43222.72
546.68	44279.47
546.88	44111.54
547.08	43910.84
547.28	43833.02
547.48	43398.85
547.68	44078.77
547.88	43218.63
548.081	44050.1
548.281	44009.14
548.481	43906.74
548.681	44248.75
548.881	43867.83
549.081	43951.8
549.28	43568.83
549.48	44218.03
549.68	43830.97
549.88	44291.76
550.08	43243.2
550.28	43675.32
550.48	43280.06
550.68	44095.16
550.88	43542.2
551.08	43703.99
551.279	43871.93
551.479	43232.96
551.679	43878.07
551.879	43587.26
552.079	44021.43
552.278	43800.25
552.478	43714.23
552.678	43785.91
552.878	43814.58
553.077	43546.3
553.277	42833.61
553.477	44197.55
553.676	43755.19
553.876	43808.44
554.076	43269.83
554.275	43378.37
554.475	42958.53
554.674	43607.74
554.874	43747
555.074	43445.95
555.273	43509.44
555.473	43280.06
555.672	43224.77
555.872	43230.91
556.071	43327.17
556.271	43568.83
556.47	42845.9
556.67	42768.07
556.869	42985.16
557.068	43443.9
557.268	43138.76
557.467	43208.39
557.667	42759.88
557.866	43011.78
558.065	43128.52
558.265	42573.52
558.464	42690.25
558.663	43071.17
558.863	42616.52
559.062	43265.73
559.261	42411.73
559.461	43380.42
559.66	42569.42
559.859	42608.33
560.058	42219.22
560.258	42741.45
560.457	42297.04
560.656	42632.91
560.855	42634.95
561.054	42849.99
561.253	42092.24
561.453	42333.9
561.652	42495.69
561.851	42268.37
562.05	42090.2
562.249	42034.9
562.448	42411.73
562.647	42194.64
562.846	42075.86
563.045	42514.12
563.244	41686.75
563.443	42403.53
563.642	41275.1
563.841	42251.98
564.04	41688.79
564.239	42288.85
564.438	41406.17
564.637	41496.28
564.836	41739.99
565.035	41119.46
565.234	41682.65
565.432	41391.84
565.631	41238.24
565.83	41320.16
566.029	41144.03
566.228	41045.73
566.427	41141.99
566.625	40941.28
566.824	40673
567.023	41006.82
567.222	40765.16
567.42	41400.03
567.619	41109.22
567.818	40937.19
568.016	40627.95
568.215	40754.92
568.414	40072.95
568.612	41008.87
568.811	40554.22
569.01	40464.11
569.208	39878.39
569.407	40498.92
569.605	40101.62
569.804	40384.24
570.002	40113.91
570.201	39896.82
570.4	39632.63
570.598	39823.09
570.797	39419.64
570.995	39747.32
571.193	39239.42
571.392	39978.74
571.59	39089.92
571.789	39550.71
571.987	39425.79
572.186	39350.01
572.384	39380.73
572.582	39137.02
572.781	39220.99
572.979	39147.26
573.177	39016.19
573.376	38995.71
573.574	38835.97
573.772	39118.59
573.971	38729.48
574.169	38455.05
574.367	38375.18
574.565	38620.94
574.763	38706.95
574.962	38680.33
575.16	37951.25
575.358	38280.97
575.556	37910.29
575.754	38338.32
575.952	37943.06
576.151	38543.11
576.349	37601.05
576.547	37848.85
576.745	37809.94
576.943	37764.89
577.141	37519.13
577.339	37588.76
577.537	37285.66
577.735	37424.92
577.933	37117.73
578.131	37238.56
578.329	37048.1
578.527	36788
578.725	36980.51
578.923	37101.34
579.121	36902.69
579.319	36814.63
579.516	36658.98
579.714	36624.17
579.912	36222.76
580.11	36472.62
580.308	36468.52
580.506	36828.96
580.704	36110.13
580.901	36052.78
581.099	36704.04
581.297	35850.03
581.495	35948.34
581.692	36235.05
581.89	35893.04
582.088	35979.06
582.285	35067.71
582.483	35712.82
582.681	35710.77
582.878	35567.41
583.076	35225.4
583.274	35190.59
583.471	34869.06
583.669	35112.77
583.866	34709.32
584.064	35301.18
584.262	34711.36
584.459	34981.7
584.657	34858.82
584.854	34920.26
585.052	34176.84
585.249	34287.43
585.447	34590.53
585.644	34320.2
585.841	34017.1
586.039	34547.53
586.236	33965.9
586.434	34125.64
586.631	33632.08
586.828	34170.7
587.026	33984.33
587.223	33744.72
587.42	33867.6
587.618	33593.17
587.815	33343.32
588.012	33531.73
588.21	33347.42
588.407	33836.88
588.604	33357.66
588.801	33193.82
588.999	33320.79
589.196	32978.78
589.393	33023.84
589.59	32616.29
589.787	33027.93
589.984	32407.4
590.182	32300.9
590.379	32900.96
590.576	32229.23
590.773	32405.35
590.97	32421.73
591.167	32485.22
591.364	32094.06
591.561	32274.28
591.758	31627.12
591.955	31260.54
592.152	32075.63
592.349	31688.56
592.546	31733.62
592.743	31524.72
592.94	31205.24
593.137	31567.73
593.334	31074.17
593.531	30689.15
593.727	31262.58
593.924	30832.51
594.121	30898.05
594.318	30740.35
594.515	30783.36
594.712	30738.3
594.908	30490.5
595.105	30746.5
595.302	30121.87
595.499	30594.95
595.696	30029.71
595.892	30101.39
596.089	30607.23
596.286	30119.82
596.482	29708.18
596.679	29790.09
596.876	29849.49
597.072	29814.67
597.269	30142.35
597.466	29865.87
597.662	29566.87
597.859	29591.44
598.055	29525.91
598.252	29187.99
598.448	29405.08
598.645	28970.91
598.841	28723.1
599.038	29415.32
599.234	28794.78
599.431	28495.78
599.627	28682.14
599.824	28632.99
600.02	28465.06
600.217	28469.15
600.413	28514.21
600.609	28256.17
600.806	28086.18
601.002	28260.26
601.198	27867.05
601.395	27635.63
601.591	27889.58
601.787	27885.48
601.984	27774.89
602.18	27981.74
602.376	27774.89
602.572	27778.99
602.769	27658.16
602.965	27336.63
603.161	27563.95
603.357	27162.55
603.553	27158.45
603.75	27381.68
603.946	27193.27
604.142	27209.65
604.338	26793.92
604.534	27092.92
604.73	26767.29
604.926	26877.88
605.122	26744.77
605.318	26683.33
605.514	26767.29
605.71	26476.48
605.906	26556.35
606.102	26490.82
606.298	26234.82
606.494	26408.9
606.69	26064.84
606.886	26193.86
607.082	25763.79
607.278	26206.15
607.474	25724.88
607.67	26011.59
607.866	25411.54
608.062	25896.91
608.257	25784.27
608.453	25479.12
608.649	25507.79
608.845	25552.85
609.041	25561.04
609.236	25542.61
609.432	25520.08
609.628	25616.33
609.824	25128.92
610.019	25425.87
610.215	25358.29
610.411	25270.23
610.606	25067.48
610.802	25249.75
610.998	25421.78
611.193	24956.89
611.389	25096.15
611.584	24831.96
611.78	24870.87
611.976	25036.76
612.171	25020.38
612.367	24563.68
612.562	24754.14
612.758	24457.18
612.953	24748
613.149	24895.45
613.344	24547.29
613.539	24725.47
613.735	24393.7
613.93	24694.75
614.126	24231.91
614.321	24463.33
614.517	24432.61
614.712	24133.61
614.907	24246.24
615.103	24375.27
615.298	24023.01
615.493	24547.29
615.688	23959.53
615.884	24395.75
616.079	23973.86
616.274	23971.82
616.47	24113.13
616.665	24010.73
616.86	23551.98
617.055	23879.66
617.25	23570.41
617.445	23822.31
617.641	23502.83
617.836	23734.25
618.031	23179.25
618.226	23631.85
618.421	23588.85
618.616	23615.47
618.811	22931.45
619.006	23400.43
619.201	22800.38
619.396	23009.27
619.591	22870.01
619.786	22978.55
619.981	22568.96
620.176	23046.13
620.371	22362.11
620.566	22620.16
620.761	22587.39
620.956	22867.96
621.151	22431.74
621.346	22321.15
621.541	22171.65
621.735	22183.94
621.93	21626.89
622.125	22063.11
622.32	21714.95
622.515	21823.5
622.709	21671.95
622.904	21583.88
623.099	21131.28
623.294	21352.46
623.488	20985.88
623.683	20752.41
623.878	20772.89
624.072	20713.5
624.267	21032.98
624.462	20494.36
624.656	20215.84
624.851	20449.31
625.046	20437.02
625.24	20156.45
625.435	20105.25
625.629	20029.48
625.824	19914.79
626.018	19834.92
626.213	19558.44
626.407	19669.03
626.602	19429.42
626.796	19732.52
626.991	19396.65
627.185	19308.59
627.38	18993.2
627.574	19001.4
627.768	18851.89
627.963	18759.74
628.157	18774.07
628.352	18567.23
628.546	18507.83
628.74	18458.68
628.935	18200.64
629.129	18159.68
629.323	18116.67
629.517	18034.75
629.712	17850.44
629.906	17393.74
630.1	17487.95
630.294	17770.57
630.489	17436.75
630.683	17551.43
630.877	17412.17
631.071	17047.63
631.265	17442.89
631.459	17080.4
631.653	17014.87
631.848	16998.48
632.042	16707.67
632.236	16967.76
632.43	16605.27
632.624	16463.96
632.818	16748.63
633.012	16289.88
633.206	16244.83
633.4	16457.82
633.594	15966.31
633.788	16117.86
633.982	16156.77
634.176	16001.12
634.369	15890.53
634.563	15779.94
634.757	15773.8
634.951	15943.78
635.145	15517.8
635.339	15730.79
635.533	15214.7
635.726	15415.4
635.92	15030.38
636.114	15372.39
636.308	15360.11
636.501	15143.02
636.695	14997.62
636.889	14764.15
637.083	14835.83
637.276	14739.57
637.47	14805.11
637.664	14645.37
637.857	14671.99
638.051	14510.2
638.244	14418.04
638.438	14364.79
638.632	14047.36
638.825	14166.14
639.019	14315.64
639.212	14006.4
639.406	14014.59
639.599	14047.36
639.793	13887.62
639.986	13693.06
640.18	13490.31
640.373	13613.19
640.567	13508.74
640.76	13475.98
640.954	13408.39
641.147	13226.12
641.34	13535.37
641.534	13226.12
641.727	13148.3
641.92	12933.26
642.114	12914.83
642.307	13056.14
642.5	12738.71
642.694	12581.01
642.887	12896.4
643.08	12875.92
643.273	12624.02
643.467	12718.23
643.66	12675.22
643.853	12349.59
644.046	12275.87
644.239	12431.51
644.432	12341.4
644.626	12292.25
644.819	12048.54
645.012	12263.58
645.205	12159.13
645.398	11974.81
645.591	11923.62
645.784	11847.84
645.977	11724.96
646.17	11620.52
646.363	11645.09
646.556	11464.87
646.749	11641
646.942	11770.02
647.135	11606.18
647.328	11428.01
647.521	11458.73
647.714	11385
647.907	11047.08
648.099	11251.88
648.292	11413.67
648.485	10936.49
648.678	10942.64
648.871	10942.64
649.064	10858.67
649.256	11026.61
649.449	10692.79
649.642	10705.07
649.835	10617.01
650.027	10584.24
650.22	10500.28
650.413	10430.65
650.605	10584.24
650.798	10399.93
650.991	10399.93
651.183	10555.57
651.376	10027.2
651.568	10379.45
651.761	10156.22
651.954	9900.22
652.146	10186.94
652.339	10078.4
652.531	9898.17
652.724	9849.02
652.916	9732.29
653.109	9867.45
653.301	9674.95
653.494	9789.63
653.686	9656.51
653.879	9736.38
654.071	9611.46
654.263	9597.12
654.456	9484.48
654.648	9470.15
654.84	9236.68
655.033	9261.26
655.225	9187.53
655.417	9269.45
655.61	9136.33
655.802	9357.51
655.994	9222.34
656.186	9152.71
656.379	9038.03
656.571	8861.9
656.763	8667.35
656.955	8808.65
657.148	8777.94
657.34	8706.26
657.532	8759.5
657.724	8691.92
657.916	8698.06
658.108	8534.23
658.3	8505.56
658.492	8534.23
658.684	8429.78
658.876	8286.42
659.068	8413.4
659.26	8032.47
659.452	8233.18
659.644	8343.77
659.836	8214.74
660.028	8181.98
660.22	8022.23
660.412	7960.8
660.604	8145.11
660.796	8167.64
660.988	7893.21
661.18	8116.44
661.372	7971.04
661.563	7882.97
661.755	7815.39
661.947	7889.12
662.139	7842.01
662.331	7758.05
662.522	7547.11
662.714	7590.11
662.906	7676.13
663.097	7581.92
663.289	7424.23
663.481	7340.26
663.673	7385.32
663.864	7336.17
664.056	7309.54
664.247	7350.5
664.439	7203.05
664.631	7256.29
664.822	7311.59
665.014	7194.86
665.205	7246.05
665.397	7129.32
665.588	7024.87
665.78	7155.94
665.971	6908.14
666.163	7039.21
666.354	6932.72
666.546	6885.61
666.737	6705.39
666.929	6846.7
667.12	6750.45
667.311	6648.05
667.503	6762.73
667.694	6658.29
667.885	6779.12
668.077	6576.37
668.268	6635.76
668.459	6555.89
668.651	6410.48
668.842	6582.51
669.033	6377.72
669.224	6410.48
669.416	6457.59
669.607	6433.01
669.798	6297.85
669.989	6418.68
670.18	6387.96
670.371	6156.54
670.563	6050.04
670.754	6357.24
670.945	6181.11
671.136	6004.99
671.327	6158.58
671.518	6185.21
671.709	6082.81
671.9	6072.57
672.091	5998.84
672.282	5980.41
672.473	5832.96
672.664	5961.98
672.855	5998.84
673.046	5918.97
673.237	5916.92
673.428	5873.92
673.619	5716.22
673.809	5822.72
674	5824.76
674.191	5906.68
674.382	5773.57
674.573	5734.65
674.764	5740.8
674.954	5796.09
675.145	5605.63
675.336	5632.26
675.527	5589.25
675.717	5566.72
675.908	5384.45
676.099	5550.34
676.289	5366.02
676.48	5413.12
676.671	5396.74
676.861	5349.64
677.052	5419.27
677.243	5251.33
677.433	5441.79
677.624	5341.44
677.814	5302.53
678.005	5265.67
678.195	5183.75
678.386	5302.53
678.576	5304.58
678.767	5144.84
678.957	5355.78
679.148	5218.57
679.338	5308.68
679.529	5212.42
679.719	5241.09
679.909	5214.47
680.1	5052.68
680.29	5042.44
680.481	4956.43
680.671	4899.08
680.861	5011.72
681.052	4935.95
681.242	5030.15
681.432	5112.07
681.622	4782.35
681.813	4866.32
682.003	4899.08
682.193	4798.73
682.383	4940.04
682.573	4942.09
682.764	4829.45
682.954	4825.36
683.144	4942.09
683.334	4632.85
683.524	4866.32
683.714	4790.54
683.904	4733.2
684.094	4835.6
684.284	4827.4
684.474	4806.92
684.664	4788.49
684.854	4722.96
685.044	4702.48
685.234	4509.97
685.424	4628.75
685.614	4536.59
685.804	4561.17
685.994	4552.98
686.184	4593.94
686.374	4481.3
686.564	4395.28
686.753	4520.21
686.943	4362.51
687.133	4426
687.323	4368.66
687.513	4426
687.702	4329.75
687.892	4434.19
688.082	4327.7
688.272	4253.97
688.461	4272.4
688.651	4339.99
688.841	4100.37
689.03	4210.97
689.22	4258.07
689.41	4286.74
689.599	4215.06
689.789	4135.19
689.979	4106.52
690.168	4202.77
690.358	4040.98
690.547	4014.36
690.737	4247.83
690.926	4055.32
691.116	3985.69
691.305	4202.77
691.495	3819.8
691.684	3934.49
691.874	4006.17
692.063	4034.84
692.252	3815.71
692.442	3977.5
692.631	3873.05
692.82	3844.38
693.01	3717.4
693.199	3842.33
693.388	3901.72
693.578	3830.04
693.767	3723.55
693.956	3709.21
694.146	3768.6
694.335	3612.96
694.524	3852.57
694.713	3737.88
694.902	3621.15
695.092	3760.41
695.281	3666.21
695.47	3690.78
695.659	3680.54
695.848	3535.14
696.037	3592.48
696.226	3584.29
696.415	3672.35
696.604	3543.33
696.793	3408.16
696.982	3582.24
697.171	3596.57
697.36	3381.54
697.549	3488.03
697.738	3410.21
697.927	3383.59
698.116	3485.98
698.305	3447.07
698.494	3438.88
698.683	3451.17
698.872	3610.91
699.061	3330.34
699.25	3389.73
699.438	3389.73
699.627	3332.39
699.816	3346.72
700.005	3500.32
700.193	3320.1
700.382	3373.35
700.571	3334.43
700.76	3193.12
700.948	3311.91
701.137	3303.71
701.326	3268.9
701.514	3293.48
701.703	3336.48
701.892	3203.36
702.08	3150.12
702.269	3229.99
702.457	3240.23
702.646	3189.03
702.834	3160.36
703.023	3256.61
703.212	3283.24
703.4	3184.93
703.589	3219.75
703.777	3297.57
703.965	3152.17
704.154	3094.82
704.342	3166.5
704.531	3244.32
704.719	3113.25
704.907	3150.12
705.096	3160.36
705.284	3076.39
705.472	3137.83
705.661	3148.07
705.849	3119.4
706.037	3113.25
706.226	3277.09
706.414	3019.05
706.602	3080.49
706.79	3148.07
706.979	3060.01
707.167	3053.86
707.355	3150.12
707.543	3060.01
707.731	3174.69
707.919	3017
708.107	3103.01
708.296	3133.73
708.484	3004.71
708.672	2984.23
708.86	3004.71
709.048	2994.47
709.236	2814.25
709.424	3045.67
709.612	3072.29
709.8	3021.1
709.988	2943.27
710.176	3154.21
710.364	3000.62
710.551	2967.85
710.739	3055.91
710.927	3027.24
711.115	2885.93
711.303	2879.79
711.491	2881.83
711.679	2910.5
711.866	2957.61
712.054	2953.51
712.242	2963.75
712.43	3213.6
712.617	2967.85
712.805	2941.22
712.993	2986.28
713.181	2863.4
713.368	2959.66
713.556	3062.05
713.744	2824.49
713.931	2924.84
714.119	2861.35
714.306	2949.42
714.494	2910.5
714.682	2828.59
714.869	2904.36
715.057	2926.89
715.244	2941.22
715.432	2894.12
715.619	2865.45
715.807	2947.37
715.994	2926.89
716.182	2838.83
716.369	3031.34
716.556	2953.51
716.744	2793.77
716.931	2842.92
717.119	2890.03
717.306	2949.42
717.493	2924.84
717.681	2828.59
717.868	2730.28
718.055	2887.98
718.242	2924.84
718.43	2867.5
718.617	2824.49
718.804	2867.5
718.991	2863.4
719.179	2844.97
719.366	2904.36
719.553	2765.1
719.74	2849.07
719.927	2799.91
720.114	2926.89
720.301	2767.15
720.488	2773.29
720.676	2828.59
720.863	2785.58
721.05	2773.29
721.237	2924.84
721.424	2808.11
721.611	2820.39
721.798	2771.24
721.985	2732.33
722.172	2785.58
722.358	2834.73
722.545	2738.48
722.732	2763.05
722.919	2904.36
723.106	2865.45
723.293	2734.38
723.48	2730.28
723.667	2832.68
723.853	2752.81
724.04	2709.8
724.227	2697.52
724.414	2732.33
724.6	2695.47
724.787	2707.76
724.974	2783.53
725.161	2691.37
725.347	2750.76
725.534	2777.39
725.72	2742.57
725.907	2728.24
726.094	2838.83
726.28	2640.17
726.467	2683.18
726.653	2738.48
726.84	2683.18
727.027	2742.57
727.213	2771.24
727.4	2750.76
727.586	2638.13
727.773	2722.09
727.959	2625.84
728.145	2652.46
728.332	2828.59
728.518	2877.74
728.705	2765.1
728.891	2726.19
729.077	2640.17
729.264	2761
729.45	2683.18
729.636	2785.58
729.823	2683.18
730.009	2687.28
730.195	2771.24
730.382	2732.33
730.568	2701.61
730.754	2656.56
730.94	2863.4
731.126	2648.36
731.313	2691.37
731.499	2599.21
731.685	2697.52
731.871	2693.42
732.057	2638.13
732.243	2670.89
732.429	2662.7
732.615	2697.52
732.801	2736.43
732.987	2644.27
733.173	2601.26
733.359	2691.37
733.545	2519.34
733.731	2603.31
733.917	2623.79
734.103	2662.7
734.289	2615.6
734.475	2545.97
734.661	2509.1
734.847	2601.26
735.033	2568.49
735.219	2572.59
735.404	2609.45
735.59	2558.25
735.776	2619.69
735.962	2609.45
736.148	2566.45
736.333	2509.1
736.519	2627.89
736.705	2521.39
736.89	2525.49
737.076	2548.01
737.262	2402.61
737.447	2505.01
737.633	2574.64
737.819	2541.87
738.004	2525.49
738.19	2535.73
738.375	2462
738.561	2582.83
738.747	2494.77
738.932	2513.2
739.118	2445.62
739.303	2396.46
739.489	2472.24
739.674	2480.43
739.859	2568.49
740.045	2402.61
740.23	2441.52
740.416	2304.31
740.601	2490.67
740.786	2451.76
740.972	2427.18
741.157	2459.95
741.342	2388.27
741.528	2318.64
741.713	2380.08
741.898	2341.17
742.084	2326.83
742.269	2449.71
742.454	2421.04
742.639	2494.77
742.824	2330.93
743.01	2365.75
743.195	2378.03
743.38	2261.3
743.565	2455.86
743.75	2294.07
743.935	2246.96
744.12	2363.7
744.305	2224.44
744.49	2210.1
744.675	2330.93
744.86	2251.06
745.045	2126.13
745.23	2226.48
745.415	2218.29
745.6	2206
745.785	2058.55
745.97	2236.72
746.155	2294.07
746.34	2249.01
746.525	2085.17
746.71	2218.29
746.895	2177.33
747.079	2054.45
747.264	2140.47
747.449	2072.89
747.634	2040.12
747.819	2128.18
748.003	2001.21
748.188	1939.77
748.373	2009.4
748.557	2019.64
748.742	1988.92
748.927	2089.27
749.111	1904.95
749.296	1964.34
749.481	2150.71
749.665	1890.62
749.85	1853.75
750.034	2040.12
750.219	1931.58
750.404	1880.38
750.588	1780.03
750.773	1802.55
750.957	1767.74
751.141	1999.16
751.326	1923.38
751.51	1851.71
751.695	1833.27
751.879	1771.83
752.064	1843.51
752.248	1851.71
752.432	1804.6
752.617	1761.59
752.801	1724.73
752.985	1808.7
753.17	1739.07
753.354	1720.64
753.538	1720.64
753.722	1737.02
753.907	1728.83
754.091	1622.33
754.275	1687.87
754.459	1726.78
754.643	1651
754.828	1521.98
755.012	1657.15
755.196	1573.18
755.38	1550.65
755.564	1556.8
755.748	1513.79
755.932	1544.51
756.116	1571.13
756.3	1659.2
756.484	1505.6
756.668	1608
756.852	1464.64
757.036	1450.3
757.22	1481.02
757.404	1433.92
757.588	1433.92
757.772	1438.02
757.956	1444.16
758.14	1454.4
758.323	1427.78
758.507	1319.23
758.691	1327.43
758.875	1397.06
759.059	1366.34
759.242	1415.49
759.426	1395.01
759.61	1282.37
759.794	1315.14
759.977	1364.29
760.161	1403.2
760.345	1327.43
760.528	1302.85
760.712	1345.86
760.895	1192.26
761.079	1245.51
761.263	1288.51
761.446	1243.46
761.63	1386.82
761.813	1335.62
761.997	1284.42
762.18	1184.07
762.364	1288.51
762.547	1222.98
762.731	1239.36
762.914	1145.16
763.098	1177.92
763.281	1161.54
763.464	1202.5
763.648	1112.39
763.831	1102.15
764.015	1171.78
764.198	1206.59
764.381	1196.36
764.564	1227.07
764.748	1114.44
764.931	1159.49
765.114	1108.29
765.297	1134.92
765.481	1112.39
765.664	1079.62
765.847	1143.11
766.03	1136.96
766.213	1118.53
766.397	1216.83
766.58	1083.72
766.763	1139.01
766.946	1108.29
767.129	1016.13
767.312	1077.57
767.495	1038.66
767.678	1030.47
767.861	999.75
768.044	1134.92
768.227	1065.29
768.41	1085.76
768.593	1120.58
768.776	1114.44
768.959	1073.48
769.142	1032.52
769.324	1065.29
769.507	1014.09
769.69	1042.76
769.873	946.5
770.056	1042.76
770.239	1055.05
770.421	1069.38
770.604	995.65
770.787	971.08
770.97	1087.81
771.152	993.61
771.335	1030.47
771.518	932.17
771.7	971.08
771.883	1038.66
772.066	948.55
772.248	1016.13
772.431	897.35
772.613	952.65
772.796	844.1
772.978	987.46
773.161	911.69
773.343	903.5
773.526	907.59
773.708	862.54
773.891	880.97
774.073	913.74
774.256	868.68
774.438	964.93
774.621	887.11
774.803	917.83
774.985	790.86
775.168	850.25
775.35	858.44
775.532	799.05
775.715	864.58
775.897	797
776.079	739.66
776.261	827.72
776.444	753.99
776.626	801.1
776.808	837.96
776.99	735.56
777.173	862.54
777.355	840.01
777.537	743.75
777.719	766.28
777.901	700.75
778.083	817.48
778.265	842.06
778.447	684.36
778.629	764.23
778.811	737.61
778.993	745.8
779.175	682.31
779.357	682.31
779.539	698.7
779.721	715.08
779.903	735.56
780.085	704.84
780.267	719.18
780.449	762.19
780.631	684.36
780.812	715.08
780.994	657.74
781.176	678.22
781.358	631.12
781.54	692.55
781.721	698.7
781.903	725.32
782.085	690.51
782.267	586.06
782.448	629.07
782.63	551.24
782.812	596.3
782.993	643.4
783.175	612.68
783.357	590.16
783.538	606.54
783.72	571.72
783.901	553.29
784.083	563.53
784.264	571.72
784.446	596.3
784.627	592.2
784.809	473.42
784.99	502.09
785.172	524.62
785.353	524.62
785.535	512.33
785.716	495.95
785.897	579.92
786.079	518.48
786.26	612.68
786.441	475.47
786.623	532.81
786.804	469.33
786.985	454.99
787.167	545.1
787.348	512.33
787.529	422.22
787.71	512.33
787.891	424.27
788.073	483.66
788.254	426.32
788.435	491.85
788.616	489.81
788.797	438.61
788.978	450.89
789.159	473.42
789.34	446.8
789.522	483.66
789.703	508.24
789.884	393.55
790.065	463.18
790.246	475.47
790.427	452.94
790.607	493.9
790.788	422.22
790.969	428.37
791.15	323.92
791.331	401.74
791.512	383.31
791.693	338.26
791.874	403.79
792.054	440.65
792.235	387.41
792.416	454.99
792.597	401.74
792.778	377.17
792.958	373.07
793.139	436.56
793.32	397.65
793.5	344.4
793.681	409.94
793.862	409.94
794.042	397.65
794.223	278.87
794.404	379.22
794.584	334.16
794.765	280.91
794.945	287.06
795.126	280.91
795.306	342.35
795.487	346.45
795.667	274.77
795.848	309.58
796.028	299.34
796.209	309.58
796.389	295.25
796.57	328.02
796.75	330.06
796.93	338.26
797.111	301.39
797.291	389.46
797.471	364.88
797.652	297.3
797.832	323.92
798.012	305.49
798.192	227.67
798.373	340.3
798.553	358.74
798.733	291.15
798.913	325.97
799.093	246.1
799.274	403.79
799.454	342.35
799.634	262.48
799.814	338.26
799.994	229.71
800.174	278.87
800.354	285.01
800.534	231.76
800.714	285.01
800.894	280.91
801.074	233.81
801.254	242
801.434	246.1
801.614	321.87
801.794	162.13
801.974	667.98
802.154	254.29
802.334	289.1
802.514	272.72
802.693	289.1
802.873	158.03
803.053	250.19
803.233	233.81
803.413	162.13
803.592	194.9
803.772	295.25
803.952	332.11
804.131	237.91
804.311	239.95
804.491	235.86
804.67	264.53
804.85	231.76
805.03	325.97
805.209	242
805.389	244.05
805.568	295.25
805.748	264.53
805.928	221.52
806.107	198.99
806.287	211.28
806.466	313.68
806.646	155.99
806.825	252.24
807.004	190.8
807.184	215.38
807.363	225.62
807.543	184.66
807.722	219.47
807.901	227.67
808.081	174.42
808.26	151.89
808.439	272.72
808.619	227.67
808.798	196.95
808.977	170.32
809.156	190.8
809.336	233.81
809.515	198.99
809.694	225.62
809.873	219.47
810.052	207.19
810.231	198.99
810.411	149.84
810.59	207.19
810.769	235.86
810.948	248.15
811.127	170.32
811.306	311.63
811.485	174.42
811.664	231.76
811.843	248.15
812.022	196.95
812.201	119.12
812.38	133.46
812.559	133.46
812.737	198.99
812.916	192.85
813.095	174.42
813.274	164.18
813.453	233.81
813.632	110.93
813.811	184.66
813.989	178.51
814.168	198.99
814.347	153.94
814.526	239.95
814.704	186.71
814.883	213.33
815.062	90.45
815.24	194.9
815.419	182.61
815.598	176.47
815.776	135.51
815.955	137.56
816.133	209.23
816.312	164.18
816.49	151.89
816.669	252.24
816.847	172.37
817.026	112.98
817.204	160.08
817.383	119.12
817.561	127.32
817.74	145.75
817.918	178.51
818.097	166.23
818.275	151.89
818.453	164.18
818.632	129.36
818.81	127.32
818.988	86.36
819.167	215.38
819.345	135.51
819.523	80.21
819.701	127.32
819.879	174.42
820.058	186.71
820.236	131.41
820.414	102.74
820.592	160.08
820.77	147.8
820.948	172.37
821.127	168.27
821.305	194.9
821.483	180.56
821.661	155.99
821.839	129.36
822.017	119.12
822.195	135.51
822.373	160.08
822.551	112.98
822.729	119.12
822.907	115.03
823.085	158.03
823.262	123.22
823.44	190.8
823.618	145.75
823.796	180.56
823.974	115.03
824.152	137.56
824.329	129.36
824.507	143.7
824.685	151.89
824.863	123.22
825.04	115.03
825.218	141.65
825.396	135.51
825.574	182.61
825.751	102.74
825.929	137.56
826.107	104.79
826.284	76.12
826.462	26.96
826.639	119.12
826.817	137.56
826.994	137.56
827.172	43.35
827.349	164.18
827.527	141.65
827.704	125.27
827.882	147.8
828.059	133.46
828.237	102.74
828.414	131.41
828.591	92.5
828.769	141.65
828.946	117.08
829.124	184.66
829.301	135.51
829.478	147.8
829.655	110.93
829.833	84.31
830.01	149.84
830.187	139.6
830.364	69.97
830.542	22.87
830.719	100.69
830.896	166.23
831.073	84.31
831.25	117.08
831.427	143.7
831.604	133.46
831.782	72.02
831.959	94.55
832.136	149.84
832.313	53.59
832.49	88.4
832.667	141.65
832.844	14.68
833.021	39.25
833.198	108.88
833.374	129.36
833.551	61.78
833.728	51.54
833.905	121.17
834.082	49.49
834.259	76.12
834.436	104.79
834.612	53.59
834.789	47.44
834.966	125.27
835.143	125.27
835.319	49.49
835.496	82.26
835.673	141.65
835.85	96.6
836.026	139.6
836.203	84.31
836.38	24.92
836.556	86.36
836.733	80.21
836.909	98.64
837.086	51.54
837.262	20.82
837.439	63.83
837.616	82.26
837.792	102.74
837.968	106.84
838.145	67.92
838.321	65.88
838.498	63.83
838.674	72.02
838.851	29.01
839.027	16.73
839.203	10.58
839.38	37.2
839.556	33.11
839.732	88.4
839.909	162.13
840.085	63.83
840.261	86.36
840.437	133.46
840.614	82.26
840.79	110.93
840.966	72.02
841.142	39.25
841.318	63.83
841.494	106.84
841.671	90.45
841.847	-7.85
842.023	43.35
842.199	82.26
842.375	102.74
842.551	-1.71
842.727	106.84
842.903	65.88
843.079	43.35
843.255	102.74
843.431	74.07
843.607	69.97
843.783	-18.09
843.959	67.92
844.134	119.12
844.31	74.07
844.486	12.63
844.662	59.73
844.838	131.41
845.013	78.16
845.189	16.73
845.365	59.73
845.541	29.01
845.716	92.5
845.892	-28.33
846.068	137.56
846.244	49.49
846.419	149.84
846.595	76.12
846.77	151.89
846.946	98.64
847.122	86.36
847.297	47.44
847.473	67.92
847.648	102.74
847.824	98.64
847.999	20.82
848.175	80.21
848.35	47.44
848.526	106.84
848.701	67.92
848.876	108.88
849.052	106.84
849.227	-20.14
849.403	57.68
849.578	33.11
849.753	88.4
849.929	80.21
850.104	16.73
850.279	39.25
850.454	10.58
850.63	74.07
850.805	-1.71
850.98	45.4
851.155	2.39
851.33	-1.71
851.505	29.01
851.681	119.12
851.856	20.82
852.031	65.88
852.206	84.31
852.381	26.96
852.556	53.59
852.731	86.36
852.906	76.12
853.081	131.41
853.256	2.39
853.431	45.4
853.606	72.02
853.781	31.06
853.956	2.39
854.131	131.41
854.305	78.16
854.48	45.4
854.655	39.25
854.83	74.07
855.005	-9.9
855.18	18.77
855.354	29.01
855.529	-3.75
855.704	69.97
855.879	26.96
856.053	80.21
856.228	16.73
856.403	57.68
856.577	69.97
856.752	37.2
856.926	-30.38
857.101	74.07
857.276	86.36
857.45	22.87
857.625	78.16
857.799	14.68
857.974	78.16
858.148	31.06
858.323	100.69
858.497	33.11
858.672	67.92
858.846	72.02
859.02	72.02
859.195	-7.85
859.369	-1.71
859.543	57.68
859.718	51.54
859.892	0.34
860.066	0.34
860.241	37.2
860.415	-18.09
860.589	47.44
860.763	-18.09
860.938	18.77
861.112	82.26
861.286	10.58
861.46	26.96
861.634	24.92
861.808	10.58
861.982	53.59
862.157	24.92
862.331	43.35
862.505	-13.99
862.679	-52.91
862.853	74.07
863.027	-24.23
863.201	35.16
863.375	20.82
863.549	76.12
863.722	-1.71
863.896	41.3
864.07	31.06
864.244	39.25
864.418	49.49
864.592	37.2
864.766	-11.95
864.939	65.88
865.113	63.83
865.287	33.11
865.461	67.92
865.634	4.44
865.808	49.49
865.982	-11.95
866.156	0.34
866.329	37.2
866.503	35.16
866.676	98.64
866.85	22.87
867.024	59.73
867.197	59.73
867.371	84.31
867.544	31.06
867.718	49.49
867.891	47.44
868.065	-34.47
868.238	-22.19
868.412	41.3
868.585	33.11
868.759	57.68
868.932	-1.71
869.105	10.58
869.279	55.64
869.452	-5.8
869.625	41.3
869.799	12.63
869.972	4.44
870.145	41.3
870.319	104.79
870.492	22.87
870.665	20.82
870.838	24.92
871.011	33.11
871.185	16.73
871.358	20.82
871.531	4.44
871.704	0.34
871.877	125.27
872.05	41.3
872.223	39.25
872.396	57.68
872.569	72.02
872.742	12.63
872.915	78.16
873.088	-20.14
873.261	37.2
873.434	45.4
873.607	69.97
873.78	-24.23
873.953	24.92
874.126	-16.04
874.299	53.59
874.471	12.63
874.644	67.92
874.817	-52.91
874.99	78.16
875.163	-54.95
875.335	16.73
875.508	-26.28
875.681	45.4
875.853	-22.19
876.026	29.01
876.199	29.01
876.371	72.02
876.544	-28.33
876.717	39.25
876.889	88.4
877.062	4.44
877.234	-7.85
877.407	69.97
877.579	31.06
877.752	53.59
877.924	37.2
878.097	115.03
878.269	-1.71
878.442	43.35
878.614	96.6
878.786	100.69
878.959	49.49
879.131	-22.19
879.303	-11.95
879.476	-5.8
879.648	6.49
879.82	29.01
879.993	-5.8
880.165	14.68
880.337	74.07
880.509	33.11
880.681	35.16
880.854	45.4
881.026	22.87
881.198	176.47
881.37	4.44
881.542	45.4
881.714	-40.62
881.886	10.58
882.058	-44.71
882.23	14.68
882.402	69.97
882.574	-1.71
882.746	20.82
882.918	106.84
883.09	102.74
883.262	-13.99
883.434	55.64
883.606	-67.24
883.778	-24.23
883.95	100.69
884.122	-50.86
884.293	0.34
884.465	112.98
884.637	-3.75
884.809	-11.95
884.98	59.73
885.152	14.68
885.324	31.06
885.496	-20.14
885.667	-36.52
885.839	65.88
886.011	35.16
886.182	94.55
886.354	2.39
886.525	-38.57
886.697	-9.9
886.869	-26.28
887.04	33.11
887.212	72.02
887.383	82.26
887.555	-7.85
887.726	43.35
887.897	45.4
888.069	29.01
888.24	51.54
888.412	84.31
888.583	39.25
888.754	4.44
888.926	-36.52
889.097	41.3
889.268	49.49
889.44	104.79
889.611	6.49
889.782	6.49
889.953	-7.85
890.125	12.63
890.296	-42.67
890.467	51.54
890.638	43.35
890.809	37.2
890.98	108.88
891.151	-11.95
891.323	16.73
891.494	67.92
891.665	22.87
891.836	45.4
892.007	-22.19
892.178	37.2
892.349	-11.95
892.52	41.3
892.691	33.11
892.862	20.82
893.032	-46.76
893.203	-3.75
893.374	65.88
893.545	31.06
893.716	31.06
893.887	33.11
894.057	20.82
894.228	67.92
894.399	0.34
894.57	-38.57
894.74	-18.09
894.911	-50.86
895.082	-5.8
895.253	2.39
895.423	78.16
895.594	59.73
895.764	53.59
895.935	4.44
896.106	10.58
896.276	6.49
896.447	69.97
896.617	-7.85
896.788	-32.43
896.958	29.01
897.129	53.59
897.299	2.39
897.47	26.96
897.64	76.12
897.81	37.2
897.981	6.49
898.151	-5.8
898.322	61.78
898.492	61.78
898.662	65.88
898.832	-13.99
899.003	22.87
899.173	37.2
899.343	37.2
899.513	12.63
