Data from USB4F104151__63__12-27-41-312.txt Node

Date: Fri Mar 14 12:27:41 EDT 2025
User: louis
Spectrometer: USB4F10415
Trigger mode: 4
Integration Time (sec): 2.000000E-2
Scans to average: 1
Electric dark correction enabled: true
Nonlinearity correction enabled: false
Boxcar width: 0
XAxis mode: Wavelengths
Number of Pixels in Spectrum: 3648
>>>>>Begin Spectral Data<<<<<
178.204	-82.77
178.424	-82.77
178.644	-82.77
178.864	-60.24
179.084	-60.24
179.304	-7
179.524	15.53
179.744	13.48
179.964	-7
180.184	-9.05
180.404	52.39
180.624	48.3
180.844	-39.76
181.064	-19.29
181.283	25.77
181.503	-103.25
181.723	29.87
181.943	-17.24
182.163	7.34
182.383	-13.14
182.602	-0.85
182.822	5.29
183.042	42.15
183.262	3.24
183.482	21.67
183.701	-54.1
183.921	87.21
184.141	-60.24
184.361	89.26
184.58	-23.38
184.8	-0.85
185.02	27.82
185.239	113.83
185.459	-25.43
185.679	5.29
185.898	-37.72
186.118	21.67
186.338	23.72
186.557	11.43
186.777	13.48
186.997	5.29
187.216	42.15
187.436	1.19
187.655	54.44
187.875	-37.72
188.095	-4.95
188.314	64.68
188.534	42.15
188.753	-62.29
188.973	-7
189.192	5.29
189.412	27.82
189.631	40.11
189.851	-21.33
190.07	130.22
190.29	50.35
190.509	48.3
190.729	7.34
190.948	36.01
191.168	70.83
191.387	40.11
191.607	-39.76
191.826	-33.62
192.045	-7
192.265	56.49
192.484	60.59
192.704	-11.09
192.923	-23.38
193.142	48.3
193.362	13.48
193.581	17.58
193.8	50.35
194.02	46.25
194.239	-15.19
194.458	56.49
194.678	40.11
194.897	93.35
195.116	31.91
195.335	9.39
195.555	36.01
195.774	-9.05
195.993	46.25
196.212	19.63
196.432	-23.38
196.651	-25.43
196.87	-0.85
197.089	40.11
197.308	5.29
197.528	-9.05
197.747	-70.48
197.966	85.16
198.185	17.58
198.404	-9.05
198.623	-0.85
198.842	128.17
199.062	29.87
199.281	87.21
199.5	29.87
199.719	-64.34
199.938	46.25
200.157	87.21
200.376	58.54
200.595	7.34
200.814	1.19
201.033	23.72
201.252	11.43
201.471	38.06
201.69	23.72
201.909	-7
202.128	-27.48
202.347	3.24
202.566	-23.38
202.785	79.02
203.004	91.31
203.223	66.73
203.442	-15.19
203.661	29.87
203.879	-27.48
204.098	29.87
204.317	68.78
204.536	109.74
204.755	-7
204.974	81.07
205.193	79.02
205.411	81.07
205.63	44.2
205.849	31.91
206.068	-41.81
206.287	-0.85
206.505	5.29
206.724	79.02
206.943	7.34
207.162	52.39
207.381	25.77
207.599	-29.52
207.818	58.54
208.037	81.07
208.255	25.77
208.474	-39.76
208.693	109.74
208.911	19.63
209.13	46.25
209.349	72.87
209.567	-9.05
209.786	-27.48
210.005	29.87
210.223	58.54
210.442	-15.19
210.661	48.3
210.879	-47.96
211.098	60.59
211.316	31.91
211.535	9.39
211.753	72.87
211.972	62.63
212.191	-7
212.409	11.43
212.628	50.35
212.846	21.67
213.065	-27.48
213.283	50.35
213.502	-13.14
213.72	11.43
213.938	48.3
214.157	27.82
214.375	15.53
214.594	33.96
214.812	70.83
215.031	-105.3
215.249	68.78
215.467	15.53
215.686	36.01
215.904	33.96
216.122	44.2
216.341	40.11
216.559	1.19
216.778	60.59
216.996	-54.1
217.214	64.68
217.432	60.59
217.651	-19.29
217.869	29.87
218.087	31.91
218.306	11.43
218.524	23.72
218.742	-13.14
218.96	99.5
219.179	15.53
219.397	-35.67
219.615	62.63
219.833	11.43
220.051	36.01
220.27	23.72
220.488	15.53
220.706	-11.09
220.924	21.67
221.142	36.01
221.36	-21.33
221.578	11.43
221.796	7.34
222.015	27.82
222.233	-33.62
222.451	95.4
222.669	7.34
222.887	11.43
223.105	-7
223.323	54.44
223.541	91.31
223.759	5.29
223.977	5.29
224.195	1.19
224.413	74.92
224.631	29.87
224.849	-54.1
225.067	70.83
225.285	60.59
225.503	27.82
225.721	74.92
225.939	23.72
226.157	-2.9
226.375	64.68
226.592	60.59
226.81	15.53
227.028	-9.05
227.246	87.21
227.464	52.39
227.682	40.11
227.9	11.43
228.117	-21.33
228.335	48.3
228.553	-27.48
228.771	89.26
228.989	-0.85
229.206	48.3
229.424	9.39
229.642	87.21
229.86	7.34
230.077	11.43
230.295	-21.33
230.513	19.63
230.731	87.21
230.948	-4.95
231.166	72.87
231.384	-15.19
231.601	48.3
231.819	-0.85
232.037	31.91
232.254	-11.09
232.472	79.02
232.689	23.72
232.907	72.87
233.125	-7
233.342	68.78
233.56	-7
233.777	-4.95
233.995	-13.14
234.213	29.87
234.43	33.96
234.648	23.72
234.865	11.43
235.083	7.34
235.3	15.53
235.518	33.96
235.735	31.91
235.953	31.91
236.17	7.34
236.388	5.29
236.605	-19.29
236.822	58.54
237.04	36.01
237.257	-25.43
237.475	46.25
237.692	38.06
237.909	-2.9
238.127	60.59
238.344	29.87
238.562	56.49
238.779	25.77
238.996	-74.58
239.214	58.54
239.431	56.49
239.648	-23.38
239.865	31.91
240.083	58.54
240.3	3.24
240.517	36.01
240.735	-19.29
240.952	107.69
241.169	44.2
241.386	54.44
241.603	38.06
241.821	93.35
242.038	15.53
242.255	-13.14
242.472	5.29
242.689	68.78
242.907	46.25
243.124	-7
243.341	42.15
243.558	-52.05
243.775	17.58
243.992	-80.72
244.209	-19.29
244.426	83.11
244.643	66.73
244.86	-35.67
245.078	50.35
245.295	27.82
245.512	31.91
245.729	-37.72
245.946	31.91
246.163	-0.85
246.38	-39.76
246.597	-33.62
246.814	17.58
247.031	-13.14
247.248	-17.24
247.464	60.59
247.681	-35.67
247.898	27.82
248.115	23.72
248.332	33.96
248.549	21.67
248.766	76.97
248.983	79.02
249.2	42.15
249.417	56.49
249.633	31.91
249.85	76.97
250.067	44.2
250.284	58.54
250.501	7.34
250.717	68.78
250.934	-7
251.151	62.63
251.368	113.83
251.585	40.11
251.801	-17.24
252.018	-0.85
252.235	33.96
252.451	40.11
252.668	-37.72
252.885	-13.14
253.102	70.83
253.318	13.48
253.535	23.72
253.752	70.83
253.968	3.24
254.185	-13.14
254.401	-17.24
254.618	-33.62
254.835	36.01
255.051	-7
255.268	-13.14
255.484	38.06
255.701	48.3
255.917	66.73
256.134	1.19
256.351	19.63
256.567	33.96
256.784	42.15
257	27.82
257.217	-13.14
257.433	31.91
257.65	72.87
257.866	50.35
258.082	-84.82
258.299	-23.38
258.515	21.67
258.732	79.02
258.948	72.87
259.165	3.24
259.381	-17.24
259.597	17.58
259.814	60.59
260.03	29.87
260.246	31.91
260.463	79.02
260.679	9.39
260.895	7.34
261.112	36.01
261.328	52.39
261.544	36.01
261.761	105.64
261.977	9.39
262.193	15.53
262.409	74.92
262.626	9.39
262.842	40.11
263.058	50.35
263.274	1.19
263.49	58.54
263.707	21.67
263.923	7.34
264.139	19.63
264.355	31.91
264.571	93.35
264.787	36.01
265.004	44.2
265.22	23.72
265.436	-37.72
265.652	31.91
265.868	83.11
266.084	-19.29
266.3	29.87
266.516	-2.9
266.732	58.54
266.948	79.02
267.164	-25.43
267.38	36.01
267.596	27.82
267.812	33.96
268.028	-0.85
268.244	-23.38
268.46	19.63
268.676	-15.19
268.892	130.22
269.108	-31.57
269.324	36.01
269.54	46.25
269.756	1.19
269.972	-13.14
270.188	23.72
270.403	50.35
270.619	25.77
270.835	19.63
271.051	19.63
271.267	9.39
271.483	19.63
271.698	85.16
271.914	36.01
272.13	3.24
272.346	-9.05
272.562	48.3
272.777	89.26
272.993	23.72
273.209	11.43
273.425	13.48
273.64	36.01
273.856	23.72
274.072	62.63
274.287	48.3
274.503	38.06
274.719	33.96
274.934	31.91
275.15	-62.29
275.366	40.11
275.581	-74.58
275.797	7.34
276.012	25.77
276.228	19.63
276.444	87.21
276.659	1.19
276.875	76.97
277.09	60.59
277.306	9.39
277.521	58.54
277.737	9.39
277.952	87.21
278.168	46.25
278.383	7.34
278.599	25.77
278.814	54.44
279.03	13.48
279.245	15.53
279.461	74.92
279.676	48.3
279.892	-11.09
280.107	-0.85
280.322	13.48
280.538	-19.29
280.753	5.29
280.969	64.68
281.184	-66.39
281.399	27.82
281.615	27.82
281.83	74.92
282.045	31.91
282.26	25.77
282.476	-37.72
282.691	124.07
282.906	-27.48
283.122	21.67
283.337	-19.29
283.552	29.87
283.767	21.67
283.983	42.15
284.198	17.58
284.413	76.97
284.628	76.97
284.843	70.83
285.058	-64.34
285.274	-27.48
285.489	52.39
285.704	29.87
285.919	74.92
286.134	89.26
286.349	68.78
286.564	7.34
286.779	42.15
286.995	27.82
287.21	-11.09
287.425	42.15
287.64	36.01
287.855	3.24
288.07	44.2
288.285	52.39
288.5	13.48
288.715	-33.62
288.93	23.72
289.145	50.35
289.36	64.68
289.575	44.2
289.79	91.31
290.004	21.67
290.219	-21.33
290.434	-15.19
290.649	-11.09
290.864	13.48
291.079	11.43
291.294	-58.2
291.509	89.26
291.724	3.24
291.938	-39.76
292.153	72.87
292.368	33.96
292.583	56.49
292.798	-25.43
293.012	72.87
293.227	81.07
293.442	33.96
293.657	58.54
293.871	31.91
294.086	-47.96
294.301	48.3
294.516	-15.19
294.73	1.19
294.945	-47.96
295.16	56.49
295.374	56.49
295.589	40.11
295.804	9.39
296.018	56.49
296.233	1.19
296.447	40.11
296.662	3.24
296.877	17.58
297.091	113.83
297.306	29.87
297.52	27.82
297.735	-17.24
297.949	-62.29
298.164	-9.05
298.378	44.2
298.593	-35.67
298.807	-21.33
299.022	70.83
299.236	64.68
299.451	42.15
299.665	44.2
299.88	7.34
300.094	-13.14
300.309	46.25
300.523	46.25
300.737	76.97
300.952	109.74
301.166	23.72
301.381	48.3
301.595	91.31
301.809	-29.52
302.024	101.55
302.238	72.87
302.452	9.39
302.667	-7
302.881	72.87
303.095	25.77
303.309	-9.05
303.524	7.34
303.738	11.43
303.952	48.3
304.166	111.78
304.381	-41.81
304.595	64.68
304.809	-19.29
305.023	119.98
305.237	27.82
305.452	1.19
305.666	36.01
305.88	91.31
306.094	13.48
306.308	38.06
306.522	31.91
306.736	87.21
306.95	13.48
307.164	-33.62
307.379	-17.24
307.593	31.91
307.807	15.53
308.021	97.45
308.235	70.83
308.449	-33.62
308.663	-54.1
308.877	81.07
309.091	29.87
309.305	38.06
309.519	-47.96
309.733	97.45
309.947	-4.95
310.161	52.39
310.374	81.07
310.588	70.83
310.802	-37.72
311.016	42.15
311.23	74.92
311.444	11.43
311.658	-0.85
311.872	48.3
312.085	95.4
312.299	5.29
312.513	76.97
312.727	-9.05
312.941	1.19
313.154	29.87
313.368	46.25
313.582	-17.24
313.796	44.2
314.009	-11.09
314.223	91.31
314.437	119.98
314.651	11.43
314.864	3.24
315.078	52.39
315.292	-17.24
315.505	-11.09
315.719	48.3
315.933	58.54
316.146	-25.43
316.36	21.67
316.573	-2.9
316.787	50.35
317.001	64.68
317.214	31.91
317.428	-33.62
317.641	19.63
317.855	58.54
318.068	-37.72
318.282	29.87
318.495	130.22
318.709	33.96
318.922	-11.09
319.136	-50
319.349	19.63
319.563	19.63
319.776	11.43
319.99	3.24
320.203	-21.33
320.417	-52.05
320.63	-11.09
320.843	46.25
321.057	111.78
321.27	25.77
321.483	42.15
321.697	33.96
321.91	9.39
322.124	33.96
322.337	11.43
322.55	27.82
322.763	-39.76
322.977	-4.95
323.19	17.58
323.403	42.15
323.617	38.06
323.83	66.73
324.043	33.96
324.256	40.11
324.469	-78.68
324.683	81.07
324.896	-23.38
325.109	54.44
325.322	-31.57
325.535	52.39
325.748	36.01
325.962	40.11
326.175	115.88
326.388	-0.85
326.601	-9.05
326.814	33.96
327.027	50.35
327.24	107.69
327.453	13.48
327.666	-2.9
327.879	3.24
328.092	56.49
328.305	5.29
328.518	1.19
328.731	-29.52
328.944	58.54
329.157	27.82
329.37	97.45
329.583	-2.9
329.796	23.72
330.009	-47.96
330.222	27.82
330.435	3.24
330.648	48.3
330.861	31.91
331.073	62.63
331.286	91.31
331.499	66.73
331.712	5.29
331.925	25.77
332.138	40.11
332.35	42.15
332.563	5.29
332.776	87.21
332.989	21.67
333.202	33.96
333.414	27.82
333.627	23.72
333.84	-0.85
334.053	122.02
334.265	5.29
334.478	-35.67
334.691	89.26
334.903	40.11
335.116	-27.48
335.329	23.72
335.541	29.87
335.754	79.02
335.966	62.63
336.179	-7
336.392	-19.29
336.604	-7
336.817	15.53
337.029	107.69
337.242	99.5
337.454	31.91
337.667	33.96
337.88	52.39
338.092	21.67
338.305	58.54
338.517	13.48
338.729	44.2
338.942	-13.14
339.154	-0.85
339.367	79.02
339.579	23.72
339.792	68.78
340.004	19.63
340.217	-19.29
340.429	-37.72
340.641	7.34
340.854	52.39
341.066	-56.15
341.278	-21.33
341.491	50.35
341.703	25.77
341.915	-43.86
342.128	44.2
342.34	58.54
342.552	5.29
342.764	19.63
342.977	48.3
343.189	42.15
343.401	-0.85
343.613	-13.14
343.826	50.35
344.038	40.11
344.25	11.43
344.462	-31.57
344.674	64.68
344.886	27.82
345.099	23.72
345.311	5.29
345.523	83.11
345.735	27.82
345.947	36.01
346.159	19.63
346.371	7.34
346.583	-2.9
346.795	25.77
347.007	42.15
347.219	79.02
347.431	3.24
347.643	27.82
347.855	105.64
348.067	62.63
348.279	54.44
348.491	101.55
348.703	-13.14
348.915	54.44
349.127	1.19
349.339	-0.85
349.551	79.02
349.763	87.21
349.975	31.91
350.187	56.49
350.399	64.68
350.61	76.97
350.822	23.72
351.034	70.83
351.246	-9.05
351.458	83.11
351.669	15.53
351.881	74.92
352.093	33.96
352.305	81.07
352.517	126.12
352.728	21.67
352.94	3.24
353.152	50.35
353.363	33.96
353.575	5.29
353.787	3.24
353.999	36.01
354.21	46.25
354.422	72.87
354.633	-21.33
354.845	76.97
355.057	21.67
355.268	105.64
355.48	-50
355.692	25.77
355.903	31.91
356.115	130.22
356.326	101.55
356.538	113.83
356.749	44.2
356.961	76.97
357.172	29.87
357.384	44.2
357.595	40.11
357.807	48.3
358.018	-41.81
358.23	36.01
358.441	54.44
358.653	21.67
358.864	-15.19
359.075	13.48
359.287	93.35
359.498	19.63
359.709	19.63
359.921	60.59
360.132	60.59
360.344	52.39
360.555	40.11
360.766	46.25
360.977	5.29
361.189	40.11
361.4	9.39
361.611	74.92
361.823	68.78
362.034	33.96
362.245	-25.43
362.456	38.06
362.667	44.2
362.879	23.72
363.09	-25.43
363.301	83.11
363.512	62.63
363.723	31.91
363.935	44.2
364.146	87.21
364.357	54.44
364.568	91.31
364.779	72.87
364.99	70.83
365.201	70.83
365.412	70.83
365.623	11.43
365.834	76.97
366.045	-0.85
366.256	33.96
366.467	38.06
366.678	7.34
366.889	15.53
367.1	87.21
367.311	23.72
367.522	31.91
367.733	130.22
367.944	56.49
368.155	62.63
368.366	5.29
368.577	68.78
368.788	89.26
368.999	-43.86
369.209	-31.57
369.42	111.78
369.631	103.59
369.842	1.19
370.053	66.73
370.264	54.44
370.474	124.07
370.685	89.26
370.896	42.15
371.107	42.15
371.317	42.15
371.528	52.39
371.739	46.25
371.95	-7
372.16	85.16
372.371	-2.9
372.582	66.73
372.792	3.24
373.003	17.58
373.214	-27.48
373.424	113.83
373.635	50.35
373.846	81.07
374.056	-0.85
374.267	1.19
374.477	-33.62
374.688	101.55
374.898	5.29
375.109	76.97
375.319	76.97
375.53	68.78
375.74	21.67
375.951	-76.63
376.161	60.59
376.372	72.87
376.582	31.91
376.793	50.35
377.003	9.39
377.214	87.21
377.424	31.91
377.635	126.12
377.845	13.48
378.055	158.89
378.266	25.77
378.476	-7
378.686	31.91
378.897	-0.85
379.107	40.11
379.317	70.83
379.528	68.78
379.738	42.15
379.948	52.39
380.158	60.59
380.369	54.44
380.579	122.02
380.789	130.22
380.999	52.39
381.21	50.35
381.42	72.87
381.63	29.87
381.84	66.73
382.05	-9.05
382.261	56.49
382.471	42.15
382.681	36.01
382.891	122.02
383.101	54.44
383.311	-50
383.521	101.55
383.731	136.36
383.941	91.31
384.151	70.83
384.361	83.11
384.571	36.01
384.781	58.54
384.991	58.54
385.201	3.24
385.411	42.15
385.621	89.26
385.831	87.21
386.041	74.92
386.251	21.67
386.461	52.39
386.671	33.96
386.881	126.12
387.091	91.31
387.301	97.45
387.511	15.53
387.72	23.72
387.93	93.35
388.14	19.63
388.35	46.25
388.56	81.07
388.769	40.11
388.979	40.11
389.189	17.58
389.399	83.11
389.609	15.53
389.818	25.77
390.028	48.3
390.238	76.97
390.447	68.78
390.657	70.83
390.867	38.06
391.076	124.07
391.286	124.07
391.496	36.01
391.705	76.97
391.915	126.12
392.125	58.54
392.334	44.2
392.544	44.2
392.753	76.97
392.963	23.72
393.172	36.01
393.382	81.07
393.591	105.64
393.801	66.73
394.01	89.26
394.22	134.31
394.429	25.77
394.639	60.59
394.848	19.63
395.058	101.55
395.267	111.78
395.477	54.44
395.686	50.35
395.895	107.69
396.105	124.07
396.314	140.46
396.524	50.35
396.733	81.07
396.942	70.83
397.152	-0.85
397.361	113.83
397.57	54.44
397.78	128.17
397.989	31.91
398.198	64.68
398.407	95.4
398.617	91.31
398.826	107.69
399.035	134.31
399.244	50.35
399.453	134.31
399.663	130.22
399.872	81.07
400.081	111.78
400.29	144.55
400.499	111.78
400.708	54.44
400.917	76.97
401.127	60.59
401.336	44.2
401.545	62.63
401.754	79.02
401.963	179.37
402.172	91.31
402.381	107.69
402.59	165.03
402.799	44.2
403.008	89.26
403.217	142.5
403.426	72.87
403.635	76.97
403.844	124.07
404.053	81.07
404.262	93.35
404.471	162.98
404.68	50.35
404.888	154.79
405.097	25.77
405.306	126.12
405.515	115.88
405.724	99.5
405.933	66.73
406.142	119.98
406.35	165.03
406.559	83.11
406.768	136.36
406.977	142.5
407.185	162.98
407.394	132.26
407.603	181.42
407.812	226.47
408.02	132.26
408.229	169.13
408.438	228.52
408.646	201.9
408.855	269.48
409.064	132.26
409.272	226.47
409.481	230.57
409.69	179.37
409.898	195.75
410.107	203.94
410.315	222.38
410.524	244.9
410.733	244.9
410.941	320.68
411.15	312.49
411.358	255.14
411.567	302.25
411.775	335.01
411.984	310.44
412.192	394.4
412.401	306.34
412.609	373.92
412.818	367.78
413.026	371.88
413.234	343.21
413.443	394.4
413.651	439.46
413.86	404.64
414.068	443.56
414.276	412.84
414.485	498.85
414.693	496.8
414.901	464.04
415.11	556.19
415.318	529.57
415.526	572.58
415.734	543.91
415.943	584.87
416.151	674.98
416.359	588.96
416.567	703.65
416.776	709.79
416.984	670.88
417.192	724.13
417.4	781.47
417.608	664.74
417.817	756.9
418.025	765.09
418.233	808.09
418.441	838.81
418.649	969.88
418.857	953.5
419.065	1100.95
419.273	924.83
419.481	937.12
419.689	1045.66
419.897	1111.19
420.105	1193.11
420.313	1215.64
420.521	1365.14
420.729	1199.26
420.937	1219.74
421.145	1293.46
421.353	1418.39
421.561	1420.44
421.769	1430.68
421.977	1541.27
422.185	1526.93
422.393	1563.79
422.601	1676.43
422.809	1584.27
423.017	1617.04
423.224	1756.3
423.432	1887.37
423.64	1856.65
423.848	2059.4
424.056	2045.07
424.263	2106.51
424.471	2126.99
424.679	2133.13
424.887	2358.41
425.094	2354.31
425.302	2278.54
425.51	2495.62
425.718	2550.92
425.925	2571.4
426.133	2657.41
426.341	2872.45
426.548	2940.03
426.756	2915.45
426.964	2921.6
427.171	3069.05
427.379	3261.56
427.586	3304.57
427.794	3277.94
428.001	3505.27
428.209	3429.49
428.417	3542.13
428.624	3916.91
428.832	3880.05
429.039	3865.71
429.247	3882.1
429.454	4152.43
429.662	4660.32
429.869	4308.07
430.076	4545.64
430.284	4422.76
430.491	4555.88
430.699	4934.75
430.906	4709.47
431.114	4875.36
431.321	5102.68
431.528	5188.7
431.736	5661.78
431.943	5848.15
432.15	5690.45
432.358	5741.65
432.565	6108.24
432.772	5909.58
432.979	6161.48
433.187	6341.71
433.394	6491.21
433.601	6859.84
433.808	7033.92
434.016	6851.65
434.223	7021.63
434.43	7711.8
434.637	7533.62
434.844	7949.36
435.052	8127.53
435.259	8002.61
435.466	8041.52
435.673	8021.04
435.88	8494.12
436.087	9002.02
436.294	8928.29
436.501	8858.66
436.708	9067.55
436.915	9266.21
437.122	9657.37
437.329	9614.36
437.537	10173.46
437.743	10157.07
437.95	10310.67
438.157	10589.19
438.364	10716.17
438.571	11021.31
438.778	11156.48
438.985	11914.23
439.192	11738.1
439.399	12024.82
439.606	11793.4
439.813	12295.15
440.02	12970.98
440.227	12880.87
440.433	12858.34
440.64	13554.65
440.847	13095.91
441.054	13493.21
441.261	14472.14
441.467	14279.63
441.674	14441.42
441.881	14975.94
442.088	14783.43
442.294	14754.76
442.501	15580.09
442.708	15786.94
442.914	16147.38
443.121	16950.18
443.328	16350.13
443.534	17773.47
443.741	17071.01
443.948	16892.84
444.154	18215.83
444.361	17922.97
444.568	18144.15
444.774	17937.3
444.981	18434.96
445.187	18883.47
445.394	19749.76
445.6	19673.98
445.807	21490.53
446.013	20554.61
446.22	20865.9
446.426	21592.93
446.633	21816.16
446.839	22491.99
447.046	21564.26
447.252	22872.91
447.459	22930.25
447.665	22651.73
447.871	23749.44
448.078	25142.06
448.284	23436.1
448.491	24437.56
448.697	25285.42
448.903	25633.57
449.11	26182.43
449.316	25574.18
449.522	25983.77
449.728	26567.45
449.935	26825.49
450.141	27038.48
450.347	27525.89
450.553	26817.3
450.76	26942.22
450.966	27718.4
451.172	27548.42
451.378	28433.14
451.584	27837.19
451.791	28611.32
451.997	28642.04
452.203	28887.79
452.409	28910.32
452.615	28773.11
452.821	27835.14
453.027	27462.41
453.233	28992.24
453.44	27435.78
453.646	27882.24
453.852	28158.72
454.058	28625.65
454.264	27468.55
454.47	28402.43
454.676	27826.95
454.882	28701.43
455.088	26061.6
455.294	26565.4
455.5	27185.93
455.705	26843.92
455.911	26112.8
456.117	25955.1
456.323	25477.93
456.529	23778.11
456.735	24927.02
456.941	24357.69
457.147	24118.07
457.352	23057.23
457.558	23128.91
457.764	23003.98
457.97	22395.73
458.176	22182.74
458.381	22195.03
458.587	21492.58
458.793	21277.54
458.999	19958.65
459.204	21310.31
459.41	20898.67
459.616	19561.34
459.821	19633.02
460.027	19782.52
460.233	18711.44
460.438	18152.34
460.644	18203.54
460.85	17617.82
461.055	17353.63
461.261	17109.93
461.466	15784.89
461.672	15588.28
461.878	16358.32
462.083	15629.24
462.289	15078.34
462.494	14973.89
462.7	14412.75
462.905	14169.04
463.111	14314.45
463.316	14439.37
463.522	14201.81
463.727	14175.19
463.932	14283.73
464.138	13974.49
464.343	14087.12
464.549	13671.39
464.754	14310.35
464.959	13845.46
465.165	13872.09
465.37	13464.54
465.575	12891.11
465.781	13568.99
465.986	13566.94
466.191	12925.93
466.397	13034.47
466.602	12422.13
466.807	12848.1
467.012	12698.6
467.218	12651.5
467.423	12526.57
467.628	12676.07
467.833	13110.24
468.038	12749.8
468.244	12422.13
468.449	12747.75
468.654	12348.4
468.859	12194.8
469.064	12094.45
469.269	11688.95
469.474	11764.73
469.679	12069.87
469.885	11727.86
470.09	11930.61
470.295	11736.06
470.5	11457.53
470.705	11670.52
470.91	11308.03
471.115	11330.56
471.32	11238.4
471.525	11344.89
471.73	11066.37
471.935	11125.76
472.139	10482.7
472.344	10800.13
472.549	10658.82
472.754	10494.99
472.959	10494.99
473.164	10183.7
473.369	9921.56
473.574	10402.83
473.778	10408.97
473.983	10167.31
474.188	10064.91
474.393	9757.72
474.598	9729.05
474.802	9657.37
475.007	9616.41
475.212	9589.78
475.417	9372.7
475.621	9192.48
475.826	9141.28
476.031	9118.75
476.235	8834.08
476.44	9309.21
476.645	8858.66
476.849	8932.39
477.054	8834.08
477.259	8428.59
477.463	8567.85
477.668	8473.64
477.872	8690.73
478.077	8608.81
478.282	8315.95
478.486	8049.71
478.691	8131.63
478.895	8352.81
479.1	8137.77
479.304	7990.32
479.509	7748.66
479.713	8008.75
479.918	7732.28
480.122	7797.81
480.326	7767.09
480.531	7719.99
480.735	7662.65
480.94	7629.88
481.144	7889.97
481.348	7541.82
481.553	7638.07
481.757	7427.13
481.961	7582.77
482.166	7715.89
482.37	7552.06
482.574	7543.86
482.778	7593.01
482.983	7533.62
483.187	7455.8
483.391	7562.3
483.595	7480.38
483.8	7367.74
484.004	7586.87
484.208	7588.92
484.412	7496.76
484.616	7666.74
484.821	7570.49
485.025	7461.94
485.229	7511.1
485.433	7457.85
485.637	7406.65
485.841	7441.47
486.045	7337.02
486.249	7525.43
486.453	7578.68
486.657	7429.18
486.861	7609.4
487.065	7367.74
487.269	7439.42
487.473	7334.97
487.677	7431.23
487.881	7674.93
488.085	7547.96
488.289	7543.86
488.493	7619.64
488.697	7771.19
488.901	7633.97
489.105	7416.89
489.309	7713.84
489.512	7504.95
489.716	7724.08
489.92	7488.57
490.124	7611.45
490.328	7824.44
490.531	7701.56
490.735	7828.53
490.939	7461.94
491.143	7715.89
491.346	7748.66
491.55	7773.24
491.754	7849.01
491.958	7763
492.161	7900.21
492.365	7986.22
492.569	8002.61
492.772	8135.73
492.976	7869.49
493.18	7984.18
493.383	8223.79
493.587	8399.91
493.79	8221.74
493.994	8051.76
494.197	8291.37
494.401	8344.62
494.605	8453.16
494.808	8420.39
495.012	8498.22
495.215	8453.16
495.419	8625.19
495.622	8670.25
495.825	8873
496.029	8657.96
496.232	9174.05
496.436	9085.98
496.639	9221.15
496.843	9014.31
497.046	9356.32
497.249	9344.03
497.453	9405.47
497.656	9413.66
497.859	9454.62
498.063	9665.56
498.266	9776.15
498.469	9557.02
498.673	9823.25
498.876	10126.35
499.079	10023.95
499.282	10218.51
499.485	10370.06
499.689	10413.07
499.892	10499.08
500.095	10638.34
500.298	10753.03
500.501	11021.31
500.705	11049.99
500.908	11224.06
501.111	11080.71
501.314	11414.52
501.517	11574.27
501.72	11647.99
501.923	11670.52
502.126	11987.96
502.329	12137.46
502.532	12137.46
502.735	12028.92
502.938	12321.77
503.141	12432.36
503.344	12749.8
503.547	12770.28
503.75	12934.12
503.953	13059.04
504.156	13286.37
504.359	13386.72
504.562	13364.19
504.765	13790.17
504.968	13732.83
505.17	14003.16
505.373	13925.33
505.576	14175.19
505.779	14392.27
505.982	14791.62
506.185	14941.13
506.387	14799.82
506.59	15201.22
506.793	15135.68
506.996	15156.16
507.198	15711.16
507.401	15510.46
507.604	15891.38
507.807	16094.13
508.009	16337.84
508.212	16409.52
508.415	16462.77
508.617	16675.76
508.82	16552.88
509.022	16657.32
509.225	17103.78
509.428	17257.38
509.63	17353.63
509.833	17828.76
510.035	17765.28
510.238	17922.97
510.44	17783.71
510.643	18416.53
510.845	18797.45
511.048	18244.5
511.25	18736.01
511.453	18824.08
511.655	19764.09
511.858	19159.94
512.06	19473.28
512.262	19841.92
512.465	19653.5
512.667	19970.94
512.87	20099.96
513.072	20413.3
513.274	20675.44
513.477	20929.39
513.679	21193.58
513.881	20962.15
514.084	21744.48
514.286	21463.91
514.488	21381.99
514.69	22244.18
514.893	22451.03
515.095	22371.16
515.297	22532.95
515.499	22551.38
515.701	22926.16
515.904	23130.95
516.106	23327.56
516.308	23259.98
516.51	23778.11
516.712	23552.84
516.914	24040.25
517.116	24550.2
517.318	24935.21
517.52	24654.64
517.722	24750.9
517.925	25115.44
518.127	25279.27
518.329	25408.29
518.531	25264.94
518.733	26211.1
518.935	25920.29
519.136	26157.85
519.338	26444.57
519.54	26800.91
519.742	27065.1
519.944	27095.82
520.146	27278.09
520.348	27478.79
520.55	27775.75
520.752	27955.97
520.954	28308.22
521.155	28048.13
521.357	28631.8
521.559	28633.85
521.761	29197.04
521.963	29264.62
522.164	29192.94
522.366	29563.62
522.568	29885.15
522.77	29842.15
522.971	30458.59
523.173	30075.62
523.375	30556.89
523.576	30456.54
523.778	30528.22
523.98	30946
524.181	30808.79
524.383	30821.08
524.584	31384.27
524.786	31675.08
524.988	31154.9
525.189	31867.59
525.391	32109.25
525.592	32551.61
525.794	32510.65
525.995	32539.32
526.197	32465.6
526.398	32465.6
526.6	32762.55
526.801	33018.55
527.003	32871.09
527.204	32629.43
527.406	33448.62
527.607	33219.25
527.808	33819.3
528.01	32957.11
528.211	33354.41
528.412	34112.16
528.614	33868.45
528.815	33919.65
529.016	34572.96
529.218	33925.8
529.419	34386.59
529.62	34112.16
529.822	34534.04
530.023	34398.88
530.224	34376.35
530.425	34658.97
530.626	34472.6
530.828	34126.5
531.029	34841.24
531.23	34792.09
531.431	34757.27
531.632	34751.13
531.833	34925.21
532.035	34925.21
532.236	35119.76
532.437	35156.63
532.638	35238.54
532.839	35412.62
533.04	35087
533.241	34884.25
533.442	35562.12
533.643	35277.46
533.844	34910.87
534.045	35310.22
534.246	35353.23
534.447	35629.71
534.648	35291.79
534.849	35572.36
535.05	35103.38
535.251	35756.68
535.451	35486.35
535.652	35760.78
535.853	35826.31
536.054	35607.18
536.255	35777.16
536.456	35484.3
536.657	35897.99
536.857	35146.39
537.058	35500.68
537.259	35734.15
537.46	35490.45
537.66	35420.81
537.861	35826.31
538.062	35639.95
538.263	35949.19
538.463	35619.47
538.664	35615.37
538.865	35533.45
539.065	36055.68
539.266	35451.53
539.466	35537.55
539.667	35793.54
539.868	35897.99
540.068	35783.3
540.269	35648.14
540.469	35869.32
540.67	35451.53
540.87	35760.78
541.071	35674.76
541.271	35857.03
541.472	35650.19
541.672	35580.56
541.873	35388.05
542.073	35256.98
542.274	35811.98
542.474	35617.42
542.675	35375.76
542.875	35693.19
543.075	35658.38
543.276	35437.2
543.476	35623.56
543.676	35386
543.877	35527.31
544.077	35842.7
544.277	35760.78
544.478	35721.87
544.678	35762.82
544.878	35607.18
545.078	35678.86
545.279	35353.23
545.479	35533.45
545.679	35961.48
545.879	35783.3
546.079	35394.19
546.28	35668.62
546.48	35240.59
546.68	35893.89
546.88	35941
547.08	35685
547.28	35596.94
547.48	35232.4
547.68	35594.89
547.88	35164.82
548.081	35652.23
548.281	35420.81
548.481	35535.5
548.681	35887.75
548.881	35680.91
549.081	35568.27
549.28	35672.71
549.48	35601.04
549.68	35773.06
549.88	36153.99
550.08	35375.76
550.28	35590.8
550.48	35422.86
550.68	35768.97
550.88	35242.64
551.08	35650.19
551.279	35730.06
551.479	35517.07
551.679	35578.51
551.879	35400.33
552.079	36018.82
552.278	35353.23
552.478	35504.78
552.678	35365.52
552.878	35867.27
553.077	35375.76
553.277	35191.44
553.477	35875.46
553.676	35715.72
553.876	35197.59
554.076	35570.32
554.275	35265.17
554.475	34968.21
554.674	35652.23
554.874	35285.65
555.074	35435.15
555.273	35371.66
555.473	35570.32
555.672	35359.38
555.872	35480.21
556.071	35758.73
556.271	35670.67
556.47	35158.67
556.67	35173.01
556.869	35488.4
557.068	35365.52
557.268	34857.62
557.467	35173.01
557.667	35406.48
557.866	35373.71
558.065	34941.59
558.265	35070.61
558.464	34607.77
558.663	35402.38
558.863	34278.05
559.062	34890.39
559.261	34532
559.461	35263.12
559.66	34132.64
559.859	34810.52
560.058	34708.12
560.258	34689.69
560.457	34257.57
560.656	34763.42
560.855	34316.96
561.054	34468.51
561.253	34376.35
561.453	34757.27
561.652	34585.24
561.851	34370.21
562.05	34554.52
562.249	34247.33
562.448	34312.86
562.647	34220.7
562.846	34378.4
563.045	34212.51
563.244	34042.53
563.443	34681.5
563.642	34005.67
563.841	33850.02
564.04	34296.48
564.239	34335.39
564.438	33739.43
564.637	33927.84
564.836	33985.19
565.035	33657.51
565.234	33809.06
565.432	33581.74
565.631	33315.5
565.83	33878.69
566.029	33577.64
566.228	33422
566.427	33354.41
566.625	33133.23
566.824	33149.62
567.023	33454.76
567.222	32539.32
567.42	33301.17
567.619	33295.02
567.818	33030.83
568.016	33149.62
568.215	32895.67
568.414	32461.5
568.612	33295.02
568.811	32680.63
569.01	33018.55
569.208	32445.12
569.407	32619.19
569.605	32617.14
569.804	32594.62
570.002	32326.33
570.201	32572.09
570.4	32305.85
570.598	32232.13
570.797	31988.42
570.995	31994.56
571.193	31888.07
571.392	32068.29
571.59	31873.73
571.789	31855.3
571.987	31597.26
572.186	31736.52
572.384	31666.89
572.582	31845.06
572.781	31613.64
572.979	31038.16
573.177	31531.72
573.376	31558.35
573.574	31161.04
573.772	31210.19
573.971	30857.94
574.169	31365.84
574.367	30757.59
574.565	31326.92
574.763	31154.9
574.962	30960.34
575.16	30456.54
575.358	30792.4
575.556	30343.9
575.754	30804.69
575.952	30509.79
576.151	30720.73
576.349	30261.98
576.547	30366.43
576.745	30442.2
576.943	30450.39
577.141	30032.61
577.339	30372.57
577.537	29983.46
577.735	30237.41
577.933	29891.3
578.131	30073.57
578.329	29860.58
578.527	29651.69
578.725	29883.11
578.923	29680.36
579.121	29471.46
579.319	29373.16
579.516	29706.98
579.714	29842.15
579.912	29457.13
580.11	29147.89
580.308	29833.96
580.506	29391.59
580.704	28938.99
580.901	29025.01
581.099	29364.97
581.297	29082.35
581.495	29057.78
581.692	29008.62
581.89	28275.45
582.088	28900.08
582.285	28609.27
582.483	28783.35
582.681	28783.35
582.878	28349.18
583.076	28379.9
583.274	28603.13
583.471	28125.95
583.669	28373.75
583.866	27951.87
584.064	28240.64
584.262	27968.26
584.459	27986.69
584.657	27681.54
584.854	28134.14
585.052	27611.91
585.249	27994.88
585.447	27826.95
585.644	27235.08
585.841	27607.81
586.039	27693.83
586.236	27187.98
586.434	27362.06
586.631	27140.88
586.828	27212.56
587.026	27325.19
587.223	27147.02
587.42	26991.37
587.618	27128.59
587.815	26829.59
588.012	26655.51
588.21	26669.84
588.407	26903.31
588.604	26587.92
588.801	26704.66
588.999	26624.79
589.196	26653.46
589.393	26528.53
589.59	26235.67
589.787	26250.01
589.984	26239.77
590.182	26030.88
590.379	26153.76
590.576	25955.1
590.773	26041.12
590.97	25991.97
591.167	25776.93
591.364	26073.88
591.561	25715.49
591.758	25721.63
591.955	25396.01
592.152	25783.07
592.349	25334.57
592.546	25508.65
592.743	25533.22
592.94	25213.74
593.137	25279.27
593.334	25342.76
593.531	24781.62
593.727	25168.68
593.924	24937.26
594.121	24902.45
594.318	24798
594.515	24601.4
594.712	24802.1
594.908	24623.92
595.105	24814.38
595.302	24423.22
595.499	24460.09
595.696	24535.86
595.892	24374.07
596.089	24529.72
596.286	24189.75
596.482	24238.9
596.679	23935.81
596.876	24259.38
597.072	24040.25
597.269	24148.79
597.466	23573.31
597.662	23884.61
597.859	23722.82
598.055	23595.84
598.252	23477.06
598.448	23395.14
598.645	23659.33
598.841	23315.27
599.038	23444.29
599.234	23184.2
599.431	22989.64
599.627	23214.92
599.824	23159.63
600.02	23210.82
600.217	23235.4
600.413	23075.66
600.609	22819.66
600.806	22670.16
601.002	22907.73
601.198	22633.3
601.395	22633.3
601.591	22489.94
601.787	22467.41
601.984	22512.47
602.18	22375.25
602.376	22233.94
602.572	22158.17
602.769	22096.73
602.965	21969.76
603.161	22111.07
603.357	21853.02
603.553	21777.25
603.75	22031.19
603.946	21853.02
604.142	22066.01
604.338	21470.05
604.534	21867.36
604.73	21470.05
604.926	21678.94
605.122	21961.56
605.318	21568.35
605.514	21519.2
605.71	21095.27
605.906	21468
606.102	21320.55
606.298	21394.28
606.494	21093.22
606.69	21087.08
606.886	21240.68
607.082	20953.96
607.278	21021.55
607.474	20706.16
607.67	21209.96
607.866	20603.76
608.062	20859.76
608.257	21003.11
608.453	20743.02
608.649	20845.42
608.845	20474.74
609.041	20589.42
609.236	20507.51
609.432	20513.65
609.628	20620.14
609.824	20480.88
610.019	20427.63
610.215	20429.68
610.411	20630.38
610.606	20226.93
610.802	20470.64
610.998	20370.29
611.193	20077.43
611.389	20102.01
611.584	19966.84
611.78	20276.09
611.976	19968.89
612.171	20169.59
612.367	20132.73
612.562	19981.18
612.758	19839.87
612.953	19766.14
613.149	20097.91
613.344	19729.28
613.539	19905.4
613.735	20048.76
613.93	19843.96
614.126	19626.88
614.321	19825.53
614.517	19731.33
614.712	19669.89
614.907	19594.11
615.103	20157.3
615.298	19573.63
615.493	19866.49
615.688	19315.59
615.884	19934.07
616.079	19276.68
616.274	19684.22
616.47	19397.51
616.665	19716.99
616.86	19323.78
617.055	19518.34
617.25	18944.91
617.445	19260.29
617.641	18758.54
617.836	19022.73
618.031	19051.4
618.226	19139.46
618.421	19125.13
618.616	19313.54
618.811	18850.7
619.006	19153.8
619.201	18905.99
619.396	18776.97
619.591	18404.24
619.786	18711.44
619.981	18164.63
620.176	18498.45
620.371	18287.51
620.566	18578.32
620.761	18168.73
620.956	18391.95
621.151	18088.85
621.346	18219.92
621.541	17705.88
621.735	17972.12
621.93	17908.63
622.125	17859.48
622.32	17675.16
622.515	17689.5
622.709	17382.31
622.904	17456.03
623.099	17623.97
623.294	17394.59
623.488	17056.68
623.683	17066.92
623.878	17034.15
624.072	16941.99
624.267	16792.49
624.462	16952.23
624.656	16726.96
624.851	16765.87
625.046	16630.7
625.24	16473.01
625.435	16382.9
625.629	16405.42
625.824	16139.19
626.018	16386.99
626.213	15868.86
626.407	15950.78
626.602	15731.64
626.796	15942.58
626.991	15619
627.185	15866.81
627.38	15520.7
627.574	15459.26
627.768	15320
627.963	15391.68
628.157	15229.89
628.352	15152.07
628.546	15092.68
628.74	15033.29
628.935	14881.74
629.129	15078.34
629.323	14963.65
629.517	14599.12
629.712	14883.78
629.906	14609.36
630.1	14521.29
630.294	14580.68
630.489	14246.87
630.683	14187.47
630.877	14136.27
631.071	13999.06
631.265	13919.19
631.459	13839.32
631.653	13915.09
631.848	13882.33
632.042	13798.36
632.236	13911
632.43	13810.65
632.624	13542.36
632.818	13300.7
633.012	13431.77
633.206	13607.9
633.4	13280.22
633.594	13296.61
633.788	13147.11
633.982	13255.65
634.176	13169.63
634.369	13126.63
634.563	13376.48
634.757	13026.28
634.951	12782.57
635.145	13024.23
635.339	12676.07
635.533	12665.83
635.726	12649.45
635.92	12366.83
636.114	12643.31
636.308	12346.35
636.501	12413.93
636.695	12370.93
636.889	12270.58
637.083	12108.79
637.276	12018.68
637.47	12102.64
637.664	11873.27
637.857	11836.41
638.051	12184.56
638.244	11850.74
638.438	11740.15
638.632	11590.65
638.825	11852.79
639.019	11777.01
639.212	11527.16
639.406	11473.92
639.599	11424.76
639.793	11389.95
639.986	11226.11
640.18	11328.51
640.373	11351.04
640.567	11058.18
640.76	11174.91
640.954	11170.82
641.147	11078.66
641.34	10871.81
641.534	10914.82
641.727	10832.9
641.92	10722.31
642.114	10615.82
642.307	10726.41
642.5	10832.9
642.694	10288.14
642.887	10617.86
643.08	10535.95
643.273	10529.8
643.467	10238.99
643.66	10292.24
643.853	10351.63
644.046	10030.1
644.239	10118.16
644.432	9915.41
644.626	9919.51
644.819	9927.7
645.012	9923.6
645.205	10079.25
645.398	9966.61
645.591	9745.43
645.784	9763.86
645.977	9770.01
646.17	9661.46
646.363	9663.51
646.556	9387.04
646.749	9692.18
646.942	9645.08
647.135	9284.64
647.328	9360.41
647.521	9356.32
647.714	9239.58
647.907	9219.1
648.099	9206.81
648.292	9143.33
648.485	9169.95
648.678	9208.86
648.871	9073.7
649.064	9088.03
649.256	9202.72
649.449	8852.52
649.642	8817.7
649.835	8655.91
650.027	8762.4
650.22	8666.15
650.413	8528.94
650.605	8436.78
650.798	8547.37
650.991	8727.59
651.183	8602.66
651.376	8475.69
651.568	8502.31
651.761	8422.44
651.954	8436.78
652.146	8410.15
652.339	8412.2
652.531	8152.11
652.724	8254.51
652.916	8156.21
653.109	8057.9
653.301	7990.32
653.494	8195.12
653.686	8018.99
653.879	8096.82
654.071	7767.09
654.263	7910.45
654.456	7889.97
654.648	7769.14
654.84	7593.01
655.033	7801.91
655.225	7775.28
655.417	7687.22
655.61	7574.58
655.802	7662.65
655.994	7486.52
656.186	7531.58
656.379	7355.45
656.571	7402.55
656.763	7416.89
656.955	7359.55
657.148	7349.31
657.34	7332.92
657.532	7091.26
657.724	7236.67
657.916	7234.62
658.108	7109.69
658.3	7167.04
658.492	7154.75
658.684	6960.19
658.876	7062.59
659.068	7048.26
659.26	6847.55
659.452	7003.2
659.644	7019.58
659.836	6667.33
660.028	6829.12
660.22	6706.24
660.412	6896.71
660.604	6816.83
660.796	6657.09
660.988	6743.11
661.18	6685.76
661.372	6599.75
661.563	6605.89
661.755	6671.43
661.947	6579.27
662.139	6435.91
662.331	6630.47
662.522	6417.48
662.714	6444.1
662.906	6401.1
663.097	6431.82
663.289	6173.77
663.481	6267.98
663.673	6294.6
663.864	6204.49
664.056	6198.35
664.247	6255.69
664.439	6171.72
664.631	6169.68
664.822	6081.61
665.014	6110.29
665.205	6032.46
665.397	6093.9
665.588	6075.47
665.78	6052.94
665.971	5710.93
666.163	5844.05
666.354	5874.77
666.546	5899.34
666.737	5731.41
666.929	5956.69
667.12	5878.86
667.311	5776.47
667.503	5792.85
667.694	5680.21
667.885	5504.09
668.077	5512.28
668.268	5624.92
668.459	5588.05
668.651	5456.98
668.842	5454.94
669.033	5456.98
669.224	5475.42
669.416	5495.89
669.607	5413.98
669.798	5467.22
669.989	5299.29
670.18	5526.61
670.371	5389.4
670.563	5325.91
670.754	5305.43
670.945	5299.29
671.136	5260.38
671.327	5344.35
671.518	5293.15
671.709	5192.8
671.9	5327.96
672.091	5280.86
672.282	5149.79
672.473	5192.8
672.664	5203.04
672.855	5155.93
673.046	5246.04
673.237	5086.3
673.428	5069.92
673.619	4916.32
673.809	4865.12
674	5000.29
674.191	4846.69
674.382	4930.66
674.573	5012.57
674.764	4904.03
674.954	4910.18
675.145	5041.25
675.336	4867.17
675.527	4877.41
675.717	4938.85
675.908	4805.73
676.099	4844.64
676.289	4932.7
676.48	4942.94
676.671	4871.26
676.861	4863.07
677.052	4801.63
677.243	4783.2
677.433	4803.68
677.624	4707.43
677.814	4867.17
678.005	4762.72
678.195	4764.77
678.386	4709.47
678.576	4744.29
678.767	4633.7
678.957	4633.7
679.148	4709.47
679.338	4682.85
679.529	4648.04
679.719	4680.8
679.909	4768.87
680.1	4519.01
680.29	4605.03
680.481	4619.36
680.671	4576.36
680.861	4551.78
681.052	4756.58
681.242	4549.73
681.432	4613.22
681.622	4523.11
681.813	4621.41
682.003	4629.6
682.193	4340.84
682.383	4439.14
682.573	4564.07
682.764	4461.67
682.954	4295.79
683.144	4426.86
683.334	4357.22
683.524	4439.14
683.714	4449.38
683.904	4392.04
684.094	4310.12
684.284	4246.63
684.474	4314.22
684.664	4383.85
684.854	4445.29
685.044	4303.98
685.234	4349.03
685.424	4351.08
685.614	4283.5
685.804	4191.34
685.994	4154.48
686.184	4201.58
686.374	4185.19
686.564	4275.31
686.753	4166.76
686.943	4107.37
687.133	4195.43
687.323	4007.02
687.513	4240.49
687.702	4142.19
687.892	4054.12
688.082	3996.78
688.272	4121.71
688.461	4185.19
688.651	4138.09
688.841	3912.81
689.03	4002.93
689.22	3978.35
689.41	3996.78
689.599	3796.08
689.789	3904.62
689.979	3753.07
690.168	3863.66
690.358	3826.8
690.547	3845.23
690.737	3822.7
690.926	3761.27
691.116	3744.88
691.305	3888.24
691.495	3689.59
691.684	3751.03
691.874	3834.99
692.063	3724.4
692.252	3673.2
692.442	3695.73
692.631	3671.15
692.82	3703.92
693.01	3529.84
693.199	3513.46
693.388	3484.79
693.578	3529.84
693.767	3568.76
693.956	3599.48
694.146	3593.33
694.335	3449.97
694.524	3492.98
694.713	3599.48
694.902	3492.98
695.092	3406.97
695.281	3394.68
695.47	3495.03
695.659	3345.53
695.848	3275.9
696.037	3339.38
696.226	3433.59
696.415	3353.72
696.604	3392.63
696.793	3376.25
696.982	3370.1
697.171	3425.4
697.36	3316.86
697.549	3325.05
697.738	3304.57
697.927	3363.96
698.116	3290.23
698.305	3245.18
698.494	3421.3
698.683	3226.75
698.872	3284.09
699.061	3257.46
699.25	3140.73
699.438	3198.07
699.627	3251.32
699.816	3236.99
700.005	3222.65
700.193	3128.44
700.382	3226.75
700.571	3171.45
700.76	3241.08
700.948	3259.51
701.137	3230.84
701.326	3181.69
701.514	3171.45
701.703	3224.7
701.892	3183.74
702.08	3136.63
702.269	3132.54
702.457	3163.26
702.646	3171.45
702.834	3089.53
703.023	3179.64
703.212	3101.82
703.4	3034.24
703.589	2995.32
703.777	3107.96
703.965	3153.02
704.154	3150.97
704.342	3017.85
704.531	3097.72
704.719	3122.3
704.907	3241.08
705.096	3185.79
705.284	2972.8
705.472	3148.92
705.661	3026.04
705.849	3183.74
706.037	2987.13
706.226	3034.24
706.414	3079.29
706.602	3079.29
706.79	2980.99
706.979	3034.24
707.167	3210.36
707.355	3067
707.543	3128.44
707.731	3028.09
707.919	2991.23
708.107	2989.18
708.296	3067
708.484	3146.87
708.672	3009.66
708.86	3062.91
709.048	2985.09
709.236	3030.14
709.424	3019.9
709.612	3019.9
709.8	2923.65
709.988	2999.42
710.176	3112.06
710.364	2925.69
710.551	2921.6
710.739	2989.18
710.927	3021.95
711.115	3056.76
711.303	2927.74
711.491	3003.52
711.679	3085.44
711.866	3064.96
712.054	3036.28
712.242	2999.42
712.43	3177.59
712.617	3036.28
712.805	3116.16
712.993	2892.93
713.181	3056.76
713.368	3050.62
713.556	3140.73
713.744	2917.5
713.931	3153.02
714.119	3044.48
714.306	2913.41
714.494	2915.45
714.682	3009.66
714.869	2985.09
715.057	3110.01
715.244	3005.56
715.432	3110.01
715.619	3058.81
715.807	3048.57
715.994	2999.42
716.182	3050.62
716.369	2985.09
716.556	2847.87
716.744	3005.56
716.931	3095.68
717.119	3034.24
717.306	2931.84
717.493	3054.72
717.681	2874.49
717.868	3001.47
718.055	3177.59
718.242	2974.85
718.43	3075.2
718.617	2952.32
718.804	3036.28
718.991	3079.29
719.179	3073.15
719.366	3052.67
719.553	2954.37
719.74	2956.41
719.927	3114.11
720.114	2970.75
720.301	3015.8
720.488	3052.67
720.676	2950.27
720.863	3077.24
721.05	3017.85
721.237	3048.57
721.424	2915.45
721.611	3064.96
721.798	2864.25
721.985	3013.76
722.172	3009.66
722.358	2993.28
722.545	3007.61
722.732	2989.18
722.919	3083.39
723.106	3007.61
723.293	3075.2
723.48	2884.73
723.667	2933.89
723.853	2913.41
724.04	2944.13
724.227	3001.47
724.414	2948.22
724.6	2942.08
724.787	2901.12
724.974	2997.37
725.161	2911.36
725.347	2985.09
725.534	2972.8
725.72	2903.17
725.907	2970.75
726.094	2899.07
726.28	2888.83
726.467	2946.17
726.653	3038.33
726.84	2856.06
727.027	3060.86
727.213	3046.52
727.4	3052.67
727.586	2989.18
727.773	3052.67
727.959	2792.58
728.145	2993.28
728.332	2964.61
728.518	2954.37
728.705	3060.86
728.891	3005.56
729.077	2876.54
729.264	2987.13
729.45	2970.75
729.636	3081.34
729.823	2919.55
730.009	2856.06
730.195	2872.45
730.382	2933.89
730.568	2849.92
730.754	3003.52
730.94	3060.86
731.126	3036.28
731.313	2835.58
731.499	3044.48
731.685	3034.24
731.871	2804.86
732.057	2917.5
732.243	2866.3
732.429	2899.07
732.615	2931.84
732.801	2983.04
732.987	2913.41
733.173	2974.85
733.359	2858.11
733.545	2925.69
733.731	2958.46
733.917	2962.56
734.103	2958.46
734.289	2954.37
734.475	2892.93
734.661	3142.78
734.847	2888.83
735.033	2978.94
735.219	2862.21
735.404	2886.78
735.59	2831.49
735.776	2956.41
735.962	2851.97
736.148	2897.02
736.333	2909.31
736.519	2978.94
736.705	2866.3
736.89	2839.68
737.076	2831.49
737.262	2878.59
737.447	2854.02
737.633	2782.34
737.819	2862.21
738.004	2817.15
738.19	2737.28
738.375	2894.97
738.561	2837.63
738.747	2692.23
738.932	2829.44
739.118	2745.47
739.303	2796.67
739.489	2866.3
739.674	2780.29
739.859	2768
740.045	2845.82
740.23	2833.54
740.416	2681.99
740.601	2854.02
740.786	2825.34
740.972	2739.33
741.157	2653.31
741.342	2628.74
741.528	2653.31
741.713	2759.81
741.898	2587.78
742.084	2776.19
742.269	2655.36
742.454	2694.27
742.639	2749.57
742.824	2585.73
743.01	2667.65
743.195	2634.88
743.38	2620.55
743.565	2544.77
743.75	2595.97
743.935	2514.05
744.12	2548.87
744.305	2636.93
744.49	2600.07
744.675	2413.7
744.86	2585.73
745.045	2503.81
745.23	2471.04
745.415	2505.86
745.6	2466.95
745.785	2477.19
745.97	2530.44
746.155	2589.83
746.34	2567.3
746.525	2405.51
746.71	2489.48
746.895	2368.65
747.079	2360.45
747.264	2491.52
747.449	2417.8
747.634	2288.78
747.819	2370.69
748.003	2315.4
748.188	2305.16
748.373	2262.15
748.557	2450.57
748.742	2227.34
748.927	2292.87
749.111	2247.82
749.296	2151.56
749.481	2149.51
749.665	2157.71
749.85	2088.07
750.034	2256.01
750.219	2139.27
750.404	2172.04
750.588	2276.49
750.773	2122.89
750.957	2167.95
751.141	2063.5
751.326	2112.65
751.51	2073.74
751.695	2022.54
751.879	2002.06
752.064	2124.94
752.248	1983.63
752.432	2014.35
752.617	1985.68
752.801	2030.73
752.985	1961.1
753.17	1916.05
753.354	1918.09
753.538	1948.81
753.722	1930.38
753.907	1928.33
754.091	1860.75
754.275	1973.39
754.459	1885.33
754.643	1895.57
754.828	1717.39
755.012	1762.45
755.196	1834.13
755.38	1686.67
755.564	1889.42
755.748	1817.74
755.932	1856.65
756.116	1827.98
756.3	1664.15
756.484	1721.49
756.668	1672.34
756.852	1719.44
757.036	1768.59
757.22	1629.33
757.404	1533.08
757.588	1680.53
757.772	1660.05
757.956	1614.99
758.14	1576.08
758.323	1576.08
758.507	1623.19
758.691	1604.75
758.875	1619.09
759.059	1567.89
759.242	1488.02
759.426	1438.87
759.61	1520.79
759.794	1447.06
759.977	1528.98
760.161	1492.12
760.345	1420.44
760.528	1453.2
760.712	1465.49
760.895	1479.83
761.079	1375.38
761.263	1332.37
761.446	1502.36
761.63	1303.7
761.813	1424.53
761.997	1406.1
762.18	1377.43
762.364	1367.19
762.547	1408.15
762.731	1350.81
762.914	1330.33
763.098	1424.53
763.281	1365.14
763.464	1303.7
763.648	1430.68
763.831	1402.01
764.015	1305.75
764.198	1279.13
764.381	1320.09
764.564	1305.75
764.748	1344.66
764.931	1305.75
765.114	1195.16
765.297	1285.27
765.481	1350.81
765.664	1234.07
765.847	1223.83
766.03	1270.94
766.213	1313.94
766.397	1295.51
766.58	1250.46
766.763	1305.75
766.946	1260.7
767.129	1234.07
767.312	1184.92
767.495	1154.2
767.678	1170.58
767.861	1258.65
768.044	1264.79
768.227	1221.78
768.41	1172.63
768.593	1152.15
768.776	1152.15
768.959	1139.87
769.142	1199.26
769.324	1113.24
769.507	1129.63
769.69	1109.15
769.873	1131.67
770.056	1088.67
770.239	1064.09
770.421	1098.91
770.604	1154.2
770.787	1105.05
770.97	1076.38
771.152	1107.1
771.335	1049.75
771.518	1041.56
771.7	1025.18
771.883	1150.11
772.066	1209.5
772.248	965.79
772.431	1113.24
772.613	996.51
772.796	1070.23
772.978	969.88
773.161	1121.43
773.343	1064.09
773.526	965.79
773.708	904.35
773.891	847.01
774.073	949.4
774.256	1039.51
774.438	992.41
774.621	1029.27
774.803	967.84
774.985	851.1
775.168	945.31
775.35	941.21
775.532	955.55
775.715	855.2
775.897	881.82
776.079	941.21
776.261	902.3
776.444	971.93
776.626	834.72
776.808	969.88
776.99	816.29
777.173	887.97
777.355	793.76
777.537	834.72
777.719	883.87
777.901	808.09
778.083	789.66
778.265	810.14
778.447	744.61
778.629	765.09
778.811	767.13
778.993	810.14
779.175	746.66
779.357	695.46
779.539	785.57
779.721	769.18
779.903	724.13
780.085	744.61
780.267	726.18
780.449	758.94
780.631	756.9
780.812	701.6
780.994	705.7
781.176	697.5
781.358	711.84
781.54	711.84
781.721	701.6
781.903	666.78
782.085	652.45
782.267	701.6
782.448	595.11
782.63	660.64
782.812	722.08
782.993	701.6
783.175	611.49
783.357	642.21
783.538	689.31
783.72	730.27
783.901	717.98
784.083	709.79
784.264	603.3
784.446	599.2
784.627	603.3
784.809	679.07
784.99	586.91
785.172	621.73
785.353	509.09
785.535	588.96
785.716	564.39
785.897	543.91
786.079	605.35
786.26	531.62
786.441	554.15
786.623	537.76
786.804	562.34
786.985	498.85
787.167	593.06
787.348	533.67
787.529	451.75
787.71	529.57
787.891	527.52
788.073	504.99
788.254	558.24
788.435	398.5
788.616	515.23
788.797	504.99
788.978	588.96
789.159	439.46
789.34	554.15
789.522	486.56
789.703	552.1
789.884	437.41
790.065	498.85
790.246	591.01
790.427	507.04
790.607	517.28
790.788	502.95
790.969	451.75
791.15	431.27
791.331	326.82
791.512	406.69
791.693	457.89
791.874	406.69
792.054	402.6
792.235	408.74
792.416	375.97
792.597	345.25
792.778	355.49
792.958	494.76
793.139	402.6
793.32	412.84
793.5	363.69
793.681	406.69
793.862	386.21
794.042	396.45
794.223	371.88
794.404	412.84
794.584	418.98
794.765	402.6
794.945	345.25
795.126	445.6
795.306	418.98
795.487	394.4
795.667	341.16
795.848	384.16
796.028	365.73
796.209	398.5
796.389	365.73
796.57	349.35
796.75	373.92
796.93	314.53
797.111	380.07
797.291	410.79
797.471	316.58
797.652	359.59
797.832	285.86
798.012	369.83
798.192	310.44
798.373	337.06
798.553	375.97
798.733	378.02
798.913	402.6
799.093	304.29
799.274	330.92
799.454	277.67
799.634	359.59
799.814	347.3
799.994	332.97
800.174	332.97
800.354	324.77
800.534	267.43
800.714	302.25
800.894	363.69
801.074	304.29
801.254	267.43
801.434	373.92
801.614	281.77
801.794	232.62
801.974	664.74
802.154	267.43
802.334	259.24
802.514	228.52
802.693	324.77
802.873	353.45
803.053	294.05
803.233	263.33
803.413	361.64
803.592	257.19
803.772	289.96
803.952	232.62
804.131	312.49
804.311	316.58
804.491	265.38
804.67	285.86
804.85	261.29
805.03	330.92
805.209	341.16
805.389	281.77
805.568	265.38
805.748	242.85
805.928	353.45
806.107	208.04
806.287	265.38
806.466	222.38
806.646	205.99
806.825	203.94
807.004	240.81
807.184	244.9
807.363	275.62
807.543	265.38
807.722	283.81
807.901	271.53
808.081	259.24
808.26	249
808.439	281.77
808.619	292.01
808.798	175.27
808.977	263.33
809.156	193.7
809.336	294.05
809.515	179.37
809.694	246.95
809.873	203.94
810.052	212.14
810.231	228.52
810.411	230.57
810.59	251.05
810.769	218.28
810.948	185.51
811.127	197.8
811.306	232.62
811.485	253.09
811.664	240.81
811.843	179.37
812.022	175.27
812.201	185.51
812.38	124.07
812.559	279.72
812.737	242.85
812.916	165.03
813.095	187.56
813.274	210.09
813.453	203.94
813.632	224.42
813.811	234.66
813.989	230.57
814.168	259.24
814.347	126.12
814.526	240.81
814.704	179.37
814.883	203.94
815.062	124.07
815.24	175.27
815.419	210.09
815.598	160.94
815.776	216.23
815.955	158.89
816.133	154.79
816.312	228.52
816.49	156.84
816.669	146.6
816.847	197.8
817.026	187.56
817.204	171.18
817.383	107.69
817.561	117.93
817.74	91.31
817.918	146.6
818.097	76.97
818.275	130.22
818.453	220.33
818.632	183.46
818.81	99.5
818.988	142.5
819.167	146.6
819.345	175.27
819.523	83.11
819.701	165.03
819.879	210.09
820.058	150.7
820.236	203.94
820.414	54.44
820.592	115.88
820.77	99.5
820.948	138.41
821.127	148.65
821.305	220.33
821.483	119.98
821.661	79.02
821.839	95.4
822.017	199.85
822.195	99.5
822.373	144.55
822.551	115.88
822.729	162.98
822.907	134.31
823.085	183.46
823.262	152.74
823.44	117.93
823.618	173.22
823.796	146.6
823.974	193.7
824.152	185.51
824.329	83.11
824.507	132.26
824.685	103.59
824.863	144.55
825.04	95.4
825.218	103.59
825.396	99.5
825.574	158.89
825.751	103.59
825.929	144.55
826.107	64.68
826.284	154.79
826.462	154.79
826.639	203.94
826.817	113.83
826.994	93.35
827.172	136.36
827.349	169.13
827.527	46.25
827.704	101.55
827.882	109.74
828.059	171.18
828.237	101.55
828.414	103.59
828.591	74.92
828.769	46.25
828.946	97.45
829.124	103.59
829.301	111.78
829.478	113.83
829.655	115.88
829.833	87.21
830.01	72.87
830.187	165.03
830.364	173.22
830.542	126.12
830.719	89.26
830.896	91.31
831.073	81.07
831.25	81.07
831.427	107.69
831.604	95.4
831.782	56.49
831.959	79.02
832.136	64.68
832.313	99.5
832.49	76.97
832.667	99.5
832.844	142.5
833.021	115.88
833.198	48.3
833.374	154.79
833.551	173.22
833.728	122.02
833.905	64.68
834.082	173.22
834.259	74.92
834.436	154.79
834.612	9.39
834.789	105.64
834.966	105.64
835.143	111.78
835.319	119.98
835.496	107.69
835.673	72.87
835.85	21.67
836.026	117.93
836.203	83.11
836.38	152.74
836.556	109.74
836.733	70.83
836.909	128.17
837.086	93.35
837.262	70.83
837.439	111.78
837.616	136.36
837.792	111.78
837.968	113.83
838.145	138.41
838.321	40.11
838.498	148.65
838.674	165.03
838.851	83.11
839.027	72.87
839.203	13.48
839.38	95.4
839.556	17.58
839.732	25.77
839.909	113.83
840.085	119.98
840.261	138.41
840.437	124.07
840.614	89.26
840.79	76.97
840.966	52.39
841.142	50.35
841.318	44.2
841.494	62.63
841.671	91.31
841.847	70.83
842.023	52.39
842.199	70.83
842.375	87.21
842.551	46.25
842.727	60.59
842.903	79.02
843.079	58.54
843.255	76.97
843.431	-11.09
843.607	95.4
843.783	56.49
843.959	95.4
844.134	42.15
844.31	58.54
844.486	122.02
844.662	38.06
844.838	31.91
845.013	89.26
845.189	60.59
845.365	9.39
845.541	42.15
845.716	58.54
845.892	126.12
846.068	56.49
846.244	76.97
846.419	179.37
846.595	-7
846.77	58.54
846.946	60.59
847.122	66.73
847.297	85.16
847.473	89.26
847.648	19.63
847.824	76.97
847.999	60.59
848.175	27.82
848.35	56.49
848.526	29.87
848.701	136.36
848.876	29.87
849.052	3.24
849.227	76.97
849.403	13.48
849.578	-9.05
849.753	17.58
849.929	97.45
850.104	38.06
850.279	27.82
850.454	36.01
850.63	31.91
850.805	-23.38
850.98	91.31
851.155	70.83
851.33	38.06
851.505	17.58
851.681	81.07
851.856	1.19
852.031	72.87
852.206	64.68
852.381	23.72
852.556	29.87
852.731	68.78
852.906	44.2
853.081	44.2
853.256	70.83
853.431	91.31
853.606	46.25
853.781	38.06
853.956	-86.87
854.131	7.34
854.305	62.63
854.48	7.34
854.655	52.39
854.83	36.01
855.005	-21.33
855.18	66.73
855.354	5.29
855.529	1.19
855.704	29.87
855.879	48.3
856.053	68.78
856.228	17.58
856.403	25.77
856.577	119.98
856.752	44.2
856.926	89.26
857.101	21.67
857.276	23.72
857.45	72.87
857.625	89.26
857.799	72.87
857.974	70.83
858.148	40.11
858.323	21.67
858.497	74.92
858.672	36.01
858.846	-2.9
859.02	46.25
859.195	-21.33
859.369	23.72
859.543	60.59
859.718	27.82
859.892	-25.43
860.066	1.19
860.241	54.44
860.415	70.83
860.589	-37.72
860.763	36.01
860.938	-74.58
861.112	52.39
861.286	-21.33
861.46	17.58
861.634	13.48
861.808	97.45
861.982	-0.85
862.157	21.67
862.331	21.67
862.505	56.49
862.679	13.48
862.853	44.2
863.027	-0.85
863.201	89.26
863.375	-4.95
863.549	-11.09
863.722	-17.24
863.896	27.82
864.07	62.63
864.244	36.01
864.418	33.96
864.592	46.25
864.766	60.59
864.939	15.53
865.113	48.3
865.287	124.07
865.461	29.87
865.634	-9.05
865.808	-27.48
865.982	11.43
866.156	-50
866.329	-72.53
866.503	48.3
866.676	54.44
866.85	48.3
867.024	25.77
867.197	1.19
867.371	54.44
867.544	-0.85
867.718	-17.24
867.891	13.48
868.065	-0.85
868.238	15.53
868.412	64.68
868.585	31.91
868.759	48.3
868.932	38.06
869.105	13.48
869.279	33.96
869.452	19.63
869.625	-35.67
869.799	54.44
869.972	-7
870.145	-9.05
870.319	93.35
870.492	40.11
870.665	-62.29
870.838	21.67
871.011	-41.81
871.185	27.82
871.358	-25.43
871.531	87.21
871.704	68.78
871.877	-23.38
872.05	62.63
872.223	-31.57
872.396	91.31
872.569	21.67
872.742	-19.29
872.915	-29.52
873.088	-25.43
873.261	13.48
873.434	11.43
873.607	31.91
873.78	99.5
873.953	27.82
874.126	13.48
874.299	-11.09
874.471	17.58
874.644	66.73
874.817	33.96
874.99	38.06
875.163	-4.95
875.335	9.39
875.508	-27.48
875.681	107.69
875.853	-41.81
876.026	48.3
876.199	-37.72
876.371	54.44
876.544	23.72
876.717	15.53
876.889	-0.85
877.062	56.49
877.234	-15.19
877.407	-17.24
877.579	68.78
877.752	23.72
877.924	11.43
878.097	-56.15
878.269	-15.19
878.442	11.43
878.614	7.34
878.786	-19.29
878.959	-7
879.131	52.39
879.303	-68.44
879.476	72.87
879.648	-0.85
879.82	52.39
879.993	-25.43
880.165	21.67
880.337	19.63
880.509	-29.52
880.681	-13.14
880.854	-58.2
881.026	48.3
881.198	-19.29
881.37	7.34
881.542	54.44
881.714	5.29
881.886	48.3
882.058	-7
882.23	-9.05
882.402	19.63
882.574	-56.15
882.746	-7
882.918	31.91
883.09	42.15
883.262	-17.24
883.434	9.39
883.606	40.11
883.778	29.87
883.95	58.54
884.122	-13.14
884.293	58.54
884.465	97.45
884.637	62.63
884.809	-56.15
884.98	56.49
885.152	5.29
885.324	33.96
885.496	-64.34
885.667	-15.19
885.839	1.19
886.011	17.58
886.182	36.01
886.354	89.26
886.525	48.3
886.697	-29.52
886.869	-9.05
887.04	62.63
887.212	21.67
887.383	46.25
887.555	11.43
887.726	15.53
887.897	-107.35
888.069	-25.43
888.24	74.92
888.412	46.25
888.583	-27.48
888.754	-27.48
888.926	5.29
889.097	31.91
889.268	-64.34
889.44	25.77
889.611	50.35
889.782	-2.9
889.953	25.77
890.125	15.53
890.296	-29.52
890.467	38.06
890.638	11.43
890.809	-70.48
890.98	-13.14
891.151	7.34
891.323	44.2
891.494	42.15
891.665	21.67
891.836	11.43
892.007	62.63
892.178	44.2
892.349	-2.9
892.52	-7
892.691	-21.33
892.862	-35.67
893.032	52.39
893.203	17.58
893.374	5.29
893.545	50.35
893.716	3.24
893.887	-58.2
894.057	-9.05
894.228	85.16
894.399	66.73
894.57	33.96
894.74	-2.9
894.911	3.24
895.082	-11.09
895.253	-17.24
895.423	9.39
895.594	87.21
895.764	-0.85
895.935	-45.91
896.106	44.2
896.276	-2.9
896.447	13.48
896.617	5.29
896.788	-70.48
896.958	-0.85
897.129	56.49
897.299	21.67
897.47	40.11
897.64	21.67
897.81	-7
897.981	33.96
898.151	-29.52
898.322	-19.29
898.492	-41.81
898.662	17.58
898.832	52.39
899.003	58.54
899.173	17.58
899.343	-50
899.513	21.67
